"SampleName","A2Rd2_02-70"
"Target Mass 1",
"Column Name","IA-3 (3um, 4.6X100)"
"Channel","QDa 1: SIR Ch2"
0.00195,578
0.003616667,665
0.005283333,629
0.00695,910
0.008616666,910
0.01028333,824
0.01195,848
0.01361667,889
0.01528333,1060
0.01695,1189
0.01861667,1056
0.02028333,866
0.02195,828
0.02361667,1025
0.02528333,1060
0.02695,1105
0.02861667,1006
0.03028333,1034
0.03195,1022
0.03361667,1011
0.03528333,1009
0.03695,765
0.03861667,1046
0.04028333,863
0.04195,1083
0.04361667,966
0.04528333,1163
0.04695,859
0.04861667,1134
0.05028334,975
0.05195,1058
0.05361667,913
0.05528333,1038
0.05695,1221
0.05861667,776
0.06028333,873
0.06195,1014
0.06361666,952
0.06528334,825
0.06695,938
0.06861667,931
0.07028333,954
0.07195,967
0.07361667,980
0.07528333,1019
0.07695,842
0.07861666,734
0.08028334,994
0.08195,1000
0.08361667,1057
0.08528333,870
0.08695,1024
0.08861667,997
0.09028333,1037
0.09195,1103
0.09361666,927
0.09528334,932
0.09695,760
0.09861667,973
0.1002833,1078
0.10195,841
0.1036167,1024
0.1052833,748
0.10695,830
0.1086167,899
0.1102833,955
0.11195,809
0.1136167,1043
0.1152833,991
0.11695,853
0.1186167,962
0.1202833,865
0.12195,1024
0.1236167,1018
0.1252833,909
0.12695,952
0.1286167,1006
0.1302833,792
0.13195,1074
0.1336167,914
0.1352833,994
0.13695,957
0.1386167,840
0.1402833,1038
0.14195,815
0.1436167,850
0.1452833,1041
0.14695,975
0.1486167,903
0.1502833,965
0.15195,920
0.1536167,813
0.1552833,970
0.15695,1009
0.1586167,965
0.1602833,739
0.16195,862
0.1636167,873
0.1652833,812
0.16695,859
0.1686167,881
0.1702833,903
0.17195,824
0.1736167,827
0.1752833,846
0.17695,815
0.1786167,783
0.1802833,847
0.18195,851
0.1836167,856
0.1852833,838
0.18695,837
0.1886167,837
0.1902833,820
0.19195,804
0.1936167,818
0.1952833,833
0.19695,948
0.1986167,815
0.2002833,682
0.20195,887
0.2036167,854
0.2052833,1061
0.20695,1070
0.2086167,1201
0.2102833,863
0.21195,963
0.2136167,870
0.2152833,1182
0.21695,1102
0.2186167,957
0.2202833,1038
0.22195,1119
0.2236167,1007
0.2252833,1072
0.22695,1207
0.2286333,1188
0.2302833,1169
0.23195,1097
0.2336167,1307
0.2352833,1331
0.23695,1162
0.2386167,1305
0.2402833,1293
0.24195,1300
0.2436167,1286
0.2452833,1272
0.24695,1258
0.2486167,1183
0.2502833,1216
0.25195,1064
0.2536167,1191
0.2552833,1021
0.25695,1113
0.2586167,1181
0.2602833,1148
0.26195,1112
0.2636333,1031
0.2652833,1089
0.26695,1148
0.2686167,1093
0.2702833,930
0.27195,997
0.2736167,1246
0.2752833,1212
0.27695,927
0.2786167,1027
0.2803,916
0.28195,1143
0.2836167,1275
0.2852833,1186
0.28695,1073
0.2886167,1173
0.2902833,1124
0.29195,1086
0.2936167,1218
0.2952833,1063
0.29695,1069
0.2986333,1151
0.3002833,1095
0.30195,1039
0.3036167,1015
0.3053,1023
0.30695,1177
0.3086167,1179
0.3102833,1203
0.3119667,1181
0.3136167,1159
0.3153,1173
0.31695,1188
0.3186333,1231
0.3202833,1475
0.32195,1446
0.3236167,1237
0.3252833,1124
0.3269667,1430
0.3286167,1275
0.3302833,1413
0.33195,1313
0.3336333,1381
0.3353,1112
0.33695,1250
0.3386167,1302
0.3402833,1122
0.34195,1241
0.3436333,1179
0.3452833,1258
0.34695,1260
0.3486167,1262
0.3503,1212
0.3519667,1296
0.3536333,1336
0.3553,1280
0.3569667,1284
0.3586167,1219
0.3603,1440
0.36195,1383
0.3636333,1578
0.3653,2323
0.3669667,2880
0.3686333,3609
0.3703,3664
0.3719667,3764
0.3736333,2936
0.3752833,2825
0.3769667,3165
0.3786167,3049
0.3803,2850
0.38195,2969
0.3836333,2485
0.3853,2489
0.3869667,1937
0.3886333,1571
0.3903,1212
0.3919667,887
0.3936333,848
0.3953,804
0.3969667,584
0.3986333,362
0.4003,482
0.4019667,445
0.4036333,495
0.4053,525
0.4069667,511
0.4086333,500
0.4103,496
0.4119667,493
0.4136333,633
0.4153,611
0.4169667,639
0.4186333,740
0.4203,812
0.4219667,810
0.4236333,755
0.4253,656
0.4269667,663
0.4286333,938
0.4303,946
0.4319667,702
0.4336333,981
0.4353,997
0.4369667,1027
0.4386333,1081
0.4403,1084
0.4419667,954
0.4436333,995
0.4453,1140
0.4469667,1357
0.4486333,1247
0.4503,1255
0.4519667,1377
0.4536333,1222
0.4553,1300
0.4569667,1409
0.4586333,1511
0.4603,944
0.4619667,1225
0.4636333,1272
0.4653,1247
0.4669667,1297
0.4686333,1486
0.4703,1447
0.4719667,1408
0.4736333,1604
0.4753,1202
0.4769667,1386
0.4786333,1398
0.4803,1295
0.4819667,1314
0.4836333,1442
0.4853,1403
0.4869667,1077
0.4886333,1342
0.4903,1207
0.4919667,1171
0.4936333,1343
0.4953,892
0.4969667,1222
0.4986333,1186
0.5003,1223
0.5019667,951
0.5036333,1019
0.5053,1244
0.5069667,892
0.5086333,925
0.5103,1030
0.5119666,1057
0.5136333,1096
0.5153,1053
0.5169666,1010
0.5186333,942
0.5203,999
0.5219667,1009
0.5236334,983
0.5253,957
0.5269667,952
0.5286334,941
0.5303,929
0.5319667,1023
0.5336334,1130
0.5353,1087
0.5369667,910
0.5386333,945
0.5403,1163
0.5419667,1041
0.5436333,907
0.5453,1035
0.5469667,1061
0.5486333,1062
0.5503,903
0.5519667,888
0.5536333,1066
0.5553,894
0.5569667,912
0.5586333,930
0.5603,1007
0.5619667,1078
0.5636333,813
0.5653,948
0.5669667,944
0.5686333,939
0.5703,978
0.5719666,971
0.5736333,964
0.5753,948
0.5769666,932
0.5786333,905
0.5803,878
0.5819666,1083
0.5836333,1101
0.5853,1055
0.5869667,1039
0.5886334,984
0.5903,1145
0.5919667,1048
0.5936334,951
0.5953,932
0.5969667,956
0.5986333,931
0.6003,1021
0.6019667,1030
0.6036333,1040
0.6053,1021
0.6069667,1003
0.6086333,994
0.6103,1064
0.6119667,1080
0.6136333,1097
0.6153,1037
0.6169667,1009
0.6186333,1022
0.6203,841
0.6219667,1129
0.6236333,950
0.6253,872
0.6269667,999
0.6286333,1011
0.6303,1099
0.6319667,1082
0.6336333,1136
0.6353,782
0.6369666,1061
0.6386333,892
0.6403,971
0.6419666,1046
0.6436333,1010
0.6453,974
0.6469667,975
0.6486334,976
0.6503,993
0.6519667,937
0.6536334,1039
0.6553,740
0.6569667,988
0.6586334,893
0.6603,1118
0.6619667,1024
0.6636333,757
0.6653,897
0.6669667,1013
0.6686333,927
0.6703,832
0.6719667,907
0.6736333,996
0.6753,1032
0.6769667,1008
0.6786333,974
0.6803,930
0.6819667,1034
0.6836333,1016
0.6853,868
0.6869667,1059
0.6886333,1048
0.6903,1058
0.6919667,1076
0.6936333,1095
0.6953,1203
0.6969666,1128
0.6986333,1054
0.7003,1082
0.7019666,1109
0.7036333,1182
0.7053,961
0.7069666,1070
0.7086333,1293
0.7103,1158
0.7119667,1171
0.7136334,1178
0.7153,984
0.7169667,1056
0.7186334,1213
0.7203,1091
0.7219667,1160
0.7236333,1112
0.7253,1065
0.7269667,1237
0.7286333,1253
0.7303,1190
0.7319667,1130
0.7336333,1116
0.7353,1163
0.7369667,1120
0.7386333,1099
0.7403,1066
0.7419667,1141
0.7436333,1007
0.7453,1111
0.7469667,1041
0.7486333,884
0.7503,959
0.7519667,925
0.7536333,867
0.7553,840
0.7569667,814
0.7586333,724
0.7603,778
0.7619666,831
0.7636333,921
0.7653,889
0.7669666,875
0.7686333,869
0.7703,864
0.7719667,866
0.7736334,767
0.7753,920
0.7769667,913
0.7786334,907
0.7803,993
0.7819667,986
0.7836334,1064
0.7853,1207
0.7869667,1191
0.7886333,1099
0.7903,1150
0.7919667,1200
0.7936333,1461
0.7953,1456
0.7969667,1452
0.7986333,1518
0.8003,1583
0.8019667,1634
0.8036333,1653
0.8053,1358
0.8069667,1692
0.8086333,1696
0.8103,1649
0.8119667,1637
0.8136333,1343
0.8153,1647
0.8169667,1423
0.8186333,1398
0.8203,1699
0.8219666,1440
0.8236333,1324
0.8253,1536
0.8269666,1332
0.8286333,1513
0.8303,1553
0.8319666,1385
0.8336333,1264
0.8353,1394
0.8369667,1286
0.8386334,1431
0.8403,1243
0.8419667,1166
0.8436334,1235
0.8453,1191
0.8469667,1030
0.8486333,1010
0.8503,1101
0.8519667,1078
0.8536333,903
0.8553,957
0.8569667,1070
0.8586333,1028
0.8603,938
0.8619667,929
0.8636333,1038
0.8653,997
0.8669667,1006
0.8686333,962
0.8703,918
0.8719667,801
0.8736333,855
0.8753,910
0.8769667,910
0.8786333,911
0.8803,982
0.8819667,1054
0.8836333,1060
0.8853,1066
0.8869666,1327
0.8886333,1202
0.8903,1078
0.8919666,1351
0.8936333,1282
0.8953,1159
0.8969667,1333
0.8986334,1157
0.9003,1224
0.9019667,1341
0.9036334,1203
0.9053,1150
0.9069667,1236
0.9086334,1225
0.9103,1183
0.9119667,1211
0.9136333,1239
0.9153,1248
0.9169667,1146
0.9186333,1145
0.9203,1269
0.9219667,1255
0.9236333,1242
0.9253,1362
0.9269667,1360
0.9286333,1357
0.9303,1044
0.9319667,1149
0.9336333,1278
0.9353,1225
0.9369667,1330
0.9386333,1014
0.9403,1088
0.9419667,1260
0.9436333,1177
0.9453,1309
0.9469666,1224
0.9486333,1220
0.9503,1258
0.9519666,927
0.9536333,1178
0.9553,1140
0.9569666,1077
0.9586333,964
0.9603,1053
0.9619667,998
0.9636334,1064
0.9653,1045
0.9669667,1025
0.9686334,1104
0.9703,1236
0.9719667,1215
0.9736333,963
0.9753,1145
0.9769667,1073
0.9786333,1128
0.9803,1183
0.9819667,1171
0.9836333,1154
0.9853,1137
0.9869667,1225
0.9886333,1363
0.9903,1498
0.9919667,1589
0.9936333,1295
0.9953,1246
0.9969667,1317
0.9986333,1257
1.0003,1264
1.001967,1270
1.003633,1318
1.0053,1184
1.006967,1221
1.008633,1257
1.0103,1111
1.011967,1258
1.013633,1222
1.0153,1186
1.016967,1444
1.018633,1470
1.0203,1301
1.021967,1403
1.023633,1419
1.0253,1268
1.026967,1325
1.028633,1415
1.0303,1382
1.031967,1375
1.033633,1375
1.0353,1246
1.036967,1195
1.038633,1190
1.0403,1091
1.041967,1254
1.043633,1269
1.0453,1215
1.046967,1045
1.048633,1003
1.0503,1026
1.051967,1003
1.053633,979
1.0553,977
1.056967,975
1.058633,987
1.0603,1110
1.061967,1099
1.063633,997
1.0653,1094
1.066967,1093
1.068633,1130
1.0703,1027
1.071967,1198
1.073633,1180
1.0753,1249
1.076967,1042
1.078633,1110
1.0803,1054
1.081967,935
1.083633,1162
1.0853,1136
1.086967,926
1.088633,961
1.0903,1211
1.091967,1124
1.093633,1191
1.0953,1088
1.096967,1069
1.098633,1104
1.1003,1140
1.101967,1119
1.103633,1091
1.1053,1064
1.106967,1042
1.108633,1049
1.1103,1055
1.111967,808
1.113633,1096
1.1153,1005
1.116967,1015
1.118633,1109
1.1203,1015
1.121967,992
1.123633,929
1.1253,1011
1.126967,795
1.128633,946
1.1303,969
1.131967,984
1.133633,823
1.1353,833
1.136967,1199
1.138633,1149
1.1403,1080
1.141967,874
1.143633,775
1.1453,936
1.146967,753
1.148633,907
1.1503,944
1.151967,831
1.153633,931
1.1553,952
1.156967,880
1.158633,844
1.1603,852
1.161967,860
1.163633,846
1.1653,832
1.166967,821
1.168633,783
1.1703,829
1.171967,875
1.173633,883
1.1753,843
1.176967,884
1.178633,836
1.1803,862
1.181967,888
1.183633,878
1.1853,871
1.186967,864
1.188633,874
1.1903,788
1.191967,903
1.193633,963
1.1953,953
1.196967,858
1.198633,892
