"SampleName","A2Rd2_02-3"
"Target Mass 1",
"Column Name","IA-3 (3um, 4.6X100)"
"Channel","QDa 1: SIR Ch1"
0.00195,399
0.003616667,547
0.005283333,466
0.00695,640
0.008616666,548
0.01028333,550
0.01195,596
0.01361667,551
0.01528333,559
0.01695,539
0.01861667,531
0.02028333,543
0.02195,470
0.02361667,461
0.02528333,498
0.02695,457
0.02861667,416
0.03028333,524
0.03195,550
0.03361667,507
0.03528333,597
0.03695,594
0.03861667,363
0.04028333,516
0.04195,467
0.04361667,381
0.04528333,430
0.04695,530
0.04861667,524
0.05028334,533
0.05195,515
0.05361667,502
0.05528333,440
0.05695,518
0.05861667,427
0.06028333,472
0.06195,517
0.06361666,402
0.06528334,460
0.06695,461
0.06861667,439
0.07028333,457
0.07195,430
0.07361667,403
0.07528333,455
0.07695,507
0.07861666,554
0.08028334,485
0.08195,511
0.08361667,516
0.08528333,509
0.08695,521
0.08861667,510
0.09028333,499
0.09195,467
0.09361666,485
0.09528334,525
0.09695,533
0.09861667,495
0.1002833,478
0.10195,470
0.1036167,401
0.1052833,453
0.10695,424
0.1086167,395
0.1102833,461
0.11195,465
0.1136167,499
0.1152833,510
0.11695,521
0.1186167,533
0.1202833,521
0.12195,411
0.1236167,522
0.1252833,471
0.12695,508
0.1286167,401
0.1302833,448
0.13195,509
0.1336167,493
0.1352833,477
0.13695,379
0.1386167,350
0.1402833,320
0.14195,475
0.1436167,511
0.1452833,449
0.14695,427
0.1486167,405
0.1502833,363
0.15195,505
0.1536167,512
0.1552833,520
0.15695,483
0.1586167,521
0.1602833,468
0.16195,408
0.1636167,468
0.1652833,455
0.16695,441
0.1686167,449
0.1702833,456
0.17195,461
0.1736167,377
0.1752833,425
0.17695,441
0.1786167,507
0.1802833,478
0.18195,521
0.1836167,502
0.1852833,482
0.18695,446
0.1886167,370
0.1902833,398
0.19195,425
0.1936167,539
0.1952833,518
0.19695,504
0.1986167,546
0.2002833,505
0.20195,465
0.2036167,451
0.2052833,445
0.20695,439
0.2086167,509
0.2102833,499
0.21195,430
0.2136167,361
0.2152833,540
0.21695,407
0.2186167,552
0.2202833,455
0.22195,399
0.2236167,533
0.2252833,543
0.22695,547
0.2286167,516
0.2302833,515
0.2319667,561
0.2336167,452
0.2352833,527
0.23695,461
0.2386167,393
0.2402833,432
0.24195,539
0.2436167,495
0.2452833,492
0.24695,479
0.2486167,514
0.2502833,509
0.25195,503
0.2536167,487
0.2552833,490
0.25695,529
0.2586167,562
0.2602833,600
0.26195,435
0.2636167,459
0.2652833,549
0.26695,494
0.2686167,420
0.2702833,514
0.27195,535
0.2736167,495
0.2752833,371
0.27695,435
0.2786167,521
0.2803,420
0.28195,419
0.2836167,487
0.2853,463
0.28695,479
0.2886167,400
0.2902833,514
0.29195,637
0.2936167,699
0.2952833,644
0.29695,445
0.2986333,622
0.3002833,551
0.30195,574
0.3036167,538
0.3052833,555
0.30695,460
0.3086167,455
0.3102833,434
0.31195,460
0.3136167,480
0.3153,499
0.31695,474
0.3186167,449
0.3202833,465
0.32195,465
0.3236167,569
0.3252833,596
0.32695,482
0.3286167,500
0.3302833,599
0.33195,539
0.3336333,588
0.3353,672
0.33695,435
0.3386167,602
0.3402833,639
0.34195,463
0.3436167,429
0.3452833,484
0.34695,575
0.3486167,631
0.3503,594
0.3519667,629
0.3536167,596
0.3552833,563
0.35695,522
0.3586167,566
0.3603,610
0.36195,698
0.3636167,775
0.3652833,1001
0.36695,2042
0.3686333,2719
0.3703,4470
0.37195,4279
0.3736167,5615
0.3752833,5861
0.3769667,5834
0.3786167,6204
0.3802833,6259
0.3819667,6315
0.3836167,5507
0.3853,4638
0.3869667,4152
0.3886333,3415
0.3902833,2909
0.39195,2405
0.3936333,1675
0.3952833,1326
0.3969667,1433
0.3986333,1400
0.4003,1308
0.4019667,1482
0.4036333,1361
0.4052833,1028
0.4069667,1141
0.4086167,1310
0.4103,1202
0.4119667,1197
0.4136333,1412
0.4153,1580
0.4169667,1550
0.4186333,1676
0.4203,1870
0.4219667,1912
0.4236333,2107
0.4252833,1970
0.4269667,1770
0.4286333,1756
0.4303,1874
0.4319667,1940
0.4336333,2003
0.4353,2389
0.4369667,2824
0.4386333,4416
0.4403,6483
0.4419667,9076
0.4436333,13968
0.4453,21640
0.4469667,30492
0.4486333,46496
0.4503,61184
0.4519667,78496
0.4536333,100704
0.4553,121120
0.4569667,143424
0.4586333,160064
0.4603,179456
0.4619667,196352
0.4636333,215488
0.4653,226560
0.4669667,241408
0.4686333,256448
0.4703,273472
0.4719667,294336
0.4736333,311616
0.4753,323904
0.4769667,337152
0.4786333,341696
0.4803,328128
0.4819667,321920
0.4836333,299968
0.4853,274944
0.4869667,248320
0.4886333,219456
0.4903,183744
0.4919667,152192
0.4936333,129968
0.4953,102688
0.4969667,85184
0.4986333,65296
0.5003,51152
0.5019667,41632
0.5036333,33024
0.5053,27548
0.5069667,20580
0.5086333,16632
0.5103,12516
0.5119666,12424
0.5136333,10212
0.5153,8716
0.5169666,7172
0.5186333,7329
0.5203,6309
0.5219667,5756
0.5236334,5241
0.5253,5649
0.5269667,5120
0.5286334,4828
0.5303,4593
0.5319667,4021
0.5336334,3932
0.5353,3802
0.5369667,3998
0.5386333,3762
0.5403,3749
0.5419667,3726
0.5436333,3158
0.5453,3071
0.5469667,2965
0.5486333,2740
0.5503,3083
0.5519667,2614
0.5536333,2528
0.5553,2576
0.5569667,2187
0.5586333,2081
0.5603,2172
0.5619667,1970
0.5636333,2138
0.5653,2083
0.5669667,2073
0.5686333,1924
0.5703,1843
0.5719666,1750
0.5736333,1859
0.5753,1869
0.5769666,1687
0.5786333,1551
0.5803,1608
0.5819666,1589
0.5836333,1326
0.5853,1523
0.5869667,1393
0.5886334,1570
0.5903,1510
0.5919667,1403
0.5936334,1613
0.5953,1583
0.5969667,1517
0.5986333,1597
0.6003,1425
0.6019667,1635
0.6036333,1630
0.6053,1488
0.6069667,1346
0.6086333,1280
0.6103,1496
0.6119667,1380
0.6136333,1340
0.6153,1453
0.6169667,1487
0.6186333,1438
0.6203,1444
0.6219667,1449
0.6236333,1187
0.6253,1398
0.6269667,1516
0.6286333,1199
0.6303,1146
0.6319667,1350
0.6336333,1192
0.6353,1065
0.6369666,1115
0.6386333,1065
0.6403,1042
0.6419666,1002
0.6436333,962
0.6453,998
0.6469667,1033
0.6486334,942
0.6503,1061
0.6519667,934
0.6536334,875
0.6553,818
0.6569667,922
0.6586334,917
0.6603,872
0.6619667,967
0.6636333,1004
0.6653,971
0.6669667,979
0.6686333,839
0.6703,749
0.6719667,758
0.6736333,835
0.6753,838
0.6769667,842
0.6786333,1012
0.6803,998
0.6819667,1017
0.6836333,676
0.6853,911
0.6869667,1052
0.6886333,733
0.6903,878
0.6919667,891
0.6936333,699
0.6953,759
0.6969666,835
0.6986333,714
0.7003,752
0.7019666,789
0.7036333,813
0.7053,778
0.7069666,819
0.7086333,794
0.7103,704
0.7119667,705
0.7136334,705
0.7153,659
0.7169667,723
0.7186334,637
0.7203,789
0.7219667,826
0.7236333,635
0.7253,643
0.7269667,677
0.7286333,591
0.7303,700
0.7319667,707
0.7336333,715
0.7353,722
0.7369667,729
0.7386333,661
0.7403,700
0.7419667,739
0.7436333,716
0.7453,765
0.7469667,526
0.7486333,815
0.7503,826
0.7519667,693
0.7536333,655
0.7553,774
0.7569667,654
0.7586333,733
0.7603,811
0.7619666,797
0.7636333,670
0.7653,773
0.7669666,775
0.7686333,815
0.7703,831
0.7719667,812
0.7736334,677
0.7753,725
0.7769667,714
0.7786334,620
0.7803,639
0.7819667,657
0.7836334,611
0.7853,759
0.7869667,722
0.7886333,674
0.7903,634
0.7919667,635
0.7936333,639
0.7953,769
0.7969667,735
0.7986333,755
0.8003,681
0.8019667,700
0.8036333,590
0.8053,589
0.8069667,684
0.8086333,691
0.8103,643
0.8119667,514
0.8136333,569
0.8153,548
0.8169667,568
0.8186333,634
0.8203,730
0.8219666,716
0.8236333,551
0.8253,607
0.8269666,539
0.8286333,620
0.8303,655
0.8319666,747
0.8336333,714
0.8353,747
0.8369667,534
0.8386334,727
0.8403,786
0.8419667,596
0.8436334,507
0.8453,690
0.8469667,631
0.8486333,653
0.8503,573
0.8519667,667
0.8536333,728
0.8553,625
0.8569667,523
0.8586333,664
0.8603,615
0.8619667,673
0.8636333,691
0.8653,543
0.8669667,502
0.8686333,567
0.8703,544
0.8719667,600
0.8736333,406
0.8753,500
0.8769667,590
0.8786333,701
0.8803,767
0.8819667,863
0.8836333,1183
0.8853,1128
0.8869666,1481
0.8886333,1653
0.8903,1524
0.8919666,1711
0.8936333,1898
0.8953,2001
0.8969667,2353
0.8986334,2224
0.9003,2092
0.9019667,2428
0.9036334,2407
0.9053,2194
0.9069667,2185
0.9086334,1975
0.9103,2311
0.9119667,2348
0.9136333,2329
0.9153,2264
0.9169667,2199
0.9186333,2261
0.9203,2084
0.9219667,2299
0.9236333,2156
0.9253,2380
0.9269667,2468
0.9286333,2129
0.9303,2487
0.9319667,2300
0.9336333,2231
0.9353,2328
0.9369667,1854
0.9386333,2382
0.9403,1995
0.9419667,2206
0.9436333,1993
0.9453,1950
0.9469666,1973
0.9486333,1477
0.9503,1913
0.9519666,1564
0.9536333,1483
0.9553,1781
0.9569666,1471
0.9586333,1577
0.9603,1291
0.9619667,1442
0.9636334,1485
0.9653,1295
0.9669667,1366
0.9686334,1129
0.9703,890
0.9719667,1069
0.9736333,957
0.9753,984
0.9769667,858
0.9786333,959
0.9803,734
0.9819667,710
0.9836333,972
0.9853,543
0.9869667,608
0.9886333,603
0.9903,627
0.9919667,525
0.9936333,636
0.9953,456
0.9969667,567
0.9986333,450
1.0003,545
1.001967,590
1.003633,475
1.0053,467
1.006967,506
1.008633,411
1.0103,474
1.011967,536
1.013633,597
1.0153,623
1.016967,524
1.018633,589
1.0203,634
1.021967,568
1.023633,503
1.0253,439
1.026967,455
1.028633,503
1.0303,559
1.031967,607
1.033633,603
1.0353,587
1.036967,420
1.038633,404
1.0403,416
1.041967,475
1.043633,527
1.0453,579
1.046967,520
1.048633,522
1.0503,525
1.051967,500
1.053633,450
1.0553,498
1.056967,603
1.058633,632
1.0603,549
1.061967,422
1.063633,634
1.0653,569
1.066967,455
1.068633,422
1.0703,516
1.071967,494
1.073633,539
1.0753,553
1.076967,499
1.078633,413
1.0803,565
1.081967,697
1.083633,600
1.0853,708
1.086967,560
1.088633,527
1.0903,479
1.091967,557
1.093633,527
1.0953,497
1.096967,624
1.098633,723
1.1003,704
1.101967,603
1.103633,598
1.1053,522
1.106967,488
1.108633,498
1.1103,498
1.111967,498
1.113633,576
1.1153,594
1.116967,458
1.118633,511
1.1203,542
1.121967,604
1.123633,659
1.1253,704
1.126967,508
1.128633,545
1.1303,486
1.131967,493
1.133633,527
1.1353,560
1.136967,553
1.138633,561
1.1403,569
1.141967,425
1.143633,637
1.1453,495
1.146967,507
1.148633,522
1.1503,578
1.151967,633
1.153633,604
1.155317,613
1.156967,677
1.158633,521
1.1603,685
1.161967,576
1.163633,510
1.1653,586
1.166967,539
1.168633,617
1.1703,464
1.171967,699
1.17365,642
1.1753,541
1.176967,559
1.178633,576
1.1803,511
1.181967,622
1.183633,590
1.185317,617
1.186967,572
1.188633,415
1.190317,571
1.191967,639
1.193633,604
1.1953,472
1.196967,519
1.198633,547
