"SampleName","A2Rd2_02-15"
"Target Mass 1",
"Column Name","IA-3 (3um, 4.6X100)"
"Channel","QDa 1: SIR Ch1"
0.00195,424
0.003616667,594
0.005283333,670
0.00695,549
0.008616666,553
0.01028333,645
0.01195,533
0.01361667,605
0.01528333,559
0.01695,581
0.01861667,627
0.02028333,629
0.02195,630
0.02361667,610
0.02528333,590
0.02695,598
0.02861667,606
0.03028333,610
0.03195,761
0.03361667,740
0.03528333,552
0.03695,641
0.03861667,467
0.04028333,519
0.04195,583
0.04361667,575
0.04528333,618
0.04695,549
0.04861667,512
0.05028334,550
0.05195,509
0.05361667,454
0.05528333,520
0.05695,584
0.05861667,642
0.06028333,608
0.06195,623
0.06361666,522
0.06528334,557
0.06695,564
0.06861667,493
0.07028333,619
0.07195,587
0.07361667,555
0.07528333,561
0.07695,512
0.07861666,522
0.08028334,536
0.08195,528
0.08361667,486
0.08528333,444
0.08695,427
0.08861667,411
0.09028333,515
0.09195,607
0.09361666,603
0.09528334,427
0.09695,549
0.09861667,406
0.1002833,483
0.10195,561
0.1036167,443
0.1052833,537
0.10695,448
0.1086167,493
0.1102833,538
0.11195,485
0.1136167,432
0.1152833,510
0.11695,545
0.1186167,535
0.1202833,493
0.12195,451
0.1236167,542
0.1252833,579
0.12695,655
0.1286167,593
0.1302833,442
0.13195,574
0.1336167,634
0.1352833,681
0.13695,519
0.1386167,536
0.1402833,498
0.14195,491
0.1436167,359
0.1452833,529
0.14695,425
0.1486167,448
0.1502833,541
0.15195,556
0.1536167,466
0.1552833,491
0.15695,517
0.1586167,485
0.1602833,454
0.16195,564
0.1636167,503
0.1652833,443
0.16695,421
0.1686167,441
0.1702833,432
0.17195,423
0.1736167,457
0.1752833,590
0.17695,648
0.1786167,578
0.1802833,374
0.18195,690
0.1836167,426
0.1852833,510
0.18695,509
0.1886167,433
0.1902833,471
0.19195,521
0.1936167,535
0.1952833,512
0.19695,454
0.1986167,617
0.2002833,664
0.20195,437
0.2036167,536
0.2052833,414
0.20695,538
0.2086167,542
0.2102833,479
0.21195,440
0.2136167,484
0.2152833,478
0.21695,472
0.2186167,472
0.2202833,471
0.22195,459
0.2236167,446
0.2252833,567
0.22695,604
0.2286167,546
0.2302833,319
0.23195,481
0.2336167,514
0.2352833,496
0.23695,509
0.2386167,469
0.2402833,476
0.24195,512
0.2436167,527
0.2452833,444
0.24695,529
0.2486167,469
0.2502833,587
0.25195,556
0.2536167,621
0.2552833,539
0.25695,568
0.2586167,641
0.2602833,461
0.26195,386
0.2636333,659
0.2652833,453
0.26695,526
0.2686167,595
0.2703,460
0.27195,453
0.2736167,430
0.2752833,510
0.27695,448
0.2786167,385
0.2803,474
0.28195,500
0.2836167,539
0.2852833,492
0.28695,492
0.2886167,541
0.2902833,655
0.29195,675
0.2936167,452
0.2953,497
0.29695,529
0.2986333,539
0.3002833,548
0.30195,566
0.3036167,584
0.3052833,621
0.30695,479
0.3086167,516
0.3102833,592
0.31195,529
0.3136333,548
0.3153,566
0.3169667,575
0.3186167,565
0.3203,555
0.32195,569
0.3236167,583
0.3252833,598
0.32695,511
0.3286167,654
0.3302833,496
0.33195,515
0.3336333,511
0.3352833,575
0.33695,568
0.3386167,528
0.3402833,534
0.34195,558
0.3436167,471
0.3452833,582
0.3469667,524
0.3486167,516
0.3503,472
0.3519667,459
0.3536333,446
0.3552833,505
0.3569667,505
0.3586167,504
0.3603,682
0.3619667,751
0.3636333,972
0.3652833,1254
0.3669667,1901
0.3686333,3090
0.3703,3969
0.3719667,5166
0.3736333,4828
0.3753,6025
0.3769667,6085
0.3786333,6688
0.3803,7045
0.38195,6761
0.3836333,5826
0.3853,5163
0.3869667,3760
0.3886333,3701
0.3903,3023
0.3919667,2034
0.3936333,1819
0.3953,1534
0.3969667,1175
0.3986333,1131
0.4003,998
0.4019667,1110
0.4036333,1035
0.4053,1108
0.4069667,1088
0.4086333,1067
0.4103,1143
0.4119667,1218
0.4136333,1229
0.4153,1235
0.4169667,1181
0.4186333,1128
0.4203,1357
0.4219667,1560
0.4236333,1511
0.4253,1477
0.4269667,1483
0.4286333,1490
0.4303,1623
0.4319667,1683
0.4336333,1820
0.4353,2459
0.4369667,3116
0.4386333,5284
0.4403,7931
0.4419667,12992
0.4436333,18200
0.4453,26092
0.4469667,36720
0.4486333,48784
0.4503,62720
0.4519667,75344
0.4536333,90368
0.4553,105056
0.4569667,115968
0.4586333,123360
0.4603,128960
0.4619667,138624
0.4636333,145408
0.4653,149056
0.4669667,159616
0.4686333,170112
0.4703,177216
0.4719667,188928
0.4736333,198464
0.4753,209088
0.4769667,206208
0.4786333,201728
0.4803,191168
0.4819667,181696
0.4836333,164224
0.4853,144896
0.4869667,123600
0.4886333,106592
0.4903,87472
0.4919667,71408
0.4936333,57504
0.4953,45120
0.4969667,36688
0.4986333,28796
0.5003,23156
0.5019667,17872
0.5036333,14984
0.5053,11200
0.5069667,10016
0.5086333,7845
0.5103,6780
0.5119666,6399
0.5136333,5992
0.5153,5049
0.5169666,4465
0.5186333,4168
0.5203,3469
0.5219667,3583
0.5236334,3375
0.5253,3280
0.5269667,2893
0.5286334,3309
0.5303,2904
0.5319667,2968
0.5336334,2808
0.5353,2757
0.5369667,2829
0.5386333,2952
0.5403,2620
0.5419667,2295
0.5436333,2310
0.5453,2236
0.5469667,2077
0.5486333,2320
0.5503,2100
0.5519667,2047
0.5536333,1709
0.5553,1838
0.5569667,1904
0.5586333,1674
0.5603,1799
0.5619667,1365
0.5636333,1498
0.5653,1426
0.5669667,1461
0.5686333,1496
0.5703,1546
0.5719666,1383
0.5736333,1313
0.5753,1484
0.5769666,1174
0.5786333,1299
0.5803,1469
0.5819666,1305
0.5836333,1342
0.5853,1337
0.5869667,1368
0.5886334,1400
0.5903,1199
0.5919667,1303
0.5936334,1284
0.5953,1313
0.5969667,1348
0.5986333,1194
0.6003,1321
0.6019667,1410
0.6036333,1392
0.6053,1241
0.6069667,1163
0.6086333,1190
0.6103,1218
0.6119667,1290
0.6136333,1302
0.6153,1314
0.6169667,1087
0.6186333,1282
0.6203,1358
0.6219667,1216
0.6236333,1013
0.6253,1385
0.6269667,1063
0.6286333,1133
0.6303,1020
0.6319667,1204
0.6336333,953
0.6353,983
0.6369666,936
0.6386333,995
0.6403,1019
0.6419666,1044
0.6436333,996
0.6453,948
0.6469667,1004
0.6486334,1081
0.6503,809
0.6519667,904
0.6536334,781
0.6553,876
0.6569667,970
0.6586334,908
0.6603,847
0.6619667,832
0.6636333,884
0.6653,877
0.6669667,732
0.6686333,737
0.6703,782
0.6719667,792
0.6736333,802
0.6753,677
0.6769667,791
0.6786333,825
0.6803,702
0.6819667,760
0.6836333,850
0.6853,809
0.6869667,768
0.6886333,682
0.6903,713
0.6919667,649
0.6936333,793
0.6953,841
0.6969666,805
0.6986333,574
0.7003,596
0.7019666,695
0.7036333,667
0.7053,639
0.7069666,598
0.7086333,685
0.7103,678
0.7119667,664
0.7136334,579
0.7153,661
0.7169667,633
0.7186334,605
0.7203,576
0.7219667,548
0.7236333,614
0.7253,609
0.7269667,603
0.7286333,730
0.7303,788
0.7319667,746
0.7336333,699
0.7353,649
0.7369667,689
0.7386333,673
0.7403,721
0.7419667,727
0.7436333,734
0.7453,729
0.7469667,725
0.7486333,728
0.7503,764
0.7519667,567
0.7536333,774
0.7553,538
0.7569667,666
0.7586333,666
0.7603,632
0.7619666,598
0.7636333,566
0.7653,629
0.7669666,622
0.7686333,616
0.7703,692
0.7719667,649
0.7736334,606
0.7753,659
0.7769667,591
0.7786334,523
0.7803,777
0.7819667,719
0.7836334,631
0.7853,663
0.7869667,539
0.7886333,686
0.7903,658
0.7919667,747
0.7936333,553
0.7953,778
0.7969667,637
0.7986333,583
0.8003,579
0.8019667,588
0.8036333,562
0.8053,620
0.8069667,543
0.8086333,466
0.8103,658
0.8119667,652
0.8136333,591
0.8153,620
0.8169667,648
0.8186333,599
0.8203,562
0.8219666,642
0.8236333,558
0.8253,616
0.8269666,621
0.8286333,514
0.8303,565
0.8319666,617
0.8336333,481
0.8353,532
0.8369667,549
0.8386334,621
0.8403,608
0.8419667,658
0.8436334,498
0.8453,498
0.8469667,579
0.8486333,632
0.8503,582
0.8519667,587
0.8536333,592
0.8553,709
0.8569667,685
0.8586333,661
0.8603,566
0.8619667,695
0.8636333,438
0.8653,525
0.8669667,401
0.8686333,582
0.8703,581
0.8719667,580
0.8736333,665
0.8753,669
0.8769667,757
0.8786333,792
0.8803,834
0.8819667,1069
0.8836333,1384
0.8853,1301
0.8869666,1771
0.8886333,1579
0.8903,2106
0.8919666,1859
0.8936333,1891
0.8953,1778
0.8969667,1772
0.8986334,1997
0.9003,1954
0.9019667,2099
0.9036334,1907
0.9053,1903
0.9069667,1900
0.9086334,1939
0.9103,1929
0.9119667,1920
0.9136333,1861
0.9153,1802
0.9169667,1813
0.9186333,1825
0.9203,1752
0.9219667,1827
0.9236333,1893
0.9253,1959
0.9269667,1719
0.9286333,1814
0.9303,1917
0.9319667,1841
0.9336333,1856
0.9353,1871
0.9369667,1726
0.9386333,1706
0.9403,1832
0.9419667,1760
0.9436333,1688
0.9453,1529
0.9469666,1704
0.9486333,1743
0.9503,1655
0.9519666,1701
0.9536333,1435
0.9553,1487
0.9569666,1462
0.9586333,1328
0.9603,1306
0.9619667,1281
0.9636334,1162
0.9653,1025
0.9669667,869
0.9686334,1127
0.9703,923
0.9719667,892
0.9736333,888
0.9753,861
0.9769667,655
0.9786333,839
0.9803,627
0.9819667,700
0.9836333,604
0.9853,578
0.9869667,692
0.9886333,663
0.9903,692
0.9919667,694
0.9936333,697
0.9953,541
0.9969667,514
0.9986333,501
1.0003,527
1.001967,492
1.003633,458
1.0053,526
1.006967,537
1.008633,520
1.0103,518
1.011967,533
1.013633,549
1.0153,482
1.016967,442
1.018633,512
1.0203,447
1.021967,481
1.023633,483
1.0253,473
1.026967,570
1.028633,586
1.0303,629
1.031967,527
1.033633,647
1.0353,511
1.036967,697
1.038633,587
1.0403,552
1.041967,463
1.043633,501
1.0453,388
1.046967,412
1.048633,436
1.0503,460
1.051967,484
1.053633,547
1.0553,566
1.056967,435
1.058633,445
1.0603,480
1.061967,418
1.063633,416
1.0653,414
1.066967,524
1.068633,484
1.0703,443
1.071967,518
1.073633,528
1.0753,499
1.076967,485
1.078633,472
1.0803,524
1.081967,592
1.083633,387
1.0853,422
1.086967,493
1.088633,499
1.0903,505
1.091967,465
1.093633,426
1.0953,452
1.096967,491
1.098633,569
1.1003,552
1.101967,522
1.103633,481
1.1053,542
1.106967,554
1.108633,555
1.1103,573
1.111967,442
1.113633,400
1.1153,541
1.116967,495
1.118633,601
1.1203,502
1.121967,501
1.123633,565
1.1253,537
1.126967,570
1.128633,535
1.1303,499
1.131967,464
1.133633,533
1.1353,538
1.136967,536
1.138633,517
1.1403,498
1.141967,591
1.143633,555
1.1453,518
1.146967,561
1.148633,641
1.1503,622
1.151967,610
1.153633,554
1.1553,597
1.156967,507
1.158633,547
1.1603,553
1.161967,563
1.163633,594
1.1653,466
1.166967,608
1.168633,545
1.1703,617
1.171967,607
1.173633,458
1.1753,513
1.176967,501
1.178633,396
1.1803,516
1.181967,507
1.183633,499
1.1853,604
1.186967,657
1.188633,593
1.1903,473
1.191967,425
1.193633,592
1.1953,607
1.196967,384
1.198633,462
