"SampleName","A2Rd2_02-5"
"Target Mass 1",
"Column Name","IA-3 (3um, 4.6X100)"
"Channel","QDa 1: SIR Ch1"
0.00195,242
0.003616667,656
0.005283333,637
0.00695,635
0.008616666,472
0.01028333,649
0.01195,598
0.01361667,559
0.01528333,600
0.01695,575
0.01861667,587
0.02028333,500
0.02195,557
0.02361667,613
0.02528333,469
0.02695,513
0.02861667,647
0.03028333,517
0.03195,603
0.03361667,468
0.03528333,585
0.03695,590
0.03861667,489
0.04028333,675
0.04195,659
0.04361667,491
0.04528333,440
0.04695,552
0.04861667,624
0.05028334,716
0.05195,606
0.05361667,575
0.05528333,544
0.05695,421
0.05861667,640
0.06028333,542
0.06195,570
0.06361666,542
0.06528334,514
0.06695,448
0.06861667,466
0.07028333,511
0.07195,440
0.07361667,523
0.07528333,557
0.07695,592
0.07861666,527
0.08028334,496
0.08195,481
0.08361667,467
0.08528333,443
0.08695,536
0.08861667,540
0.09028333,539
0.09195,538
0.09361666,578
0.09528334,568
0.09695,558
0.09861667,508
0.1002833,562
0.10195,568
0.1036167,552
0.1052833,535
0.10695,573
0.1086167,569
0.1102833,564
0.11195,515
0.1136167,514
0.1152833,513
0.11695,543
0.1186167,524
0.1202833,505
0.12195,552
0.1236167,511
0.1252833,436
0.12695,492
0.1286167,496
0.1302833,450
0.13195,457
0.1336167,465
0.1352833,504
0.13695,578
0.1386167,578
0.1402833,563
0.14195,543
0.1436167,487
0.1452833,551
0.14695,534
0.1486167,621
0.1502833,616
0.15195,504
0.1536167,484
0.1552833,566
0.15695,491
0.1586167,511
0.1602833,488
0.16195,464
0.1636167,587
0.1652833,586
0.16695,404
0.1686167,452
0.1702833,500
0.17195,547
0.1736167,375
0.1752833,526
0.17695,524
0.1786167,522
0.1802833,370
0.18195,560
0.1836167,537
0.1852833,549
0.18695,580
0.1886167,611
0.1902833,401
0.19195,616
0.1936167,488
0.1952833,458
0.19695,624
0.1986167,604
0.2002833,619
0.20195,532
0.2036167,463
0.2052833,535
0.20695,501
0.2086167,467
0.2103,515
0.21195,515
0.2136167,516
0.2152833,400
0.21695,453
0.2186167,506
0.2202833,407
0.22195,559
0.2236167,586
0.2253,490
0.22695,632
0.2286333,457
0.2302833,479
0.2319667,592
0.2336167,399
0.2353,490
0.23695,571
0.2386167,563
0.2403,551
0.24195,539
0.2436167,546
0.2453,535
0.24695,523
0.2486333,486
0.2502833,508
0.25195,530
0.2536167,623
0.2552833,609
0.2569667,577
0.2586167,554
0.2602833,494
0.26195,608
0.2636333,555
0.2653,460
0.2669667,566
0.2686167,520
0.2702833,563
0.27195,542
0.2736333,533
0.2753,497
0.2769667,507
0.2786167,551
0.2803,560
0.2819667,570
0.2836333,482
0.2852833,518
0.2869667,553
0.2886333,345
0.2903,600
0.29195,507
0.2936333,663
0.2952833,523
0.2969667,549
0.2986333,573
0.3003,505
0.3019667,531
0.3036333,556
0.3053,606
0.3069667,576
0.3086333,537
0.3103,542
0.3119667,547
0.3136333,494
0.3153,441
0.3169667,558
0.3186333,512
0.3203,467
0.3219667,516
0.3236333,565
0.3253,514
0.3269667,464
0.3286333,513
0.3303,562
0.3319667,533
0.3336333,498
0.3353,463
0.3369667,490
0.3386333,537
0.3403,585
0.3419667,605
0.3436333,451
0.3453,553
0.3469667,483
0.3486333,481
0.3503,503
0.3519667,486
0.3536333,520
0.3553,498
0.3569667,477
0.3586333,549
0.3603,627
0.3619667,704
0.3636333,1206
0.3653,1442
0.3669667,2780
0.3686333,3901
0.3703,4530
0.3719667,5348
0.3736333,5857
0.3753,5895
0.3769667,5913
0.3786333,5931
0.3803,6193
0.3819667,5321
0.3836333,4598
0.3853,4732
0.3869667,3682
0.3886333,2775
0.3903,2494
0.3919667,1992
0.3936333,1490
0.3953,1271
0.3969667,1247
0.3986333,1187
0.4003,1134
0.4019667,1051
0.4036333,902
0.4053,845
0.4069667,914
0.4086333,899
0.4103,932
0.4119667,895
0.4136333,872
0.4153,873
0.4169667,873
0.4186333,909
0.4203,945
0.4219667,1025
0.4236333,937
0.4253,849
0.4269667,1030
0.4286333,1154
0.4303,1283
0.4319667,1566
0.4336333,1792
0.4353,2908
0.4369667,4433
0.4386333,7796
0.4403,12964
0.4419667,19084
0.4436333,28224
0.4453,39056
0.4469667,52352
0.4486333,68480
0.4503,86064
0.4519667,102480
0.4536333,119664
0.4553,136000
0.4569667,149376
0.4586333,163776
0.4603,176192
0.4619667,181824
0.4636333,195520
0.4653,202560
0.4669667,215680
0.4686333,229760
0.4703,246656
0.4719667,260992
0.4736333,270016
0.4753,278784
0.4769667,286720
0.4786333,281920
0.4803,264768
0.4819667,250752
0.4836333,228800
0.4853,203200
0.4869667,180608
0.4886333,156288
0.4903,131200
0.4919667,107120
0.4936333,89056
0.4953,71312
0.4969667,57648
0.4986333,45760
0.5003,35200
0.5019667,28716
0.5036333,22680
0.5053,17900
0.5069667,14416
0.5086333,12692
0.5103,10532
0.5119666,8788
0.5136333,7612
0.5153,7124
0.5169666,6493
0.5186333,5806
0.5203,5085
0.5219667,5251
0.5236334,4465
0.5253,4142
0.5269667,3786
0.5286334,3830
0.5303,4069
0.5319667,3362
0.5336334,3536
0.5353,3473
0.5369667,3064
0.5386333,2959
0.5403,2801
0.5419667,3081
0.5436333,2784
0.5453,2166
0.5469667,2423
0.5486333,2581
0.5503,2314
0.5519667,2482
0.5536333,2060
0.5553,2055
0.5569667,1887
0.5586333,2099
0.5603,1853
0.5619667,1869
0.5636333,1810
0.5653,1716
0.5669667,1589
0.5686333,1481
0.5703,1792
0.5719666,1540
0.5736333,1388
0.5753,1503
0.5769666,1503
0.5786333,1503
0.5803,1346
0.5819666,1451
0.5836333,1445
0.5853,1349
0.5869667,1147
0.5886334,1429
0.5903,1238
0.5919667,1216
0.5936334,1447
0.5953,1412
0.5969667,1264
0.5986333,1291
0.6003,1204
0.6019667,1270
0.6036333,1305
0.6053,1340
0.6069667,1216
0.6086333,1203
0.6103,1310
0.6119667,1238
0.6136333,1337
0.6153,1018
0.6169667,1242
0.6186333,1295
0.6203,1146
0.6219667,1123
0.6236333,966
0.6253,1097
0.6269667,1134
0.6286333,1083
0.6303,1044
0.6319667,877
0.6336333,915
0.6353,930
0.6369666,983
0.6386333,1016
0.6403,994
0.6419666,859
0.6436333,945
0.6453,1032
0.6469667,967
0.6486334,982
0.6503,954
0.6519667,879
0.6536334,941
0.6553,913
0.6569667,904
0.6586334,895
0.6603,936
0.6619667,866
0.6636333,841
0.6653,1016
0.6669667,934
0.6686333,851
0.6703,913
0.6719667,834
0.6736333,890
0.6753,879
0.6769667,868
0.6786333,792
0.6803,817
0.6819667,841
0.6836333,646
0.6853,942
0.6869667,1019
0.6886333,832
0.6903,693
0.6919667,728
0.6936333,729
0.6953,840
0.6969666,993
0.6986333,936
0.7003,862
0.7019666,756
0.7036333,869
0.7053,932
0.7069666,860
0.7086333,880
0.7103,633
0.7119667,882
0.7136334,871
0.7153,816
0.7169667,744
0.7186334,828
0.7203,700
0.7219667,724
0.7236333,691
0.7253,688
0.7269667,686
0.7286333,693
0.7303,700
0.7319667,698
0.7336333,697
0.7353,755
0.7369667,720
0.7386333,686
0.7403,684
0.7419667,681
0.7436333,687
0.7453,674
0.7469667,756
0.7486333,859
0.7503,819
0.7519667,795
0.7536333,902
0.7553,661
0.7569667,938
0.7586333,706
0.7603,822
0.7619666,797
0.7636333,789
0.7653,796
0.7669666,802
0.7686333,722
0.7703,742
0.7719667,797
0.7736334,729
0.7753,927
0.7769667,976
0.7786334,809
0.7803,831
0.7819667,796
0.7836334,743
0.7853,786
0.7869667,829
0.7886333,720
0.7903,738
0.7919667,828
0.7936333,577
0.7953,725
0.7969667,737
0.7986333,713
0.8003,689
0.8019667,714
0.8036333,739
0.8053,793
0.8069667,802
0.8086333,812
0.8103,810
0.8119667,808
0.8136333,806
0.8153,673
0.8169667,883
0.8186333,718
0.8203,884
0.8219666,861
0.8236333,859
0.8253,777
0.8269666,912
0.8286333,948
0.8303,860
0.8319666,670
0.8336333,742
0.8353,813
0.8369667,686
0.8386334,747
0.8403,693
0.8419667,807
0.8436334,868
0.8453,926
0.8469667,885
0.8486333,981
0.8503,803
0.8519667,935
0.8536333,772
0.8553,727
0.8569667,902
0.8586333,909
0.8603,805
0.8619667,978
0.8636333,882
0.8653,852
0.8669667,936
0.8686333,640
0.8703,740
0.8719667,717
0.8736333,568
0.8753,921
0.8769667,827
0.8786333,896
0.8803,1308
0.8819667,1909
0.8836333,1745
0.8853,2484
0.8869666,2334
0.8886333,3087
0.8903,2957
0.8919666,3450
0.8936333,3274
0.8953,3164
0.8969667,3347
0.8986334,3076
0.9003,3265
0.9019667,3454
0.9036334,3753
0.9053,3523
0.9069667,3511
0.9086334,3427
0.9103,3583
0.9119667,3546
0.9136333,3510
0.9153,3333
0.9169667,3239
0.9186333,3323
0.9203,3407
0.9219667,3365
0.9236333,3323
0.9253,3246
0.9269667,3530
0.9286333,3480
0.9303,3427
0.9319667,3132
0.9336333,2919
0.9353,3363
0.9369667,2965
0.9386333,3106
0.9403,2821
0.9419667,2923
0.9436333,3075
0.9453,2755
0.9469666,2929
0.9486333,2415
0.9503,2381
0.9519666,2505
0.9536333,2520
0.9553,2166
0.9569666,2313
0.9586333,1798
0.9603,1995
0.9619667,1716
0.9636334,1679
0.9653,1888
0.9669667,1582
0.9686334,1444
0.9703,1495
0.9719667,1224
0.9736333,1113
0.9753,1321
0.9769667,1081
0.9786333,866
0.9803,1012
0.9819667,1195
0.9836333,773
0.9853,1026
0.9869667,734
0.9886333,573
0.9903,927
0.9919667,611
0.9936333,653
0.9953,670
0.9969667,666
0.9986333,663
1.0003,625
1.001967,720
1.003633,706
1.0053,637
1.006967,640
1.008633,524
1.0103,523
1.011967,576
1.013633,687
1.0153,763
1.016967,672
1.018633,557
1.0203,701
1.021967,552
1.023633,638
1.0253,732
1.026967,693
1.028633,593
1.0303,752
1.031967,697
1.033633,523
1.0353,701
1.036967,732
1.038633,591
1.0403,596
1.041967,779
1.043633,746
1.0453,861
1.046967,702
1.048633,730
1.0503,578
1.051967,721
1.053633,666
1.0553,716
1.056967,586
1.058633,740
1.0603,621
1.061967,618
1.063633,722
1.0653,570
1.066967,598
1.068633,792
1.0703,717
1.071967,722
1.073633,709
1.0753,711
1.076967,687
1.078633,616
1.0803,854
1.081967,834
1.083633,523
1.0853,752
1.086967,841
1.088633,626
1.0903,771
1.091967,607
1.093633,724
1.0953,744
1.096967,696
1.098633,698
1.1003,663
1.101967,692
1.103633,671
1.1053,651
1.106967,743
1.108633,767
1.1103,790
1.111967,803
1.113633,619
1.1153,594
1.116967,720
1.118633,719
1.1203,718
1.121967,737
1.123633,751
1.1253,752
1.126967,607
1.128633,678
1.1303,756
1.131967,479
1.133633,609
1.1353,796
1.136967,768
1.138633,754
1.1403,707
1.141967,634
1.143633,581
1.1453,764
1.146967,710
1.148633,698
1.1503,729
1.151967,760
1.153633,770
1.1553,712
1.156967,575
1.158633,721
1.1603,790
1.161967,729
1.163633,668
1.1653,766
1.166967,755
1.168633,744
1.1703,656
1.171967,660
1.173633,664
1.1753,680
1.176967,696
1.178633,777
1.1803,854
1.181967,831
1.183633,831
1.1853,826
1.186967,823
1.188633,819
1.1903,784
1.191967,750
1.193633,964
1.1953,910
1.196967,995
1.198633,705
