"SampleName","A2Rd2_02-39"
"Target Mass 1",
"Column Name","IA-3 (3um, 4.6X100)"
"Channel","QDa 1: SIR Ch2"
0.00195,336
0.003616667,771
0.005283333,570
0.00695,655
0.008616666,895
0.01028333,780
0.01195,1113
0.01361667,1106
0.01528333,981
0.01695,1005
0.01861667,888
0.02028333,894
0.02195,889
0.02361667,877
0.02528333,865
0.02695,901
0.02861667,902
0.03028333,902
0.03195,913
0.03361667,925
0.03528333,916
0.03695,908
0.03861667,998
0.04028333,1040
0.04195,1081
0.04361667,936
0.04528333,834
0.04695,977
0.04861667,1001
0.05028334,967
0.05195,1011
0.05361667,988
0.05528333,929
0.05695,951
0.05861667,973
0.06028333,933
0.06195,945
0.06361666,967
0.06528334,843
0.06695,976
0.06861667,760
0.07028333,819
0.07195,849
0.07361667,880
0.07528333,1094
0.07695,1108
0.07861666,1058
0.08028334,929
0.08195,860
0.08361667,912
0.08528333,985
0.08695,1012
0.08861667,794
0.09028333,964
0.09195,806
0.09361666,991
0.09528334,1022
0.09695,981
0.09861667,986
0.1002833,991
0.10195,998
0.1036167,955
0.1052833,891
0.10695,991
0.1086167,864
0.1102833,738
0.11195,1025
0.1136167,1000
0.1152833,1015
0.11695,967
0.1186167,987
0.1202833,970
0.12195,1018
0.1236167,918
0.1252833,1041
0.12695,963
0.1286167,841
0.1302833,1093
0.13195,1048
0.1336167,874
0.1352833,1118
0.13695,807
0.1386167,929
0.1402833,870
0.14195,914
0.1436167,890
0.1452833,950
0.14695,965
0.1486167,976
0.1502833,836
0.15195,928
0.1536167,1021
0.1552833,950
0.15695,1056
0.1586167,886
0.1602833,871
0.16195,878
0.1636167,1010
0.1652833,1059
0.16695,1071
0.1686167,846
0.1702833,933
0.17195,807
0.1736167,892
0.1752833,961
0.17695,847
0.1786167,854
0.1802833,816
0.18195,801
0.1836167,787
0.1852833,758
0.18695,932
0.1886167,933
0.1902833,1017
0.19195,936
0.1936333,861
0.1952833,785
0.19695,843
0.1986167,877
0.2002833,858
0.2019667,933
0.2036167,899
0.2052833,866
0.20695,871
0.2086167,903
0.2103,966
0.21195,1028
0.2136167,1096
0.2152833,790
0.21695,809
0.2186167,1000
0.2202833,967
0.22195,1076
0.2236167,1080
0.2252833,1067
0.22695,1053
0.2286333,1215
0.2302833,1236
0.23195,1268
0.2336167,1410
0.2352833,1027
0.23695,1123
0.2386167,1323
0.2403,1169
0.24195,1202
0.2436167,1236
0.2453,1144
0.24695,1088
0.2486167,1179
0.2502833,1199
0.25195,1288
0.2536333,1209
0.2552833,1130
0.25695,1040
0.2586167,1270
0.2602833,1333
0.26195,1349
0.2636333,1260
0.2652833,1297
0.26695,1111
0.2686167,1158
0.2703,1258
0.27195,1048
0.2736167,1102
0.2752833,1169
0.27695,1118
0.2786167,1201
0.2803,1280
0.28195,911
0.2836167,1091
0.2852833,1051
0.2869667,913
0.2886167,1012
0.2903,1029
0.29195,1049
0.2936167,973
0.2952833,898
0.29695,1094
0.2986333,1081
0.3002833,1043
0.3019667,1006
0.3036167,1000
0.3053,1083
0.30695,1089
0.3086167,1199
0.3102833,1433
0.31195,1342
0.3136167,1194
0.3153,1370
0.31695,1257
0.3186333,1305
0.3202833,1406
0.3219667,1317
0.3236167,1415
0.3252833,1050
0.3269667,1279
0.3286167,1288
0.3303,1393
0.33195,1261
0.3336333,1129
0.3353,1233
0.3369667,1331
0.3386333,1397
0.3403,1421
0.3419667,1238
0.3436333,1524
0.3453,1484
0.3469667,1394
0.3486333,1319
0.3503,1424
0.3519667,1224
0.3536333,1265
0.3553,1307
0.3569667,1458
0.3586333,1486
0.3603,1443
0.3619667,1509
0.3636333,1575
0.3653,2381
0.3669667,3430
0.3686333,3724
0.3703,3690
0.3719667,3568
0.3736333,3602
0.3753,3666
0.3769667,3729
0.3786333,3807
0.3803,3528
0.3819667,3031
0.3836333,3115
0.3853,2257
0.3869667,2147
0.3886333,1433
0.3903,1351
0.3919667,943
0.3936333,796
0.3953,716
0.3969667,600
0.3986333,407
0.4003,588
0.4019667,557
0.4036333,525
0.4053,581
0.4069667,520
0.4086333,487
0.4103,634
0.4119667,609
0.4136333,532
0.4153,688
0.4169667,502
0.4186333,791
0.4203,772
0.4219667,716
0.4236333,834
0.4253,634
0.4269667,736
0.4286333,881
0.4303,798
0.4319667,702
0.4336333,729
0.4353,756
0.4369667,960
0.4386333,984
0.4403,801
0.4419667,808
0.4436333,1077
0.4453,1221
0.4469667,1110
0.4486333,1115
0.4503,1125
0.4519667,1135
0.4536333,1495
0.4553,1466
0.4569667,1410
0.4586333,1441
0.4603,1316
0.4619667,1192
0.4636333,1438
0.4653,1713
0.4669667,1667
0.4686333,1699
0.4703,1606
0.4719667,1588
0.4736333,1570
0.4753,1571
0.4769667,1500
0.4786333,1498
0.4803,1721
0.4819667,1860
0.4836333,1688
0.4853,1695
0.4869667,1470
0.4886333,1565
0.4903,1468
0.4919667,1322
0.4936333,1333
0.4953,1118
0.4969667,1285
0.4986333,1229
0.5003,1193
0.5019667,1049
0.5036333,1322
0.5053,1026
0.5069667,894
0.5086333,905
0.5103,1151
0.5119666,1060
0.5136333,1053
0.5153,882
0.5169666,923
0.5186333,904
0.5203,1064
0.5219667,1092
0.5236334,1069
0.5253,1063
0.5269667,1005
0.5286334,891
0.5303,982
0.5319667,1035
0.5336334,940
0.5353,904
0.5369667,779
0.5386333,1063
0.5403,1012
0.5419667,1097
0.5436333,972
0.5453,908
0.5469667,908
0.5486333,776
0.5503,864
0.5519667,970
0.5536333,889
0.5553,807
0.5569667,850
0.5586333,920
0.5603,923
0.5619667,927
0.5636333,820
0.5653,923
0.5669667,1143
0.5686333,1079
0.5703,810
0.5719666,1009
0.5736333,768
0.5753,814
0.5769666,825
0.5786333,819
0.5803,842
0.5819666,851
0.5836333,751
0.5853,964
0.5869667,953
0.5886334,790
0.5903,766
0.5919667,881
0.5936334,936
0.5953,991
0.5969667,919
0.5986333,1016
0.6003,735
0.6019667,885
0.6036333,856
0.6053,878
0.6069667,848
0.6086333,838
0.6103,829
0.6119667,786
0.6136333,721
0.6153,904
0.6169667,987
0.6186333,917
0.6203,872
0.6219667,822
0.6236333,843
0.6253,874
0.6269667,856
0.6286333,892
0.6303,927
0.6319667,774
0.6336333,823
0.6353,827
0.6369666,831
0.6386333,805
0.6403,797
0.6419666,789
0.6436333,926
0.6453,899
0.6469667,896
0.6486334,894
0.6503,923
0.6519667,966
0.6536334,768
0.6553,925
0.6569667,749
0.6586334,790
0.6603,630
0.6619667,748
0.6636333,866
0.6653,1046
0.6669667,978
0.6686333,882
0.6703,768
0.6719667,992
0.6736333,789
0.6753,926
0.6769667,1013
0.6786333,1004
0.6803,784
0.6819667,909
0.6836333,838
0.6853,766
0.6869667,945
0.6886333,963
0.6903,953
0.6919667,943
0.6936333,876
0.6953,708
0.6969666,742
0.6986333,766
0.7003,797
0.7019666,775
0.7036333,754
0.7053,806
0.7069666,859
0.7086333,856
0.7103,852
0.7119667,853
0.7136334,849
0.7153,844
0.7169667,782
0.7186334,706
0.7203,863
0.7219667,925
0.7236333,861
0.7253,897
0.7269667,940
0.7286333,763
0.7303,884
0.7319667,877
0.7336333,825
0.7353,890
0.7369667,829
0.7386333,839
0.7403,849
0.7419667,847
0.7436333,845
0.7453,832
0.7469667,820
0.7486333,807
0.7503,795
0.7519667,867
0.7536333,939
0.7553,967
0.7569667,770
0.7586333,934
0.7603,830
0.7619666,938
0.7636333,655
0.7653,951
0.7669666,879
0.7686333,657
0.7703,809
0.7719667,774
0.7736334,927
0.7753,898
0.7769667,870
0.7786334,884
0.7803,771
0.7819667,965
0.7836334,896
0.7853,827
0.7869667,899
0.7886333,799
0.7903,778
0.7919667,792
0.7936333,806
0.7953,824
0.7969667,898
0.7986333,896
0.8003,788
0.8019667,841
0.8036333,931
0.8053,925
0.8069667,919
0.8086333,877
0.8103,913
0.8119667,948
0.8136333,775
0.8153,872
0.8169667,860
0.8186333,842
0.8203,825
0.8219666,887
0.8236333,784
0.8253,1046
0.8269666,1046
0.8286333,725
0.8303,914
0.8319666,1037
0.8336333,758
0.8353,934
0.8369667,669
0.8386334,1018
0.8403,887
0.8419667,810
0.8436334,784
0.8453,802
0.8469667,871
0.8486333,797
0.8503,722
0.8519667,923
0.8536333,1111
0.8553,994
0.8569667,763
0.8586333,923
0.8603,955
0.8619667,977
0.8636333,908
0.8653,839
0.8669667,911
0.8686333,911
0.8703,856
0.8719667,849
0.8736333,887
0.8753,851
0.8769667,816
0.8786333,827
0.8803,983
0.8819667,1198
0.8836333,1325
0.8853,1080
0.8869666,1451
0.8886333,1520
0.8903,1225
0.8919666,1305
0.8936333,1342
0.8953,1258
0.8969667,1233
0.8986334,1209
0.9003,1097
0.9019667,1288
0.9036334,1446
0.9053,1390
0.9069667,1281
0.9086334,1301
0.9103,1261
0.9119667,1371
0.9136333,1342
0.9153,1236
0.9169667,1364
0.9186333,1355
0.9203,1196
0.9219667,1361
0.9236333,1437
0.9253,1268
0.9269667,1432
0.9286333,1259
0.9303,1231
0.9319667,1304
0.9336333,1333
0.9353,1220
0.9369667,1210
0.9386333,1201
0.9403,1218
0.9419667,1235
0.9436333,1313
0.9453,1048
0.9469666,1099
0.9486333,1358
0.9503,1135
0.9519666,1245
0.9536333,1215
0.9553,1322
0.9569666,1001
0.9586333,1239
0.9603,1152
0.9619667,1155
0.9636334,974
0.9653,869
0.9669667,1012
0.9686334,1008
0.9703,997
0.9719667,1010
0.9736333,948
0.9753,965
0.9769667,963
0.9786333,1023
0.9803,856
0.9819667,672
0.9836333,908
0.9853,860
0.9869667,813
0.9886333,805
0.9903,889
0.9919667,855
0.9936333,865
0.9953,703
0.9969667,716
0.9986333,728
1.0003,727
1.001967,726
1.003633,715
1.0053,775
1.006967,841
1.008633,886
1.0103,907
1.011967,725
1.013633,742
1.0153,746
1.016967,732
1.018633,1029
1.0203,1002
1.021967,888
1.023633,762
1.0253,829
1.026967,706
1.028633,884
1.0303,866
1.031967,889
1.033633,872
1.0353,845
1.036967,856
1.038633,826
1.0403,795
1.041967,888
1.043633,864
1.0453,840
1.046967,882
1.048633,881
1.0503,880
1.051967,962
1.053633,967
1.0553,1000
1.056967,1032
1.058633,721
1.0603,852
1.061967,800
1.063633,760
1.0653,840
1.066967,831
1.068633,878
1.0703,727
1.071967,836
1.073633,941
1.0753,949
1.076967,999
1.078633,843
1.0803,951
1.081967,782
1.083633,839
1.0853,820
1.086967,825
1.088633,830
1.0903,845
1.091967,859
1.093633,870
1.0953,852
1.096967,773
1.098633,827
1.1003,764
1.101967,806
1.103633,848
1.1053,854
1.106967,860
1.108633,751
1.1103,856
1.111967,912
1.113633,832
1.1153,752
1.116967,954
1.118633,793
1.1203,810
1.121967,814
1.123633,819
1.1253,684
1.126967,735
1.128633,786
1.1303,950
1.131967,1079
1.133633,936
1.1353,713
1.136967,876
1.138633,814
1.1403,984
1.141967,902
1.143633,819
1.1453,961
1.146967,744
1.148633,763
1.1503,861
1.151967,805
1.153633,1010
1.1553,1036
1.156967,755
1.158633,800
1.1603,787
1.161967,752
1.163633,887
1.1653,870
1.166967,664
1.168633,952
1.1703,906
1.171967,805
1.173633,857
1.1753,972
1.176967,904
1.178633,647
1.1803,571
1.181967,847
1.183633,924
1.1853,886
1.186967,870
1.188633,997
1.1903,680
1.191967,749
1.193633,886
1.1953,796
1.196967,760
1.198633,905
