"SampleName","A2Rd2_02-90"
"Target Mass 1",
"Column Name","IA-3 (3um, 4.6X100)"
"Channel","QDa 1: SIR Ch1"
0.00195,469
0.003616667,356
0.005283333,766
0.00695,528
0.008616666,591
0.01028333,638
0.01195,532
0.01361667,547
0.01528333,562
0.01695,534
0.01861667,724
0.02028333,703
0.02195,673
0.02361667,626
0.02528333,605
0.02695,575
0.02861667,603
0.03028333,605
0.03195,606
0.03361667,357
0.03528333,537
0.03695,624
0.03861667,554
0.04028333,487
0.04195,484
0.04361667,582
0.04528333,622
0.04695,534
0.04861667,610
0.05028334,596
0.05195,581
0.05361667,524
0.05528333,579
0.05695,458
0.05861667,514
0.06028333,586
0.06195,422
0.06361666,648
0.06528334,551
0.06695,639
0.06861667,577
0.07028333,563
0.07195,548
0.07361667,736
0.07528333,703
0.07695,548
0.07861666,560
0.08028334,659
0.08195,662
0.08361667,557
0.08528333,728
0.08695,723
0.08863334,647
0.09028333,541
0.09195,608
0.09361666,565
0.09528334,559
0.09696667,564
0.09861667,591
0.1002833,619
0.1019667,575
0.1036167,530
0.1053,409
0.10695,600
0.1086167,538
0.1102833,686
0.1119667,528
0.1136333,414
0.1152833,589
0.11695,594
0.1186333,652
0.1202833,657
0.1219667,662
0.1236333,576
0.1252833,520
0.1269667,483
0.1286333,500
0.1303,517
0.13195,534
0.1336167,554
0.1353,531
0.13695,508
0.1386333,524
0.1403,541
0.1419667,510
0.1436333,464
0.1453,501
0.1469667,539
0.1486333,519
0.1503,499
0.1519667,550
0.1536333,539
0.1553,528
0.1569667,422
0.1586333,485
0.1603,514
0.1619667,558
0.1636333,435
0.1653,582
0.1669667,537
0.1686333,521
0.1703,576
0.1719667,478
0.1736333,585
0.1753,472
0.1769667,480
0.1786333,488
0.1803,415
0.1819667,466
0.1836333,496
0.1853,526
0.1869667,548
0.1886333,525
0.1903,501
0.1919667,486
0.1936333,517
0.1953,455
0.1969667,506
0.1986333,480
0.2003,618
0.2019667,640
0.2036333,661
0.2053,623
0.2069667,570
0.2086333,401
0.2103,519
0.2119667,596
0.2136333,608
0.2153,656
0.2169667,473
0.2186333,488
0.2203,582
0.2219667,554
0.2236333,525
0.2253,556
0.2269667,526
0.2286333,487
0.2303,531
0.2319667,482
0.2336333,494
0.2353,530
0.2369667,607
0.2386333,579
0.2403,603
0.2419667,612
0.2436333,590
0.2453,569
0.2469667,548
0.2486333,529
0.2503,520
0.2519667,511
0.2536333,464
0.2553,510
0.2569667,538
0.2586333,543
0.2603,502
0.2619667,461
0.2636333,508
0.2653,470
0.2669667,432
0.2686333,485
0.2703,565
0.2719667,705
0.2736333,621
0.2753,635
0.2769667,627
0.2786333,483
0.2803,556
0.2819667,544
0.2836333,488
0.2853,660
0.2869667,619
0.2886333,634
0.2903,621
0.2919667,458
0.2936333,457
0.2953,524
0.2969667,600
0.2986333,571
0.3003,594
0.3019667,616
0.3036333,607
0.3053,598
0.3069667,489
0.3086333,718
0.3103,672
0.3119667,713
0.3136333,564
0.3153,603
0.3169667,471
0.3186333,460
0.3203,694
0.3219667,656
0.3236333,503
0.3253,722
0.3269667,635
0.3286333,496
0.3303,621
0.3319667,555
0.3336333,561
0.3353,531
0.3369667,613
0.3386333,622
0.3403,508
0.3419667,499
0.3436333,540
0.3453,574
0.3469667,537
0.3486333,501
0.3503,596
0.3519667,608
0.3536333,621
0.3553,618
0.3569667,484
0.3586333,643
0.3603,689
0.3619667,921
0.3636333,882
0.3653,1207
0.3669667,1912
0.3686333,2498
0.3703,2791
0.3719667,3131
0.3736333,2902
0.3753,2782
0.3769667,3601
0.3786333,3473
0.3803,3334
0.3819667,3520
0.3836333,3705
0.3853,3762
0.3869667,3819
0.3886333,3185
0.3903,2890
0.3919667,2214
0.3936333,2002
0.3953,1593
0.3969667,1639
0.3986333,1287
0.4003,1107
0.4019667,1203
0.4036333,1276
0.4053,1120
0.4069667,1177
0.4086333,1094
0.4103,1217
0.4119667,1153
0.4136333,1089
0.4153,1089
0.4169667,1161
0.4186333,1233
0.4203,1255
0.4219667,1410
0.4236333,1360
0.4253,1343
0.4269667,1326
0.4286333,1414
0.4303,1530
0.4319667,1799
0.4336333,2388
0.4353,3275
0.4369667,5493
0.4386333,9348
0.4403,14804
0.4419667,24588
0.4436333,38928
0.4453,56144
0.4469667,77104
0.4486333,97392
0.4503,121776
0.4519667,148544
0.4536333,170112
0.4553,191296
0.4569667,210048
0.4586333,225088
0.4603,235904
0.4619667,244992
0.4636333,243776
0.4653,241920
0.4669667,243008
0.4686333,243456
0.4703,243904
0.4719667,252544
0.4736333,255040
0.4753,262464
0.4769667,269760
0.4786333,273472
0.4803,276352
0.4819667,275456
0.4836333,262272
0.4853,253440
0.4869667,241280
0.4886333,219456
0.4903,200448
0.4919667,175936
0.4936333,157056
0.4953,137280
0.4969667,116864
0.4986333,98400
0.5003,81152
0.5019667,67920
0.5036333,55680
0.5053,45632
0.5069667,38656
0.5086333,31396
0.5103,26948
0.5119666,21824
0.5136333,17608
0.5153,15080
0.5169666,13300
0.5186333,11264
0.5203,9708
0.5219667,8328
0.5236334,7957
0.5253,6782
0.5269667,6369
0.5286334,5567
0.5303,5144
0.5319667,5468
0.5336334,4314
0.5353,4448
0.5369667,3784
0.5386333,3933
0.5403,3652
0.5419667,3527
0.5436333,3209
0.5453,3178
0.5469667,2993
0.5486333,3322
0.5503,2762
0.5519667,2588
0.5536333,2761
0.5553,2354
0.5569667,2742
0.5586333,2231
0.5603,2732
0.5619667,2458
0.5636333,2300
0.5653,2227
0.5669667,2140
0.5686333,1937
0.5703,1893
0.5719666,1824
0.5736333,1907
0.5753,1746
0.5769666,1837
0.5786333,1605
0.5803,1726
0.5819666,1795
0.5836333,1765
0.5853,1938
0.5869667,1887
0.5886334,1718
0.5903,1724
0.5919667,1673
0.5936334,1622
0.5953,1630
0.5969667,1842
0.5986333,1882
0.6003,1670
0.6019667,1767
0.6036333,1582
0.6053,1543
0.6069667,1467
0.6086333,1639
0.6103,1406
0.6119667,1524
0.6136333,1611
0.6153,1561
0.6169667,1458
0.6186333,1414
0.6203,1376
0.6219667,1507
0.6236333,1511
0.6253,1515
0.6269667,1543
0.6286333,1440
0.6303,1623
0.6319667,1311
0.6336333,1249
0.6353,1258
0.6369666,1392
0.6386333,1311
0.6403,1230
0.6419666,1165
0.6436333,1067
0.6453,1178
0.6469667,986
0.6486334,1015
0.6503,941
0.6519667,978
0.6536334,1014
0.6553,1144
0.6569667,1120
0.6586334,1187
0.6603,1005
0.6619667,1052
0.6636333,1044
0.6653,1097
0.6669667,1174
0.6686333,909
0.6703,936
0.6719667,1074
0.6736333,1122
0.6753,1159
0.6769667,1096
0.6786333,985
0.6803,936
0.6819667,1106
0.6836333,1042
0.6853,979
0.6869667,1052
0.6886333,918
0.6903,1167
0.6919667,1085
0.6936333,937
0.6953,1123
0.6969666,828
0.6986333,890
0.7003,804
0.7019666,1017
0.7036333,1044
0.7053,905
0.7069666,941
0.7086333,986
0.7103,951
0.7119667,755
0.7136334,992
0.7153,924
0.7169667,908
0.7186334,1003
0.7203,965
0.7219667,963
0.7236333,912
0.7253,904
0.7269667,960
0.7286333,883
0.7303,872
0.7319667,865
0.7336333,868
0.7353,870
0.7369667,911
0.7386333,952
0.7403,800
0.7419667,1003
0.7436333,911
0.7453,1012
0.7469667,982
0.7486333,952
0.7503,863
0.7519667,894
0.7536333,866
0.7553,718
0.7569667,985
0.7586333,947
0.7603,793
0.7619666,922
0.7636333,962
0.7653,893
0.7669666,885
0.7686333,878
0.7703,832
0.7719667,1008
0.7736334,1037
0.7753,1031
0.7769667,992
0.7786334,910
0.7803,838
0.7819667,846
0.7836334,867
0.7853,864
0.7869667,860
0.7886333,825
0.7903,876
0.7919667,882
0.7936333,888
0.7953,917
0.7969667,947
0.7986333,1061
0.8003,1082
0.8019667,669
0.8036333,989
0.8053,1080
0.8069667,990
0.8086333,876
0.8103,962
0.8119667,1030
0.8136333,833
0.8153,898
0.8169667,1018
0.8186333,990
0.8203,962
0.8219666,990
0.8236333,1018
0.8253,840
0.8269666,904
0.8286333,870
0.8303,981
0.8319666,937
0.8336333,892
0.8353,1152
0.8369667,1108
0.8386334,935
0.8403,897
0.8419667,1083
0.8436334,795
0.8453,1218
0.8469667,1026
0.8486333,912
0.8503,991
0.8519667,903
0.8536333,1025
0.8553,989
0.8569667,953
0.8586333,974
0.8603,931
0.8619667,872
0.8636333,928
0.8653,909
0.8669667,890
0.8686333,833
0.8703,928
0.8719667,874
0.8736333,699
0.8753,1095
0.8769667,1234
0.8786333,1553
0.8803,1927
0.8819667,2400
0.8836333,2789
0.8853,3283
0.8869666,3653
0.8886333,3782
0.8903,3765
0.8919666,3748
0.8936333,3749
0.8953,3749
0.8969667,3870
0.8986334,3991
0.9003,4172
0.9019667,4096
0.9036334,3803
0.9053,4085
0.9069667,4003
0.9086334,3920
0.9103,4272
0.9119667,4166
0.9136333,4150
0.9153,4133
0.9169667,3919
0.9186333,4056
0.9203,4118
0.9219667,4075
0.9236333,3703
0.9253,4356
0.9269667,3940
0.9286333,3858
0.9303,4040
0.9319667,3869
0.9336333,3684
0.9353,3717
0.9369667,3386
0.9386333,3339
0.9403,3291
0.9419667,3207
0.9436333,3007
0.9453,3073
0.9469666,2875
0.9486333,2985
0.9503,2869
0.9519666,3077
0.9536333,2999
0.9553,2801
0.9569666,2032
0.9586333,2518
0.9603,2228
0.9619667,1915
0.9636334,1974
0.9653,1599
0.9669667,2016
0.9686334,1542
0.9703,1524
0.9719667,1373
0.9736333,1440
0.9753,1108
0.9769667,1383
0.9786333,1084
0.9803,1146
0.9819667,1139
0.9836333,977
0.9853,900
0.9869667,941
0.9886333,786
0.9903,963
0.9919667,931
0.9936333,853
0.9953,792
0.9969667,825
0.9986333,642
1.0003,856
1.001967,684
1.003633,772
1.0053,768
1.006967,684
1.008633,604
1.0103,617
1.011967,672
1.013633,657
1.0153,687
1.016967,617
1.018633,754
1.0203,781
1.021967,772
1.023633,844
1.0253,658
1.026967,858
1.028633,719
1.0303,707
1.031967,734
1.033633,732
1.0353,721
1.036967,787
1.038633,580
1.0403,732
1.041967,554
1.043633,623
1.0453,613
1.046967,771
1.048633,850
1.0503,812
1.051967,735
1.053633,785
1.0553,536
1.056967,697
1.058633,755
1.0603,697
1.061967,730
1.063633,794
1.0653,775
1.066967,756
1.068633,697
1.0703,668
1.071967,532
1.073633,659
1.0753,697
1.076967,601
1.078633,722
1.0803,535
1.081967,737
1.083633,793
1.0853,717
1.086967,673
1.088633,715
1.0903,788
1.091967,767
1.093633,718
1.0953,668
1.096967,764
1.098633,605
1.1003,688
1.101967,747
1.103633,737
1.1053,701
1.106967,746
1.108633,658
1.1103,769
1.111967,742
1.113633,605
1.1153,815
1.116967,850
1.118633,803
1.1203,719
1.121967,820
1.123633,801
1.1253,611
1.126967,870
1.128633,713
1.1303,702
1.131967,764
1.133633,589
1.1353,673
1.136967,738
1.138633,791
1.1403,950
1.141967,1009
1.143633,814
1.1453,793
1.146967,816
1.148633,779
1.1503,742
1.151967,885
1.153633,871
1.1553,884
1.156967,800
1.158633,716
1.1603,698
1.161967,853
1.163633,887
1.1653,718
1.166967,795
1.168633,821
1.1703,786
1.171967,903
1.173633,878
1.1753,804
1.176967,852
1.178633,901
1.1803,881
1.181967,861
1.183633,1063
1.1853,1108
1.186967,909
1.188633,994
1.1903,975
1.191967,903
1.193633,867
1.1953,944
1.196967,948
1.198633,848
