"SampleName","A2Rd2_02-54"
"Target Mass 1",
"Column Name","IA-3 (3um, 4.6X100)"
"Channel","QDa 1: SIR Ch2"
0.00195,645
0.003616667,673
0.005283333,666
0.00695,605
0.008616666,691
0.01028333,777
0.01195,978
0.01361667,1054
0.01528333,907
0.01695,845
0.01861667,1010
0.02028333,935
0.02195,932
0.02361667,935
0.02528333,872
0.02695,809
0.02861667,815
0.03028333,851
0.03195,887
0.03361667,907
0.03528333,927
0.03695,742
0.03861667,1004
0.04028333,1004
0.04195,1056
0.04361667,1084
0.04528333,964
0.04695,1028
0.04861667,1104
0.05028334,1037
0.05195,970
0.05361667,1003
0.05528333,1037
0.05695,979
0.05861667,1020
0.06028333,1061
0.06195,838
0.06361666,1130
0.06528334,791
0.06695,983
0.06861667,1061
0.07028333,995
0.07195,870
0.07361667,1062
0.07528333,1025
0.07695,843
0.07861666,1010
0.08028334,987
0.08195,993
0.08361667,999
0.08528333,1018
0.08695,946
0.08861667,913
0.09028333,1003
0.09195,988
0.09361666,1035
0.09528334,915
0.09695,1028
0.09861667,912
0.1002833,988
0.10195,846
0.1036167,823
0.1052833,890
0.10695,890
0.1086167,890
0.1102833,941
0.11195,913
0.1136167,884
0.1152833,928
0.11695,894
0.1186167,861
0.1202833,766
0.12195,828
0.1236167,907
0.1252833,859
0.12695,812
0.1286167,976
0.1302833,927
0.13195,992
0.1336167,978
0.1352833,957
0.13695,859
0.1386167,708
0.1402833,804
0.14195,893
0.1436167,909
0.1452833,806
0.14695,963
0.1486167,833
0.1502833,849
0.15195,865
0.1536167,883
0.1552833,866
0.15695,849
0.1586167,807
0.1602833,849
0.16195,796
0.1636167,742
0.1652833,1005
0.16695,937
0.1686167,875
0.1702833,990
0.17195,930
0.1736167,909
0.1752833,1047
0.17695,1029
0.1786167,1012
0.1802833,717
0.18195,939
0.1836167,954
0.1852833,905
0.18695,900
0.1886167,907
0.1902833,927
0.19195,836
0.1936167,900
0.1952833,861
0.19695,913
0.1986167,780
0.2002833,942
0.20195,1044
0.2036167,1076
0.2052833,850
0.20695,1021
0.2086167,805
0.2102833,925
0.21195,1037
0.2136167,1166
0.2152833,1057
0.21695,878
0.2186167,1055
0.2202833,996
0.22195,989
0.2236167,1014
0.2252833,948
0.22695,881
0.2286167,1026
0.2302833,1069
0.23195,1112
0.2336167,1296
0.2352833,1265
0.23695,1261
0.2386167,1257
0.2402833,1105
0.24195,1196
0.2436167,1255
0.2452833,1245
0.24695,1223
0.2486167,1137
0.2502833,1256
0.25195,1147
0.2536167,1101
0.2552833,1074
0.25695,1195
0.2586333,1315
0.2602833,1270
0.26195,1064
0.2636333,1156
0.2652833,1039
0.2669667,1075
0.2686167,1101
0.2703,1127
0.27195,1107
0.2736167,1223
0.2752833,839
0.27695,1010
0.2786167,984
0.2803,964
0.28195,1030
0.2836167,893
0.2852833,972
0.28695,928
0.2886167,885
0.2902833,952
0.29195,1010
0.2936167,998
0.2952833,976
0.29695,955
0.2986333,1019
0.3002833,981
0.30195,944
0.3036333,921
0.3052833,899
0.30695,829
0.3086333,1035
0.3102833,1220
0.31195,1214
0.3136167,1229
0.3153,1326
0.31695,1297
0.3186167,1269
0.3203,1204
0.3219667,1321
0.3236167,1410
0.3252833,1378
0.32695,1150
0.3286167,1180
0.3302833,1407
0.33195,1135
0.3336333,1346
0.3352833,1309
0.3369667,1461
0.3386333,1502
0.3403,1465
0.34195,1354
0.3436167,1302
0.3452833,1486
0.34695,1273
0.3486167,1378
0.3503,1299
0.35195,1311
0.3536167,1324
0.3553,1306
0.3569667,1424
0.3586333,1437
0.3602833,1291
0.3619667,1472
0.3636167,1608
0.3652833,2197
0.36695,3016
0.3686333,3137
0.3703,3289
0.3719667,3311
0.3736333,2880
0.3753,2819
0.37695,2654
0.3786167,2732
0.3803,2852
0.3819667,2799
0.3836333,2669
0.3853,2150
0.3869667,1631
0.3886333,1235
0.3903,995
0.3919667,777
0.3936333,581
0.3953,683
0.3969667,593
0.3986333,541
0.4003,546
0.4019667,470
0.4036333,325
0.4053,401
0.4069667,522
0.4086333,477
0.4103,522
0.4119667,567
0.4136333,599
0.4153,572
0.4169667,643
0.4186333,714
0.4203,732
0.4219667,678
0.4236333,796
0.4253,864
0.4269667,763
0.4286333,663
0.4303,776
0.4319667,868
0.4336333,908
0.4353,763
0.4369667,982
0.4386333,976
0.4403,1068
0.4419667,957
0.4436333,976
0.4453,1070
0.4469667,1071
0.4486333,1220
0.4503,1254
0.4519667,1251
0.4536333,1367
0.4553,1422
0.4569667,1175
0.4586333,1373
0.4603,1378
0.4619667,1324
0.4636333,1426
0.4653,1459
0.4669667,1441
0.4686333,1568
0.4703,1281
0.4719667,1465
0.4736333,1699
0.4753,1619
0.4769667,1377
0.4786333,1193
0.4803,1233
0.4819667,1371
0.4836333,1315
0.4853,1259
0.4869667,1210
0.4886333,1152
0.4903,1269
0.4919667,1198
0.4936333,1189
0.4953,967
0.4969667,1116
0.4986333,891
0.5003,1016
0.5019667,1184
0.5036333,983
0.5053,939
0.5069667,1093
0.5086333,899
0.5103,993
0.5119666,962
0.5136333,954
0.5153,1143
0.5169666,1154
0.5186333,1085
0.5203,965
0.5219667,1176
0.5236334,1029
0.5253,1174
0.5269667,831
0.5286334,941
0.5303,1027
0.5319667,967
0.5336334,908
0.5353,919
0.5369667,1003
0.5386333,966
0.5403,930
0.5419667,894
0.5436333,1068
0.5453,1053
0.5469667,1038
0.5486333,1022
0.5503,904
0.5519667,903
0.5536333,859
0.5553,1007
0.5569667,1060
0.5586333,1157
0.5603,1032
0.5619667,835
0.5636333,1075
0.5653,996
0.5669667,962
0.5686333,932
0.5703,902
0.5719666,892
0.5736333,899
0.5753,906
0.5769666,1058
0.5786333,1018
0.5803,1090
0.5819666,1043
0.5836333,1112
0.5853,735
0.5869667,950
0.5886334,841
0.5903,901
0.5919667,822
0.5936334,886
0.5953,874
0.5969667,933
0.5986333,944
0.6003,956
0.6019667,981
0.6036333,1006
0.6053,1054
0.6069667,892
0.6086333,1074
0.6103,977
0.6119667,981
0.6136333,844
0.6153,992
0.6169667,1046
0.6186333,1032
0.6203,943
0.6219667,1167
0.6236333,1142
0.6253,1123
0.6269667,1065
0.6286333,1141
0.6303,1063
0.6319667,1174
0.6336333,986
0.6353,1084
0.6369666,1041
0.6386333,997
0.6403,1112
0.6419666,1001
0.6436333,1051
0.6453,933
0.6469667,820
0.6486334,1086
0.6503,892
0.6519667,988
0.6536334,1102
0.6553,998
0.6569667,1025
0.6586334,1052
0.6603,1015
0.6619667,1034
0.6636333,889
0.6653,956
0.6669667,1075
0.6686333,1006
0.6703,1239
0.6719667,1408
0.6736333,1389
0.6753,1840
0.6769667,2047
0.6786333,2540
0.6803,3246
0.6819667,3631
0.6836333,4636
0.6853,5126
0.6869667,6170
0.6886333,6970
0.6903,8548
0.6919667,8988
0.6936333,9788
0.6953,10632
0.6969666,11104
0.6986333,11436
0.7003,10704
0.7019666,10968
0.7036333,10668
0.7053,10692
0.7069666,10720
0.7086333,10596
0.7103,10572
0.7119667,10716
0.7136334,10304
0.7153,9928
0.7169667,9616
0.7186334,10292
0.7203,9420
0.7219667,9252
0.7236333,9388
0.7253,8664
0.7269667,8692
0.7286333,7715
0.7303,7362
0.7319667,6306
0.7336333,5126
0.7353,4872
0.7369667,4917
0.7386333,4491
0.7403,4171
0.7419667,3521
0.7436333,3197
0.7453,2820
0.7469667,2326
0.7486333,2578
0.7503,2226
0.7519667,2142
0.7536333,1573
0.7553,1599
0.7569667,1485
0.7586333,1501
0.7603,1517
0.7619666,1422
0.7636333,1318
0.7653,1457
0.7669666,1429
0.7686333,1362
0.7703,1294
0.7719667,1508
0.7736334,1697
0.7753,1964
0.7769667,2346
0.7786334,2786
0.7803,3347
0.7819667,3977
0.7836334,4706
0.7853,5880
0.7869667,7007
0.7886333,8107
0.7903,10380
0.7919667,11824
0.7936333,13804
0.7953,15320
0.7969667,16536
0.7986333,18228
0.8003,18176
0.8019667,19844
0.8036333,20860
0.8053,19600
0.8069667,20108
0.8086333,19656
0.8103,18908
0.8119667,18272
0.8136333,17916
0.8153,16592
0.8169667,17724
0.8186333,16652
0.8203,16576
0.8219666,17232
0.8236333,16960
0.8253,16748
0.8269666,16868
0.8286333,16056
0.8303,16236
0.8319666,14524
0.8336333,15168
0.8353,14620
0.8369667,13236
0.8386334,11136
0.8403,10652
0.8419667,9648
0.8436334,9464
0.8453,7229
0.8469667,7218
0.8486333,6369
0.8503,5794
0.8519667,5439
0.8536333,4667
0.8553,4020
0.8569667,3847
0.8586333,3282
0.8603,2881
0.8619667,2715
0.8636333,2783
0.8653,2430
0.8669667,2117
0.8686333,2135
0.8703,2040
0.8719667,1971
0.8736333,1597
0.8753,2018
0.8769667,1766
0.8786333,1992
0.8803,2066
0.8819667,2126
0.8836333,2136
0.8853,2192
0.8869666,2151
0.8886333,2110
0.8903,2054
0.8919666,1997
0.8936333,2041
0.8953,2027
0.8969667,2056
0.8986334,2055
0.9003,2054
0.9019667,1907
0.9036334,1682
0.9053,1735
0.9069667,1926
0.9086334,1751
0.9103,1668
0.9119667,1691
0.9136333,1623
0.9153,1664
0.9169667,1552
0.9186333,1523
0.9203,1493
0.9219667,1502
0.9236333,1510
0.9253,1585
0.9269667,1661
0.9286333,1655
0.9303,1514
0.9319667,1712
0.9336333,1592
0.9353,1489
0.9369667,1431
0.9386333,1664
0.9403,1768
0.9419667,1657
0.9436333,1625
0.9453,1666
0.9469666,1560
0.9486333,1716
0.9503,1867
0.9519666,2080
0.9536333,2032
0.9553,2122
0.9569666,2475
0.9586333,2554
0.9603,3390
0.9619667,3660
0.9636334,4177
0.9653,5150
0.9669667,6164
0.9686334,6913
0.9703,8208
0.9719667,9124
0.9736333,9604
0.9753,11592
0.9769667,12680
0.9786333,14720
0.9803,14596
0.9819667,15888
0.9836333,16648
0.9853,16724
0.9869667,17748
0.9886333,18516
0.9903,18884
0.9919667,18964
0.9936333,18508
0.9953,18920
0.9969667,19000
0.9986333,18276
1.0003,18412
1.001967,17820
1.003633,17984
1.0053,16796
1.006967,16436
1.008633,18392
1.0103,17356
1.011967,16984
1.013633,16700
1.0153,17184
1.016967,16416
1.018633,17504
1.0203,17132
1.021967,17004
1.023633,17732
1.0253,16320
1.026967,14888
1.028633,15176
1.0303,14876
1.031967,13988
1.033633,13432
1.0353,11800
1.036967,11424
1.038633,11044
1.0403,10088
1.041967,9180
1.043633,8804
1.0453,8147
1.046967,7936
1.048633,7546
1.0503,6938
1.051967,6672
1.053633,6835
1.0553,6812
1.056967,6497
1.058633,7036
1.0603,7158
1.061967,7314
1.063633,7960
1.0653,7986
1.066967,8436
1.068633,7776
1.0703,8077
1.071967,8992
1.073633,9280
1.0753,8804
1.076967,8572
1.078633,8612
1.0803,8852
1.081967,9088
1.083633,9608
1.0853,9484
1.086967,9336
1.088633,9048
1.0903,9392
1.091967,9588
1.093633,8848
1.0953,8772
1.096967,8141
1.098633,8816
1.1003,8492
1.101967,8760
1.103633,7961
1.1053,8196
1.106967,8328
1.108633,7917
1.1103,8164
1.111967,8220
1.113633,7789
1.1153,7530
1.116967,7202
1.118633,7152
1.1203,7135
1.121967,6751
1.123633,6492
1.1253,6215
1.126967,5427
1.128633,5700
1.1303,5387
1.131967,5413
1.133633,4707
1.1353,4343
1.136967,4241
1.138633,4324
1.1403,3663
1.141967,3780
1.143633,3501
1.1453,3367
1.146967,2968
1.148633,2969
1.1503,2608
1.151967,2824
1.153633,2452
1.1553,2580
1.156967,2357
1.158633,2309
1.1603,2018
1.161967,2127
1.163633,1785
1.1653,1557
1.166967,1804
1.168633,1864
1.1703,1506
1.171967,1715
1.173633,1728
1.1753,1654
1.176967,1496
1.178633,1534
1.1803,1276
1.181967,1449
1.183633,1516
1.1853,1346
1.186967,1460
1.188633,1493
1.1903,1550
1.191967,1429
1.193633,1654
1.1953,1670
1.196967,1686
1.198633,1745
