"SampleName","A2Rd2_02-16"
"Target Mass 1",
"Column Name","IA-3 (3um, 4.6X100)"
"Channel","QDa 1: SIR Ch2"
0.00195,437
0.003616667,930
0.005283333,835
0.00695,856
0.008616666,841
0.01028333,960
0.01195,1045
0.01361667,990
0.01528333,997
0.01695,990
0.01861667,868
0.02028333,951
0.02195,1034
0.02361667,1022
0.02528333,924
0.02695,1025
0.02861667,960
0.03028333,894
0.03195,1034
0.03361667,1115
0.03528333,1144
0.03695,883
0.03861667,1155
0.04028333,1249
0.04195,1179
0.04361667,911
0.04528333,907
0.04695,1113
0.04861667,1140
0.05028334,1146
0.05195,1108
0.05361667,890
0.05528333,959
0.05695,1036
0.05861667,1044
0.06028333,1003
0.06195,962
0.06361666,1064
0.06528334,1074
0.06695,757
0.06861667,1086
0.07028333,851
0.07195,946
0.07361667,878
0.07528333,838
0.07695,783
0.07861666,871
0.08028334,813
0.08195,972
0.08361667,972
0.08528333,923
0.08695,995
0.08861667,996
0.09028333,997
0.09195,1091
0.09361666,878
0.09528334,796
0.09695,949
0.09861667,888
0.1002833,881
0.10195,942
0.1036167,866
0.1052833,899
0.10695,954
0.1086167,964
0.1102833,1012
0.11195,1055
0.1136167,853
0.1152833,1046
0.11695,1002
0.1186167,1003
0.1202833,966
0.12195,1030
0.1236167,966
0.1252833,902
0.12695,952
0.1286167,964
0.1302833,976
0.13195,936
0.1336167,895
0.1352833,802
0.13695,855
0.1386167,880
0.1402833,906
0.14195,812
0.1436167,904
0.1452833,1005
0.14695,940
0.1486167,874
0.1502833,930
0.15195,928
0.1536167,838
0.1552833,857
0.15695,880
0.1586167,848
0.1602833,873
0.16195,836
0.1636167,971
0.1652833,867
0.16695,763
0.1686167,857
0.1702833,858
0.17195,859
0.1736167,959
0.1752833,907
0.17695,854
0.1786167,910
0.1802833,877
0.18195,844
0.1836167,807
0.1852833,881
0.18695,869
0.1886167,858
0.1902833,872
0.19195,916
0.1936167,943
0.1952833,970
0.19695,851
0.1986167,904
0.2002833,957
0.20195,797
0.2036167,968
0.2052833,937
0.20695,906
0.2086167,975
0.2102833,1062
0.21195,1133
0.2136167,1104
0.2152833,1075
0.21695,1133
0.2186167,1191
0.2202833,1335
0.22195,1293
0.2236167,1259
0.2252833,1331
0.22695,1464
0.2286167,1488
0.2302833,1563
0.23195,1095
0.2336167,1588
0.2352833,1313
0.23695,1390
0.2386167,1386
0.2402833,1189
0.24195,1393
0.2436167,1352
0.2453,1314
0.24695,1425
0.2486167,1303
0.2502833,1669
0.25195,1565
0.2536167,1421
0.2552833,1394
0.25695,1502
0.2586167,1304
0.2602833,1374
0.26195,1403
0.2636333,1384
0.2652833,1367
0.26695,1428
0.2686167,1423
0.2702833,1259
0.27195,1484
0.2736333,1447
0.2752833,1261
0.27695,1375
0.2786167,1094
0.2803,1370
0.28195,1076
0.2836167,1322
0.2852833,1171
0.28695,1197
0.2886167,1218
0.2902833,1082
0.29195,1205
0.2936167,1124
0.2952833,1279
0.29695,1237
0.2986333,1195
0.3002833,1200
0.30195,1129
0.3036167,1059
0.3052833,1293
0.30695,1348
0.3086167,1317
0.3102833,1285
0.31195,1198
0.3136333,1544
0.3153,1525
0.31695,1269
0.3186167,1436
0.3202833,1516
0.32195,1261
0.3236167,1318
0.3252833,1175
0.32695,1260
0.3286167,1346
0.3302833,1362
0.33195,1305
0.3336333,1235
0.3352833,1372
0.33695,1386
0.3386167,1403
0.3402833,1369
0.34195,1335
0.3436167,1353
0.3453,1370
0.34695,1409
0.3486167,1289
0.3503,1444
0.35195,1392
0.3536333,1498
0.3552833,1252
0.3569667,1381
0.3586167,1509
0.3603,1323
0.3619667,1307
0.3636333,1454
0.3652833,1817
0.36695,3313
0.3686333,3598
0.3703,3836
0.3719667,3550
0.3736167,3801
0.3752833,3395
0.3769667,3803
0.3786333,3432
0.3802833,3568
0.38195,3103
0.3836333,2988
0.3853,2528
0.3869667,1816
0.3886333,1673
0.3903,1240
0.3919667,1017
0.3936333,670
0.3953,658
0.3969667,554
0.3986333,512
0.4003,434
0.4019667,367
0.4036333,401
0.4053,532
0.4069667,517
0.4086333,580
0.4103,505
0.4119667,565
0.4136333,702
0.4153,727
0.4169667,701
0.4186333,757
0.4203,644
0.4219667,592
0.4236333,750
0.4253,716
0.4269667,750
0.4286333,804
0.4303,792
0.4319667,805
0.4336333,818
0.4353,775
0.4369667,867
0.4386333,879
0.4403,880
0.4419667,1066
0.4436333,1098
0.4453,1130
0.4469667,1162
0.4486333,1116
0.4503,1135
0.4519667,1153
0.4536333,1085
0.4553,1106
0.4569667,1140
0.4586333,1153
0.4603,1165
0.4619667,1019
0.4636333,1204
0.4653,1242
0.4669667,1279
0.4686333,1383
0.4703,1369
0.4719667,1354
0.4736333,1263
0.4753,1358
0.4769667,1334
0.4786333,1287
0.4803,1240
0.4819667,1143
0.4836333,1344
0.4853,1417
0.4869667,1435
0.4886333,1119
0.4903,1031
0.4919667,1515
0.4936333,1123
0.4953,1111
0.4969667,940
0.4986333,971
0.5003,1002
0.5019667,969
0.5036333,937
0.5053,937
0.5069667,936
0.5086333,842
0.5103,796
0.5119666,827
0.5136333,859
0.5153,845
0.5169666,831
0.5186333,821
0.5203,846
0.5219667,870
0.5236334,932
0.5253,994
0.5269667,980
0.5286334,1062
0.5303,855
0.5319667,1024
0.5336334,863
0.5353,1031
0.5369667,1013
0.5386333,1042
0.5403,950
0.5419667,858
0.5436333,926
0.5453,919
0.5469667,966
0.5486333,864
0.5503,744
0.5519667,897
0.5536333,921
0.5553,945
0.5569667,1048
0.5586333,1025
0.5603,1021
0.5619667,924
0.5636333,1036
0.5653,824
0.5669667,967
0.5686333,984
0.5703,1003
0.5719666,1026
0.5736333,1050
0.5753,829
0.5769666,1107
0.5786333,1051
0.5803,962
0.5819666,1095
0.5836333,1121
0.5853,1068
0.5869667,814
0.5886334,1123
0.5903,1051
0.5919667,995
0.5936334,966
0.5953,927
0.5969667,818
0.5986333,810
0.6003,868
0.6019667,858
0.6036333,848
0.6053,1050
0.6069667,1021
0.6086333,1120
0.6103,1050
0.6119667,980
0.6136333,1005
0.6153,989
0.6169667,1005
0.6186333,1022
0.6203,1101
0.6219667,875
0.6236333,1116
0.6253,1083
0.6269667,1016
0.6286333,949
0.6303,1144
0.6319667,1126
0.6336333,1207
0.6353,1223
0.6369666,1285
0.6386333,1261
0.6403,1238
0.6419666,972
0.6436333,991
0.6453,1003
0.6469667,1028
0.6486334,1053
0.6503,989
0.6519667,924
0.6536334,1009
0.6553,979
0.6569667,1130
0.6586334,1078
0.6603,1020
0.6619667,1191
0.6636333,950
0.6653,1205
0.6669667,1059
0.6686333,970
0.6703,1131
0.6719667,1292
0.6736333,1449
0.6753,1481
0.6769667,2275
0.6786333,3055
0.6803,3626
0.6819667,4348
0.6836333,5198
0.6853,6702
0.6869667,8300
0.6886333,10512
0.6903,12464
0.6919667,15116
0.6936333,15904
0.6953,19380
0.6969666,20276
0.6986333,21124
0.7003,23408
0.7019666,24832
0.7036333,23596
0.7053,25184
0.7069666,25940
0.7086333,25648
0.7103,26048
0.7119667,25972
0.7136334,25028
0.7153,26380
0.7169667,25144
0.7186334,25604
0.7203,24928
0.7219667,23308
0.7236333,22244
0.7253,20520
0.7269667,18904
0.7286333,18412
0.7303,15760
0.7319667,14332
0.7336333,13132
0.7353,10640
0.7369667,8640
0.7386333,8416
0.7403,7138
0.7419667,6299
0.7436333,5210
0.7453,4932
0.7469667,4146
0.7486333,3582
0.7503,3635
0.7519667,3179
0.7536333,3156
0.7553,2335
0.7569667,2143
0.7586333,2226
0.7603,2405
0.7619666,1825
0.7636333,1824
0.7653,1525
0.7669666,1646
0.7686333,1623
0.7703,1727
0.7719667,1664
0.7736334,1788
0.7753,1913
0.7769667,2240
0.7786334,2387
0.7803,3080
0.7819667,3421
0.7836334,4345
0.7853,5354
0.7869667,6120
0.7886333,8268
0.7903,9796
0.7919667,10360
0.7936333,13684
0.7953,15784
0.7969667,17860
0.7986333,19532
0.8003,21112
0.8019667,22652
0.8036333,23440
0.8053,23776
0.8069667,25256
0.8086333,25684
0.8103,25952
0.8119667,26288
0.8136333,26288
0.8153,26132
0.8169667,25980
0.8186333,27372
0.8203,26216
0.8219666,25060
0.8236333,26660
0.8253,26364
0.8269666,25500
0.8286333,25112
0.8303,24796
0.8319666,21356
0.8336333,20764
0.8353,19840
0.8369667,17712
0.8386334,15980
0.8403,15136
0.8419667,12680
0.8436334,11912
0.8453,9676
0.8469667,9080
0.8486333,8077
0.8503,6832
0.8519667,6180
0.8536333,6229
0.8553,4530
0.8569667,4605
0.8586333,3930
0.8603,3504
0.8619667,3342
0.8636333,3149
0.8653,2530
0.8669667,2441
0.8686333,2495
0.8703,2032
0.8719667,2113
0.8736333,1869
0.8753,1688
0.8769667,1889
0.8786333,1817
0.8803,2071
0.8819667,2223
0.8836333,2498
0.8853,2489
0.8869666,2534
0.8886333,2179
0.8903,2531
0.8919666,2238
0.8936333,2350
0.8953,2280
0.8969667,2112
0.8986334,2278
0.9003,2201
0.9019667,2046
0.9036334,2070
0.9053,1876
0.9069667,1818
0.9086334,1976
0.9103,1652
0.9119667,2100
0.9136333,1899
0.9153,1576
0.9169667,1944
0.9186333,1935
0.9203,1956
0.9219667,1851
0.9236333,1890
0.9253,1771
0.9269667,1758
0.9286333,1706
0.9303,1671
0.9319667,1598
0.9336333,1806
0.9353,1799
0.9369667,1792
0.9386333,1528
0.9403,1904
0.9419667,1820
0.9436333,1984
0.9453,1716
0.9469666,1895
0.9486333,1939
0.9503,2051
0.9519666,2144
0.9536333,2671
0.9553,2614
0.9569666,3281
0.9586333,3864
0.9603,4790
0.9619667,5484
0.9636334,6612
0.9653,7910
0.9669667,9624
0.9686334,11904
0.9703,13676
0.9719667,16164
0.9736333,19232
0.9753,21324
0.9769667,24780
0.9786333,27564
0.9803,30448
0.9819667,34416
0.9836333,38960
0.9853,38880
0.9869667,40608
0.9886333,42784
0.9903,45824
0.9919667,47632
0.9936333,48656
0.9953,50176
0.9969667,49232
0.9986333,51152
1.0003,52208
1.001967,53152
1.003633,53680
1.0053,53072
1.006967,53296
1.008633,53888
1.0103,53920
1.011967,56112
1.013633,55776
1.0153,55312
1.016967,54048
1.018633,53248
1.0203,52400
1.021967,53184
1.023633,51280
1.0253,50816
1.026967,46176
1.028633,44512
1.0303,41616
1.031967,38496
1.033633,34800
1.0353,32864
1.036967,29352
1.038633,28580
1.0403,25320
1.041967,22424
1.043633,20396
1.0453,19444
1.046967,17792
1.048633,15872
1.0503,14976
1.051967,12972
1.053633,13988
1.0553,11964
1.056967,12464
1.058633,11972
1.0603,11120
1.061967,12004
1.063633,11612
1.0653,11728
1.066967,11356
1.068633,11540
1.0703,12032
1.071967,11892
1.073633,11756
1.0753,12664
1.076967,13004
1.078633,12664
1.0803,13140
1.081967,13464
1.083633,13448
1.0853,13228
1.086967,13248
1.088633,13424
1.0903,13260
1.091967,13100
1.093633,12444
1.0953,12560
1.096967,13216
1.098633,13340
1.1003,13280
1.101967,12964
1.103633,12672
1.1053,12264
1.106967,12184
1.108633,12548
1.1103,12640
1.111967,11976
1.113633,11028
1.1153,11104
1.116967,11872
1.118633,11380
1.1203,9792
1.121967,9304
1.123633,9376
1.1253,9372
1.126967,8508
1.128633,7812
1.1303,6976
1.131967,6980
1.133633,6744
1.1353,5754
1.136967,5560
1.138633,5099
1.1403,5016
1.141967,3980
1.143633,4042
1.1453,3965
1.146967,3891
1.148633,3816
1.1503,3489
1.151967,3488
1.153633,2845
1.1553,3377
1.156967,2859
1.158633,2491
1.1603,2292
1.161967,2546
1.163633,2404
1.1653,2166
1.166967,2182
1.168633,2164
1.1703,2145
1.171967,2151
1.173633,1830
1.1753,1809
1.176967,1997
1.178633,1697
1.1803,1841
1.181967,2065
1.183633,1684
1.1853,1735
1.186967,1787
1.188633,1930
1.1903,2034
1.191967,2022
1.193633,2298
1.1953,2415
1.196967,2433
1.198633,2124
