"SampleName","A2Rd2_02-2"
"Target Mass 1",
"Column Name","IA-3 (3um, 4.6X100)"
"Channel","QDa 1: SIR Ch2"
0.00195,619
0.003616667,520
0.005283333,712
0.00695,627
0.008616666,913
0.01028333,947
0.01195,867
0.01361667,888
0.01528333,950
0.01695,917
0.01861667,885
0.02028333,866
0.02195,905
0.02361667,788
0.02528333,830
0.02695,710
0.02861667,794
0.03028333,878
0.03195,852
0.03361667,918
0.03528333,899
0.03695,880
0.03861667,873
0.04028333,867
0.04195,966
0.04361667,954
0.04528333,923
0.04695,854
0.04861667,919
0.05028334,780
0.05195,640
0.05361667,821
0.05528333,660
0.05695,957
0.05861667,912
0.06028333,866
0.06195,885
0.06361666,734
0.06528334,728
0.06695,902
0.06861667,773
0.07028333,748
0.07195,724
0.07361667,763
0.07528333,695
0.07695,737
0.07861666,708
0.08028334,730
0.08195,810
0.08361667,900
0.08528333,831
0.08695,900
0.08861667,828
0.09028333,837
0.09195,847
0.09361666,830
0.09528334,856
0.09695,877
0.09861667,898
0.1002833,767
0.10195,714
0.1036167,768
0.1052833,823
0.10695,625
0.1086167,817
0.1102833,717
0.11195,819
0.1136167,827
0.1152833,836
0.11695,651
0.1186167,894
0.1202833,800
0.12195,833
0.1236167,866
0.1252833,821
0.12695,784
0.1286167,909
0.1302833,931
0.13195,956
0.1336167,649
0.1352833,721
0.13695,927
0.1386167,943
0.1402833,803
0.14195,896
0.1436167,784
0.1452833,774
0.14695,879
0.1486167,874
0.1502833,742
0.15195,758
0.1536167,778
0.1552833,799
0.15695,771
0.1586167,743
0.1602833,721
0.16195,765
0.1636167,763
0.1652833,761
0.16695,796
0.1686167,804
0.1702833,941
0.17195,831
0.1736167,721
0.1752833,657
0.17695,651
0.1786167,693
0.1802833,710
0.18195,726
0.1836167,765
0.1852833,804
0.18695,785
0.1886167,766
0.1902833,719
0.19195,696
0.1936167,672
0.1952833,838
0.19695,854
0.1986167,825
0.2002833,835
0.20195,845
0.2036167,846
0.2052833,839
0.20695,863
0.2086167,886
0.2102833,769
0.21195,651
0.2136167,725
0.2152833,910
0.21695,973
0.2186167,1113
0.2202833,1034
0.22195,1139
0.2236167,1154
0.2252833,921
0.22695,737
0.2286167,1066
0.2302833,982
0.23195,1051
0.2336167,1073
0.2352833,1353
0.23695,1432
0.2386167,1308
0.2402833,1179
0.24195,1242
0.2436167,1008
0.2452833,988
0.24695,1313
0.2486167,988
0.2502833,1135
0.25195,1233
0.2536167,918
0.2552833,1360
0.25695,1056
0.2586167,868
0.2602833,749
0.26195,1019
0.2636333,980
0.2652833,1047
0.26695,977
0.2686167,908
0.2702833,869
0.27195,1076
0.2736167,1123
0.2752833,1047
0.27695,1035
0.2786167,1124
0.2803,863
0.28195,978
0.2836167,870
0.2852833,880
0.28695,890
0.2886333,816
0.2902833,836
0.29195,1121
0.2936167,1050
0.2952833,1065
0.29695,1047
0.2986333,937
0.3002833,1046
0.30195,833
0.3036167,1102
0.3053,1111
0.30695,1043
0.3086167,1192
0.3102833,1146
0.31195,1100
0.3136333,1145
0.3153,1190
0.31695,1175
0.3186167,1211
0.3202833,1248
0.3219667,1231
0.3236167,1318
0.3252833,1089
0.32695,1225
0.3286167,1041
0.3302833,1184
0.33195,1170
0.3336333,1156
0.3353,912
0.33695,1364
0.3386333,1401
0.3403,1433
0.34195,1304
0.3436333,1438
0.3452833,1317
0.34695,1222
0.3486167,1183
0.3503,1274
0.35195,1275
0.3536333,1276
0.3553,1514
0.3569667,1461
0.3586167,1428
0.3602833,1284
0.36195,1305
0.3636167,1570
0.3652833,2466
0.3669667,3526
0.3686333,3807
0.3702833,3994
0.3719667,4293
0.3736333,4477
0.3753,4243
0.37695,4146
0.3786167,3751
0.3803,3606
0.38195,3101
0.3836333,2504
0.3853,1873
0.3869667,1531
0.3886333,1246
0.3903,975
0.3919667,920
0.3936333,731
0.3952833,459
0.3969667,508
0.3986333,457
0.4003,494
0.4019667,508
0.4036333,401
0.4053,504
0.4069667,666
0.4086333,607
0.4103,704
0.4119667,482
0.4136333,575
0.4153,582
0.4169667,633
0.4186333,516
0.4203,648
0.4219667,750
0.4236333,697
0.4253,698
0.4269667,695
0.4286333,701
0.4303,710
0.4319667,719
0.4336333,650
0.4353,652
0.4369667,733
0.4386333,757
0.4403,852
0.4419667,946
0.4436333,975
0.4453,1004
0.4469667,986
0.4486333,968
0.4503,984
0.4519667,1000
0.4536333,1052
0.4553,1018
0.4569667,984
0.4586333,1051
0.4603,1117
0.4619667,1157
0.4636333,1197
0.4653,1199
0.4669667,1201
0.4686333,1130
0.4703,1280
0.4719667,1429
0.4736333,1339
0.4753,1443
0.4769667,1326
0.4786333,1141
0.4803,1251
0.4819667,1050
0.4836333,1176
0.4853,1200
0.4869667,1173
0.4886333,1145
0.4903,1193
0.4919667,1308
0.4936333,1194
0.4953,1080
0.4969667,1128
0.4986333,1203
0.5003,1149
0.5019667,1143
0.5036333,1046
0.5053,1043
0.5069667,1041
0.5086333,772
0.5103,1050
0.5119666,1084
0.5136333,839
0.5153,802
0.5169666,854
0.5186333,795
0.5203,736
0.5219667,857
0.5236334,843
0.5253,829
0.5269667,1020
0.5286334,1003
0.5303,853
0.5319667,929
0.5336334,944
0.5353,827
0.5369667,922
0.5386333,939
0.5403,923
0.5419667,1066
0.5436333,967
0.5453,868
0.5469667,761
0.5486333,1169
0.5503,1186
0.5519667,755
0.5536333,777
0.5553,846
0.5569667,858
0.5586333,812
0.5603,698
0.5619667,1020
0.5636333,986
0.5653,1138
0.5669667,915
0.5686333,890
0.5703,1154
0.5719666,1046
0.5736333,855
0.5753,930
0.5769666,963
0.5786333,996
0.5803,1068
0.5819666,1112
0.5836333,931
0.5853,873
0.5869667,631
0.5886334,1027
0.5903,1036
0.5919667,856
0.5936334,909
0.5953,1085
0.5969667,992
0.5986333,893
0.6003,1106
0.6019667,973
0.6036333,899
0.6053,943
0.6069667,856
0.6086333,891
0.6103,880
0.6119667,903
0.6136333,889
0.6153,875
0.6169667,876
0.6186333,877
0.6203,1059
0.6219667,1082
0.6236333,974
0.6253,1033
0.6269667,955
0.6286333,900
0.6303,941
0.6319667,942
0.6336333,943
0.6353,1079
0.6369666,1073
0.6386333,1008
0.6403,1133
0.6419666,936
0.6436333,1034
0.6453,1078
0.6469667,1082
0.6486334,1086
0.6503,1090
0.6519667,1107
0.6536334,1124
0.6553,1071
0.6569667,1019
0.6586334,1019
0.6603,1018
0.6619667,859
0.6636333,971
0.6653,1084
0.6669667,1063
0.6686333,1125
0.6703,1188
0.6719667,1564
0.6736333,1806
0.6753,2169
0.6769667,2603
0.6786333,3411
0.6803,4717
0.6819667,6239
0.6836333,7087
0.6853,9568
0.6869667,11020
0.6886333,13204
0.6903,17044
0.6919667,19044
0.6936333,20788
0.6953,24388
0.6969666,25920
0.6986333,27488
0.7003,29860
0.7019666,31488
0.7036333,33488
0.7053,33008
0.7069666,34304
0.7086333,34640
0.7103,34080
0.7119667,33520
0.7136334,34336
0.7153,34528
0.7169667,34736
0.7186334,33712
0.7203,32976
0.7219667,31160
0.7236333,29692
0.7253,26760
0.7269667,24044
0.7286333,22044
0.7303,19324
0.7319667,16948
0.7336333,16108
0.7353,12752
0.7369667,11136
0.7386333,8964
0.7403,8916
0.7419667,7985
0.7436333,6152
0.7453,5156
0.7469667,5080
0.7486333,4422
0.7503,3653
0.7519667,3518
0.7536333,3181
0.7553,3063
0.7569667,2631
0.7586333,2365
0.7603,2095
0.7619666,2402
0.7636333,2300
0.7653,1912
0.7669666,1882
0.7686333,1688
0.7703,1803
0.7719667,1546
0.7736334,1668
0.7753,1597
0.7769667,1525
0.7786334,1508
0.7803,1799
0.7819667,1727
0.7836334,1895
0.7853,1974
0.7869667,2052
0.7886333,2529
0.7903,2743
0.7919667,3110
0.7936333,3718
0.7953,4023
0.7969667,4112
0.7986333,4780
0.8003,4719
0.8019667,5058
0.8036333,5083
0.8053,5107
0.8069667,5771
0.8086333,5851
0.8103,5825
0.8119667,6258
0.8136333,6190
0.8153,6253
0.8169667,5886
0.8186333,6011
0.8203,6563
0.8219666,6534
0.8236333,5938
0.8253,5626
0.8269666,5734
0.8286333,5771
0.8303,5764
0.8319666,5480
0.8336333,5136
0.8353,4875
0.8369667,4317
0.8386334,4144
0.8403,3794
0.8419667,3563
0.8436334,3354
0.8453,3173
0.8469667,2996
0.8486333,2272
0.8503,2156
0.8519667,2541
0.8536333,2100
0.8553,2071
0.8569667,1959
0.8586333,1926
0.8603,1744
0.8619667,1607
0.8636333,1408
0.8653,1627
0.8669667,1216
0.8686333,1351
0.8703,1393
0.8719667,1127
0.8736333,1346
0.8753,1236
0.8769667,1255
0.8786333,1355
0.8803,1458
0.8819667,1561
0.8836333,1622
0.8853,1640
0.8869666,1771
0.8886333,1729
0.8903,1687
0.8919666,1744
0.8936333,1800
0.8953,1904
0.8969667,1400
0.8986334,1612
0.9003,1554
0.9019667,1564
0.9036334,1575
0.9053,1542
0.9069667,1803
0.9086334,1813
0.9103,1397
0.9119667,1472
0.9136333,1473
0.9153,1553
0.9169667,1268
0.9186333,1321
0.9203,1595
0.9219667,1482
0.9236333,1568
0.9253,1533
0.9269667,1224
0.9286333,1615
0.9303,1567
0.9319667,1207
0.9336333,1519
0.9353,1423
0.9369667,1350
0.9386333,1480
0.9403,1460
0.9419667,1440
0.9436333,1462
0.9453,1472
0.9469666,1481
0.9486333,1734
0.9503,2067
0.9519666,1912
0.9536333,2608
0.9553,2874
0.9569666,3250
0.9586333,4346
0.9603,4921
0.9619667,6328
0.9636334,7838
0.9653,9996
0.9669667,12784
0.9686334,15124
0.9703,17724
0.9719667,21408
0.9736333,23612
0.9753,28984
0.9769667,34656
0.9786333,39680
0.9803,42912
0.9819667,49040
0.9836333,54896
0.9853,58384
0.9869667,62448
0.9886333,66032
0.9903,70304
0.9919667,71088
0.9936333,73904
0.9953,75792
0.9969667,78576
0.9986333,80992
1.0003,83328
1.001967,82000
1.003633,80976
1.0053,82176
1.006967,83376
1.008633,86432
1.0103,87664
1.011967,88128
1.013633,89472
1.0153,88992
1.016967,88496
1.018633,87792
1.0203,87392
1.021967,83456
1.023633,82560
1.0253,80672
1.026967,75904
1.028633,73328
1.0303,68592
1.031967,63616
1.033633,57824
1.0353,53088
1.036967,50944
1.038633,45376
1.0403,42480
1.041967,39424
1.043633,36608
1.0453,33120
1.046967,29556
1.048633,28920
1.0503,27712
1.051967,27108
1.053633,26644
1.0553,25608
1.056967,26856
1.058633,26608
1.0603,29080
1.061967,28944
1.063633,29284
1.0653,31824
1.066967,34000
1.068633,35168
1.0703,37296
1.071967,39872
1.073633,40848
1.0753,43136
1.076967,43648
1.078633,44736
1.0803,45104
1.081967,48576
1.083633,48752
1.0853,50080
1.086967,50448
1.088633,51696
1.0903,52448
1.091967,52640
1.093633,52720
1.0953,54224
1.096967,53792
1.098633,51488
1.1003,53344
1.101967,53056
1.103633,53808
1.1053,52688
1.106967,53440
1.108633,52560
1.1103,49584
1.111967,48464
1.113633,47440
1.1153,45904
1.116967,43456
1.118633,43232
1.1203,40240
1.121967,38112
1.123633,34848
1.1253,33728
1.126967,30912
1.128633,28276
1.1303,26752
1.131967,24520
1.133633,23108
1.1353,21428
1.136967,19312
1.138633,18052
1.1403,16668
1.141967,14688
1.143633,13292
1.1453,12704
1.146967,11476
1.148633,10964
1.1503,10024
1.151967,9360
1.153633,8444
1.1553,8260
1.156967,7916
1.158633,6899
1.1603,7041
1.161967,6069
1.163633,5867
1.1653,5901
1.166967,5456
1.168633,4948
1.1703,4645
1.171967,4131
1.173633,4456
1.1753,4186
1.176967,4138
1.178633,4499
1.1803,3579
1.181967,3738
1.183633,3326
1.1853,3378
1.186967,3330
1.188633,3374
1.1903,3427
1.191967,3423
1.193633,3513
1.1953,4190
1.196967,4227
1.198633,4422
