"SampleName","A2Rd2_02-75"
"Target Mass 1",
"Column Name","IA-3 (3um, 4.6X100)"
"Channel","QDa 1: SIR Ch1"
0.00195,462
0.003616667,697
0.005283333,477
0.00695,504
0.008616666,630
0.01028333,593
0.01195,476
0.01361667,456
0.01528333,612
0.01695,447
0.01861667,571
0.02028333,400
0.02195,508
0.02361667,628
0.02528333,396
0.02695,560
0.02861667,528
0.03028333,381
0.03195,664
0.03361667,575
0.03528333,576
0.03695,451
0.03861667,516
0.04028333,487
0.04195,526
0.04361667,504
0.04528333,556
0.04695,467
0.04861667,378
0.05028334,459
0.05195,484
0.05361667,484
0.05528333,483
0.05695,492
0.05861667,501
0.06028333,334
0.06195,420
0.06361666,520
0.06528334,503
0.06695,499
0.06861667,503
0.07028333,506
0.07195,535
0.07361667,436
0.07528333,453
0.07695,469
0.07861666,474
0.08028334,479
0.08195,485
0.08361667,472
0.08528333,459
0.08695,486
0.08861667,533
0.09028333,533
0.09195,590
0.09361666,358
0.09528334,602
0.09695,456
0.09861667,425
0.1002833,500
0.10195,484
0.1036167,511
0.1052833,537
0.10695,552
0.1086167,566
0.1102833,629
0.11195,391
0.1136167,498
0.1152833,453
0.11695,460
0.1186167,454
0.1202833,448
0.12195,459
0.1236167,471
0.1252833,469
0.12695,459
0.1286167,551
0.1302833,568
0.13195,543
0.1336167,551
0.1352833,473
0.13695,496
0.1386167,468
0.1402833,472
0.14195,453
0.1436167,435
0.1452833,474
0.14695,446
0.1486167,418
0.1502833,454
0.15195,444
0.1536167,433
0.1552833,398
0.15695,362
0.1586167,329
0.1602833,525
0.16195,475
0.1636167,351
0.1652833,375
0.16695,344
0.1686167,313
0.1702833,316
0.17195,318
0.1736167,355
0.1752833,391
0.17695,437
0.1786167,406
0.1802833,376
0.18195,431
0.1836167,441
0.1852833,401
0.18695,627
0.1886167,663
0.1902833,488
0.19195,538
0.1936167,494
0.1952833,350
0.19695,508
0.1986167,471
0.2002833,465
0.20195,554
0.2036167,526
0.2052833,478
0.20695,448
0.2086167,425
0.2102833,463
0.21195,541
0.2136167,525
0.2152833,454
0.21695,484
0.2186167,490
0.2202833,496
0.22195,495
0.2236167,494
0.2252833,450
0.22695,480
0.2286167,417
0.2302833,456
0.23195,495
0.2336167,482
0.2352833,554
0.23695,561
0.2386167,567
0.2402833,502
0.24195,520
0.2436167,538
0.2452833,479
0.24695,514
0.2486167,391
0.2502833,429
0.25195,452
0.2536167,543
0.2552833,535
0.25695,483
0.2586167,460
0.2602833,459
0.26195,458
0.2636167,451
0.2652833,451
0.26695,451
0.2686167,451
0.2702833,450
0.27195,439
0.2736167,423
0.2752833,417
0.27695,374
0.2786167,407
0.2803,433
0.28195,458
0.2836167,606
0.2852833,611
0.28695,486
0.2886167,522
0.2902833,412
0.29195,473
0.2936167,465
0.2952833,457
0.29695,490
0.2986333,529
0.3002833,516
0.30195,504
0.3036167,491
0.3052833,478
0.30695,501
0.3086167,524
0.3102833,561
0.31195,544
0.3136167,527
0.3153,526
0.31695,518
0.3186167,510
0.3203,492
0.32195,473
0.3236167,469
0.3252833,465
0.32695,442
0.3286167,418
0.3302833,580
0.33195,624
0.3336333,596
0.3352833,554
0.3369667,623
0.3386167,657
0.3402833,416
0.34195,554
0.3436333,440
0.3452833,468
0.34695,593
0.3486167,541
0.3503,511
0.35195,481
0.3536333,485
0.3552833,476
0.3569667,466
0.3586333,580
0.3603,646
0.36195,724
0.3636333,865
0.3652833,1208
0.3669667,1850
0.3686333,2662
0.3703,3175
0.3719667,3604
0.3736333,3678
0.3753,4075
0.3769667,4006
0.3786167,3972
0.3803,4294
0.38195,4716
0.3836333,4800
0.3853,4269
0.3869667,3626
0.3886333,3568
0.3903,2657
0.3919667,2556
0.3936333,2069
0.3953,1586
0.3969667,1218
0.3986333,1327
0.4003,1130
0.4019667,1185
0.4036333,1113
0.4053,1065
0.4069667,1005
0.4086333,852
0.4103,879
0.4119667,809
0.4136333,848
0.4153,931
0.4169667,950
0.4186333,1180
0.4203,1219
0.4219667,1221
0.4236333,1067
0.4253,1150
0.4269667,1099
0.4286333,1214
0.4303,1234
0.4319667,1597
0.4336333,2153
0.4353,3215
0.4369667,4750
0.4386333,8162
0.4403,12648
0.4419667,21108
0.4436333,31128
0.4453,45136
0.4469667,61232
0.4486333,78112
0.4503,96912
0.4519667,110832
0.4536333,124128
0.4553,140864
0.4569667,146048
0.4586333,154176
0.4603,159040
0.4619667,162624
0.4636333,160512
0.4653,162496
0.4669667,166272
0.4686333,166592
0.4703,168512
0.4719667,176256
0.4736333,182912
0.4753,191360
0.4769667,192960
0.4786333,193280
0.4803,192064
0.4819667,186048
0.4836333,177344
0.4853,166912
0.4869667,154368
0.4886333,134272
0.4903,119312
0.4919667,99616
0.4936333,88256
0.4953,74976
0.4969667,61088
0.4986333,49984
0.5003,41888
0.5019667,33648
0.5036333,26548
0.5053,21712
0.5069667,18020
0.5086333,15884
0.5103,13076
0.5119666,10456
0.5136333,8892
0.5153,8074
0.5169666,6693
0.5186333,6105
0.5203,5160
0.5219667,4648
0.5236334,4365
0.5253,3635
0.5269667,3753
0.5286334,3823
0.5303,3277
0.5319667,3285
0.5336334,3157
0.5353,2691
0.5369667,2827
0.5386333,2653
0.5403,2049
0.5419667,2404
0.5436333,2456
0.5453,2226
0.5469667,2097
0.5486333,2034
0.5503,2054
0.5519667,2159
0.5536333,1595
0.5553,1751
0.5569667,1870
0.5586333,1640
0.5603,1694
0.5619667,1834
0.5636333,1926
0.5653,1439
0.5669667,1587
0.5686333,1320
0.5703,1365
0.5719666,1559
0.5736333,1529
0.5753,1276
0.5769666,1352
0.5786333,1230
0.5803,1435
0.5819666,1384
0.5836333,1343
0.5853,1169
0.5869667,1228
0.5886334,1390
0.5903,1424
0.5919667,1220
0.5936334,1333
0.5953,1345
0.5969667,1145
0.5986333,1194
0.6003,1242
0.6019667,1291
0.6036333,1017
0.6053,1315
0.6069667,1242
0.6086333,1119
0.6103,1283
0.6119667,1097
0.6136333,1244
0.6153,1376
0.6169667,1127
0.6186333,1156
0.6203,1130
0.6219667,1044
0.6236333,1066
0.6253,1075
0.6269667,1040
0.6286333,1000
0.6303,1022
0.6319667,936
0.6336333,976
0.6353,924
0.6369666,872
0.6386333,1057
0.6403,1010
0.6419666,878
0.6436333,986
0.6453,911
0.6469667,938
0.6486334,939
0.6503,941
0.6519667,890
0.6536334,940
0.6553,989
0.6569667,991
0.6586334,831
0.6603,872
0.6619667,938
0.6636333,799
0.6653,964
0.6669667,985
0.6686333,859
0.6703,858
0.6719667,604
0.6736333,762
0.6753,936
0.6769667,1000
0.6786333,782
0.6803,974
0.6819667,973
0.6836333,771
0.6853,901
0.6869667,871
0.6886333,859
0.6903,916
0.6919667,812
0.6936333,753
0.6953,762
0.6969666,891
0.6986333,922
0.7003,923
0.7019666,810
0.7036333,851
0.7053,737
0.7069666,797
0.7086333,855
0.7103,912
0.7119667,932
0.7136334,623
0.7153,757
0.7169667,643
0.7186334,818
0.7203,774
0.7219667,729
0.7236333,796
0.7253,863
0.7269667,824
0.7286333,962
0.7303,656
0.7319667,841
0.7336333,675
0.7353,771
0.7369667,852
0.7386333,908
0.7403,946
0.7419667,868
0.7436333,808
0.7453,888
0.7469667,807
0.7486333,780
0.7503,899
0.7519667,892
0.7536333,850
0.7553,809
0.7569667,853
0.7586333,832
0.7603,812
0.7619666,658
0.7636333,866
0.7653,632
0.7669666,655
0.7686333,729
0.7703,685
0.7719667,642
0.7736334,874
0.7753,887
0.7769667,843
0.7786334,942
0.7803,969
0.7819667,749
0.7836334,841
0.7853,945
0.7869667,864
0.7886333,746
0.7903,759
0.7919667,762
0.7936333,800
0.7953,816
0.7969667,833
0.7986333,908
0.8003,883
0.8019667,1017
0.8036333,632
0.8053,1024
0.8069667,870
0.8086333,871
0.8103,661
0.8119667,738
0.8136333,854
0.8153,871
0.8169667,882
0.8186333,887
0.8203,925
0.8219666,936
0.8236333,1017
0.8253,1009
0.8269666,1000
0.8286333,934
0.8303,798
0.8319666,970
0.8336333,975
0.8353,800
0.8369667,1175
0.8386334,1081
0.8403,933
0.8419667,891
0.8436334,918
0.8453,861
0.8469667,961
0.8486333,988
0.8503,1003
0.8519667,918
0.8536333,831
0.8553,772
0.8569667,987
0.8586333,1012
0.8603,1157
0.8619667,758
0.8636333,759
0.8653,845
0.8669667,684
0.8686333,765
0.8703,753
0.8719667,592
0.8736333,761
0.8753,871
0.8769667,1585
0.8786333,1672
0.8803,2158
0.8819667,2331
0.8836333,2592
0.8853,2852
0.8869666,3320
0.8886333,3174
0.8903,3440
0.8919666,3706
0.8936333,3469
0.8953,3231
0.8969667,3816
0.8986334,3597
0.9003,3263
0.9019667,3397
0.9036334,3530
0.9053,3686
0.9069667,3598
0.9086334,3243
0.9103,3223
0.9119667,3467
0.9136333,3653
0.9153,3501
0.9169667,3350
0.9186333,3679
0.9203,2996
0.9219667,3701
0.9236333,3844
0.9253,3504
0.9269667,3546
0.9286333,3258
0.9303,3334
0.9319667,3589
0.9336333,3681
0.9353,3345
0.9369667,3225
0.9386333,3355
0.9403,3248
0.9419667,3002
0.9436333,3223
0.9453,2934
0.9469666,3087
0.9486333,2519
0.9503,2536
0.9519666,2519
0.9536333,2256
0.9553,2259
0.9569666,2221
0.9586333,2028
0.9603,1896
0.9619667,1741
0.9636334,1714
0.9653,1585
0.9669667,1546
0.9686334,1444
0.9703,1547
0.9719667,1578
0.9736333,1398
0.9753,1352
0.9769667,1411
0.9786333,1018
0.9803,1040
0.9819667,1078
0.9836333,1115
0.9853,977
0.9869667,967
0.9886333,1005
0.9903,595
0.9919667,985
0.9936333,721
0.9953,799
0.9969667,612
0.9986333,766
1.0003,798
1.001967,690
1.003633,665
1.0053,495
1.006967,564
1.008633,724
1.0103,586
1.011967,602
1.013633,569
1.0153,567
1.016967,565
1.018633,592
1.0203,619
1.021967,649
1.023633,668
1.0253,686
1.026967,672
1.028633,669
1.0303,666
1.031967,699
1.033633,571
1.0353,764
1.036967,682
1.038633,770
1.0403,658
1.041967,610
1.043633,641
1.0453,672
1.046967,562
1.048633,636
1.0503,602
1.051967,569
1.053633,624
1.0553,606
1.056967,570
1.058633,533
1.0603,566
1.061967,600
1.063633,576
1.0653,553
1.066967,608
1.068633,804
1.0703,747
1.071967,541
1.073633,680
1.0753,576
1.076967,601
1.078633,687
1.0803,592
1.081967,687
1.083633,618
1.0853,560
1.086967,701
1.088633,716
1.0903,757
1.091967,657
1.093633,644
1.0953,655
1.096967,649
1.098633,642
1.1003,605
1.101967,596
1.103633,588
1.1053,601
1.106967,574
1.108633,624
1.1103,675
1.111967,410
1.113633,784
1.1153,833
1.116967,748
1.118633,758
1.1203,596
1.121967,533
1.123633,668
1.1253,628
1.126967,589
1.128633,610
1.1303,632
1.131967,565
1.133633,622
1.1353,680
1.136967,658
1.138633,637
1.1403,749
1.141967,544
1.143633,655
1.1453,596
1.146967,666
1.148633,696
1.1503,722
1.151967,576
1.153633,580
1.1553,508
1.156967,708
1.158633,724
1.1603,686
1.161967,723
1.163633,698
1.1653,673
1.166967,697
1.168633,720
1.1703,700
1.171967,679
1.173633,683
1.1753,789
1.176967,684
1.178633,579
1.1803,902
1.181967,810
1.183633,847
1.1853,797
1.186967,754
1.188633,707
1.1903,784
1.191967,730
1.193633,787
1.1953,789
1.196967,789
1.198633,789
