"SampleName","A2Rd2_02-84"
"Target Mass 1",
"Column Name","IA-3 (3um, 4.6X100)"
"Channel","QDa 1: SIR Ch1"
0.00195,428
0.003616667,702
0.005283333,586
0.00695,705
0.008616666,622
0.01028333,650
0.01195,566
0.01361667,501
0.01528333,559
0.01695,426
0.01861667,490
0.02028333,554
0.02195,507
0.02361667,460
0.02528333,506
0.02695,613
0.02861667,661
0.03028333,575
0.03195,463
0.03361667,547
0.03528333,538
0.03695,528
0.03861667,434
0.04028333,548
0.04195,556
0.04361667,538
0.04528333,520
0.04695,551
0.04861667,551
0.05028334,550
0.05195,481
0.05361667,605
0.05528333,634
0.05695,527
0.05861667,633
0.06028333,661
0.06195,547
0.06361666,517
0.06528334,487
0.06695,490
0.06861667,492
0.07028333,499
0.07195,464
0.07361667,429
0.07528333,416
0.07695,543
0.07861666,507
0.08028334,575
0.08195,489
0.08361667,491
0.08528333,493
0.08695,504
0.08861667,515
0.09028333,513
0.09195,511
0.09361666,488
0.09528334,465
0.09695,461
0.09861667,405
0.1002833,492
0.10195,578
0.1036167,584
0.1052833,634
0.10695,417
0.1086167,482
0.1102833,598
0.11195,559
0.1136167,574
0.1152833,546
0.11695,555
0.1186167,602
0.1202833,584
0.12195,567
0.1236167,620
0.1252833,547
0.12695,521
0.1286167,558
0.1302833,421
0.13195,638
0.1336167,592
0.1352833,546
0.13695,575
0.1386167,605
0.1402833,631
0.14195,463
0.1436167,462
0.1452833,553
0.14695,541
0.1486167,528
0.1502833,454
0.15195,451
0.1536167,573
0.1552833,544
0.15695,501
0.1586167,474
0.1602833,557
0.16195,553
0.1636167,549
0.1652833,496
0.16695,490
0.1686167,483
0.1702833,523
0.17195,562
0.1736167,511
0.1752833,461
0.17695,534
0.1786167,677
0.1802833,688
0.18195,619
0.1836167,522
0.1852833,605
0.18695,604
0.1886167,455
0.1902833,543
0.19195,528
0.1936167,525
0.1952833,482
0.19695,440
0.1986167,542
0.2002833,471
0.20195,631
0.2036167,669
0.2052833,619
0.20695,468
0.2086167,622
0.2102833,621
0.21195,519
0.2136167,572
0.2152833,538
0.21695,500
0.2186167,554
0.2202833,509
0.22195,462
0.2236167,580
0.2252833,538
0.22695,504
0.2286167,428
0.2302833,522
0.23195,471
0.2336167,509
0.2352833,521
0.23695,522
0.2386167,524
0.2402833,464
0.24195,406
0.2436167,560
0.2452833,461
0.24695,608
0.2486167,581
0.2502833,598
0.25195,605
0.2536167,501
0.2552833,451
0.25695,671
0.2586167,679
0.2602833,427
0.26195,662
0.2636167,643
0.2652833,543
0.26695,532
0.2686167,580
0.2702833,519
0.27195,529
0.2736167,467
0.2752833,510
0.27695,554
0.2786167,543
0.2803,549
0.28195,558
0.2836167,465
0.2852833,494
0.28695,629
0.2886167,376
0.2902833,549
0.29195,663
0.2936167,590
0.2952833,591
0.29695,539
0.2986333,525
0.3002833,511
0.30195,570
0.3036167,578
0.3052833,571
0.30695,561
0.3086167,551
0.3102833,511
0.31195,471
0.3136167,518
0.3153,527
0.31695,536
0.3186167,561
0.3202833,587
0.32195,589
0.3236167,591
0.3252833,461
0.32695,550
0.3286167,395
0.3302833,614
0.33195,522
0.3336333,627
0.3352833,588
0.33695,495
0.3386167,499
0.3402833,557
0.34195,550
0.3436167,521
0.3452833,493
0.34695,533
0.3486167,554
0.3503,324
0.35195,416
0.3536167,612
0.3553,520
0.35695,422
0.3586167,626
0.3602833,742
0.36195,761
0.3636167,856
0.3652833,1198
0.36695,1785
0.3686333,2503
0.3702833,3219
0.37195,3532
0.3736333,3791
0.3752833,3466
0.37695,3757
0.3786333,3734
0.3802833,4244
0.38195,4471
0.3836167,4236
0.3853,3674
0.38695,3680
0.3886333,3145
0.3902833,3312
0.3919667,2481
0.3936167,1829
0.3953,1519
0.3969667,1750
0.3986167,1286
0.4002833,1334
0.40195,1509
0.4036333,1365
0.4052833,1394
0.4069667,1242
0.4086167,1202
0.4103,1456
0.4119667,1262
0.4136333,1478
0.4152833,1154
0.41695,1740
0.4186167,1607
0.4203,1572
0.4219667,1577
0.4236333,1776
0.4253,1895
0.4269667,1765
0.4286333,1586
0.4303,1711
0.4319667,1850
0.4336333,2146
0.4353,3342
0.4369667,4470
0.4386333,5817
0.4403,9764
0.4419667,15508
0.4436333,24424
0.4453,36368
0.4469667,50336
0.4486333,64640
0.4503,82912
0.4519667,97904
0.4536333,110160
0.4553,126864
0.4569667,134784
0.4586333,143168
0.4603,150464
0.4619667,149120
0.4636333,153216
0.4653,150400
0.4669667,150272
0.4686333,151552
0.4703,153536
0.4719667,153472
0.4736333,157888
0.4753,164096
0.4769667,166528
0.4786333,172928
0.4803,174272
0.4819667,172224
0.4836333,166720
0.4853,158272
0.4869667,147456
0.4886333,131712
0.4903,117376
0.4919667,104000
0.4936333,88816
0.4953,74272
0.4969667,63072
0.4986333,51568
0.5003,41072
0.5019667,33296
0.5036333,27564
0.5053,22888
0.5069667,18164
0.5086333,14904
0.5103,13136
0.5119666,10732
0.5136333,9704
0.5153,8186
0.5169666,7088
0.5186333,6219
0.5203,5738
0.5219667,4881
0.5236334,4901
0.5253,4100
0.5269667,3334
0.5286334,3526
0.5303,3463
0.5319667,3152
0.5336334,3131
0.5353,2812
0.5369667,2659
0.5386333,2760
0.5403,2333
0.5419667,2485
0.5436333,2070
0.5453,2325
0.5469667,2167
0.5486333,2158
0.5503,2150
0.5519667,1786
0.5536333,2262
0.5553,1793
0.5569667,1867
0.5586333,1881
0.5603,1446
0.5619667,1613
0.5636333,1487
0.5653,1725
0.5669667,1616
0.5686333,1420
0.5703,1651
0.5719666,1466
0.5736333,1505
0.5753,1257
0.5769666,1470
0.5786333,1431
0.5803,1232
0.5819666,1391
0.5836333,1610
0.5853,1102
0.5869667,1317
0.5886334,1316
0.5903,1230
0.5919667,1283
0.5936334,1336
0.5953,1203
0.5969667,1157
0.5986333,1345
0.6003,1322
0.6019667,1289
0.6036333,1309
0.6053,1192
0.6069667,1343
0.6086333,1403
0.6103,1463
0.6119667,1397
0.6136333,1383
0.6153,1323
0.6169667,1245
0.6186333,1448
0.6203,1219
0.6219667,1213
0.6236333,1250
0.6253,1171
0.6269667,1156
0.6286333,1141
0.6303,884
0.6319667,997
0.6336333,1144
0.6353,1006
0.6369666,1108
0.6386333,1050
0.6403,989
0.6419666,959
0.6436333,851
0.6453,891
0.6469667,928
0.6486334,965
0.6503,795
0.6519667,832
0.6536334,978
0.6553,759
0.6569667,1005
0.6586334,814
0.6603,834
0.6619667,822
0.6636333,809
0.6653,822
0.6669667,828
0.6686333,815
0.6703,852
0.6719667,889
0.6736333,741
0.6753,786
0.6769667,758
0.6786333,770
0.6803,783
0.6819667,791
0.6836333,820
0.6853,805
0.6869667,790
0.6886333,897
0.6903,687
0.6919667,842
0.6936333,853
0.6953,743
0.6969666,798
0.6986333,871
0.7003,759
0.7019666,716
0.7036333,798
0.7053,749
0.7069666,700
0.7086333,424
0.7103,675
0.7119667,650
0.7136334,642
0.7153,665
0.7169667,680
0.7186334,771
0.7203,878
0.7219667,815
0.7236333,744
0.7253,730
0.7269667,844
0.7286333,608
0.7303,589
0.7319667,700
0.7336333,754
0.7353,823
0.7369667,796
0.7386333,763
0.7403,715
0.7419667,602
0.7436333,638
0.7453,674
0.7469667,658
0.7486333,641
0.7503,622
0.7519667,603
0.7536333,574
0.7553,545
0.7569667,738
0.7586333,697
0.7603,672
0.7619666,754
0.7636333,705
0.7653,810
0.7669666,770
0.7686333,729
0.7703,746
0.7719667,722
0.7736334,698
0.7753,760
0.7769667,649
0.7786334,698
0.7803,637
0.7819667,813
0.7836334,484
0.7853,685
0.7869667,641
0.7886333,749
0.7903,614
0.7919667,633
0.7936333,610
0.7953,695
0.7969667,696
0.7986333,493
0.8003,686
0.8019667,802
0.8036333,697
0.8053,541
0.8069667,804
0.8086333,490
0.8103,524
0.8119667,726
0.8136333,684
0.8153,606
0.8169667,604
0.8186333,551
0.8203,532
0.8219666,632
0.8236333,643
0.8253,654
0.8269666,631
0.8286333,609
0.8303,644
0.8319666,622
0.8336333,638
0.8353,639
0.8369667,628
0.8386334,618
0.8403,536
0.8419667,584
0.8436334,632
0.8453,518
0.8469667,604
0.8486333,616
0.8503,544
0.8519667,729
0.8536333,740
0.8553,797
0.8569667,547
0.8586333,696
0.8603,617
0.8619667,509
0.8636333,777
0.8653,454
0.8669667,694
0.8686333,623
0.8703,466
0.8719667,549
0.8736333,600
0.8753,665
0.8769667,888
0.8786333,921
0.8803,1299
0.8819667,1358
0.8836333,1330
0.8853,1582
0.8869666,1688
0.8886333,1794
0.8903,1777
0.8919666,1708
0.8936333,1639
0.8953,2075
0.8969667,2100
0.8986334,1944
0.9003,2034
0.9019667,1715
0.9036334,2193
0.9053,1947
0.9069667,2049
0.9086334,1934
0.9103,2054
0.9119667,2313
0.9136333,2267
0.9153,2110
0.9169667,1982
0.9186333,2153
0.9203,2116
0.9219667,2108
0.9236333,2107
0.9253,2107
0.9269667,1852
0.9286333,2038
0.9303,1912
0.9319667,2041
0.9336333,2054
0.9353,2022
0.9369667,1928
0.9386333,1807
0.9403,1792
0.9419667,1578
0.9436333,1665
0.9453,1591
0.9469666,1944
0.9486333,1856
0.9503,1853
0.9519666,1544
0.9536333,1601
0.9553,1419
0.9569666,1682
0.9586333,1265
0.9603,1320
0.9619667,1190
0.9636334,1307
0.9653,1200
0.9669667,1242
0.9686334,1085
0.9703,993
0.9719667,969
0.9736333,863
0.9753,1045
0.9769667,728
0.9786333,754
0.9803,710
0.9819667,704
0.9836333,674
0.9853,644
0.9869667,572
0.9886333,654
0.9903,657
0.9919667,660
0.9936333,657
0.9953,653
0.9969667,552
0.9986333,574
1.0003,597
1.001967,531
1.003633,553
1.0053,579
1.006967,532
1.008633,446
1.0103,485
1.011967,455
1.013633,490
1.0153,525
1.016967,344
1.018633,601
1.0203,524
1.021967,491
1.023633,526
1.0253,540
1.026967,467
1.028633,353
1.0303,427
1.031967,483
1.033633,493
1.0353,617
1.036967,652
1.038633,560
1.0403,602
1.041967,489
1.043633,512
1.0453,357
1.046967,659
1.048633,668
1.0503,431
1.051967,491
1.053633,519
1.0553,534
1.056967,549
1.058633,517
1.0603,562
1.061967,547
1.063633,572
1.0653,578
1.066967,451
1.068633,545
1.0703,539
1.071967,563
1.073633,512
1.0753,526
1.076967,465
1.078633,467
1.0803,577
1.081967,634
1.083633,607
1.0853,627
1.086967,643
1.088633,591
1.0903,372
1.091967,477
1.093633,579
1.0953,614
1.096967,571
1.098633,540
1.1003,509
1.101967,483
1.103633,527
1.1053,514
1.106967,500
1.108633,529
1.1103,536
1.111967,481
1.113633,571
1.1153,527
1.116967,484
1.118633,514
1.1203,545
1.121967,533
1.123633,521
1.1253,485
1.126967,450
1.128633,545
1.1303,425
1.131967,478
1.133633,535
1.1353,432
1.136967,494
1.138633,507
1.1403,491
1.141967,518
1.143633,473
1.1453,429
1.146967,424
1.148633,420
1.1503,445
1.151967,426
1.153633,408
1.1553,606
1.156967,569
1.158633,557
1.1603,501
1.161967,496
1.163633,492
1.1653,562
1.166967,591
1.168633,557
1.1703,584
1.171967,616
1.173633,497
1.1753,523
1.176967,476
1.178633,448
1.1803,577
1.181967,616
1.183633,522
1.1853,556
1.186967,679
1.188633,424
1.1903,750
1.191967,619
1.193633,632
1.1953,567
1.196967,640
1.198633,606
