"SampleName","A2Rd2_02-84"
"Target Mass 1",
"Column Name","IA-3 (3um, 4.6X100)"
"Channel","QDa 1: SIR Ch2"
0.00195,548
0.003616667,673
0.005283333,712
0.00695,646
0.008616666,577
0.01028333,677
0.01195,777
0.01361667,767
0.01528333,915
0.01695,897
0.01861667,880
0.02028333,837
0.02195,710
0.02361667,932
0.02528333,820
0.02695,863
0.02861667,794
0.03028333,955
0.03195,904
0.03361667,853
0.03528333,841
0.03695,819
0.03861667,797
0.04028333,1079
0.04195,1191
0.04361667,1007
0.04528333,885
0.04695,1028
0.04861667,986
0.05028334,923
0.05195,951
0.05361667,940
0.05528333,855
0.05695,907
0.05861667,959
0.06028333,979
0.06195,948
0.06361666,944
0.06528334,1072
0.06695,824
0.06861667,1010
0.07028333,1024
0.07195,754
0.07361667,1029
0.07528333,1093
0.07695,805
0.07861666,1064
0.08028334,881
0.08195,817
0.08361667,901
0.08528333,821
0.08695,1053
0.08861667,1116
0.09028333,755
0.09195,807
0.09361666,1151
0.09528334,1014
0.09695,975
0.09861667,1052
0.1002833,1034
0.10195,924
0.1036167,1081
0.1052833,934
0.10695,984
0.1086167,793
0.1102833,804
0.11195,793
0.1136167,845
0.1152833,898
0.11695,949
0.1186167,727
0.1202833,879
0.12195,805
0.1236167,855
0.1252833,806
0.12695,864
0.1286167,836
0.1302833,807
0.13195,854
0.1336167,900
0.1352833,749
0.13695,757
0.1386167,766
0.1402833,626
0.14195,1012
0.1436167,949
0.1452833,806
0.14695,826
0.1486167,959
0.1502833,930
0.15195,855
0.1536167,1015
0.1552833,780
0.15695,812
0.1586167,755
0.1602833,950
0.16195,873
0.1636167,795
0.1652833,894
0.16695,843
0.1686167,859
0.1702833,874
0.17195,862
0.1736167,850
0.1752833,819
0.17695,806
0.1786167,814
0.1802833,822
0.18195,829
0.1836167,796
0.1852833,763
0.18695,779
0.1886167,794
0.1902833,1100
0.19195,1047
0.1936167,876
0.1952833,881
0.19695,911
0.1986167,930
0.2002833,806
0.20195,876
0.2036167,865
0.2052833,855
0.20695,831
0.2086167,807
0.2102833,855
0.21195,919
0.2136167,982
0.2152833,1033
0.21695,986
0.2186167,992
0.2202833,997
0.22195,709
0.2236167,957
0.2252833,1143
0.22695,1159
0.2286167,970
0.2302833,889
0.23195,969
0.2336167,1170
0.2352833,1181
0.23695,1093
0.2386167,953
0.2402833,1072
0.24195,1192
0.2436167,1110
0.2452833,1082
0.24695,998
0.2486167,1011
0.2502833,1024
0.25195,1199
0.2536167,1188
0.2552833,933
0.25695,1086
0.2586167,966
0.2602833,988
0.26195,1092
0.2636167,951
0.2652833,897
0.26695,1045
0.2686167,1075
0.2702833,1105
0.27195,955
0.2736167,955
0.2752833,955
0.27695,961
0.2786167,967
0.2803,1098
0.28195,1150
0.2836167,1204
0.2852833,996
0.28695,979
0.2886167,728
0.2902833,941
0.29195,890
0.2936167,980
0.2952833,944
0.29695,946
0.2986333,948
0.3002833,987
0.30195,1045
0.3036167,1020
0.3052833,995
0.30695,1084
0.3086167,1148
0.3102833,1211
0.31195,1156
0.3136167,1102
0.3153,1070
0.31695,1343
0.3186167,1298
0.3202833,1230
0.32195,1204
0.3236167,1298
0.3252833,1026
0.32695,1378
0.3286167,1124
0.3302833,1460
0.33195,1541
0.3336333,1388
0.3352833,1194
0.33695,1234
0.3386167,1442
0.3402833,1405
0.34195,1397
0.3436167,1303
0.3452833,1434
0.34695,1401
0.3486167,1175
0.3503,1258
0.35195,1257
0.3536167,1221
0.3553,1186
0.35695,1350
0.3586167,1308
0.3602833,1356
0.36195,1302
0.3636167,1248
0.3652833,1664
0.36695,3068
0.3686333,3212
0.3702833,3190
0.37195,2820
0.3736333,2625
0.3752833,2573
0.37695,2706
0.3786333,2652
0.3802833,2535
0.38195,2907
0.3836167,2340
0.3853,2176
0.38695,1845
0.3886333,1612
0.3902833,1137
0.3919667,976
0.3936167,928
0.3953,594
0.3969667,660
0.3986167,459
0.4002833,575
0.40195,655
0.4036333,566
0.4052833,530
0.4069667,667
0.4086167,449
0.4103,564
0.4119667,726
0.4136333,515
0.4152833,548
0.41695,511
0.4186167,548
0.4203,593
0.4219667,638
0.4236333,710
0.4253,783
0.4269667,789
0.4286333,776
0.4303,763
0.4319667,818
0.4336333,873
0.4353,917
0.4369667,723
0.4386333,814
0.4403,1008
0.4419667,879
0.4436333,993
0.4453,978
0.4469667,973
0.4486333,966
0.4503,1092
0.4519667,1217
0.4536333,1224
0.4553,1231
0.4569667,1199
0.4586333,1205
0.4603,1211
0.4619667,1389
0.4636333,1442
0.4653,1398
0.4669667,1213
0.4686333,1396
0.4703,1438
0.4719667,1489
0.4736333,1295
0.4753,1184
0.4769667,1512
0.4786333,1515
0.4803,1693
0.4819667,1289
0.4836333,1380
0.4853,1364
0.4869667,1358
0.4886333,1085
0.4903,1286
0.4919667,1397
0.4936333,1053
0.4953,1010
0.4969667,1066
0.4986333,1115
0.5003,1063
0.5019667,1011
0.5036333,971
0.5053,1024
0.5069667,1001
0.5086333,978
0.5103,993
0.5119666,1007
0.5136333,981
0.5153,1022
0.5169666,702
0.5186333,1101
0.5203,879
0.5219667,1028
0.5236334,727
0.5253,896
0.5269667,881
0.5286334,958
0.5303,937
0.5319667,730
0.5336334,1067
0.5353,1065
0.5369667,1099
0.5386333,969
0.5403,980
0.5419667,784
0.5436333,951
0.5453,909
0.5469667,883
0.5486333,807
0.5503,900
0.5519667,965
0.5536333,1029
0.5553,965
0.5569667,857
0.5586333,880
0.5603,958
0.5619667,907
0.5636333,857
0.5653,827
0.5669667,868
0.5686333,910
0.5703,1053
0.5719666,1121
0.5736333,1102
0.5753,965
0.5769666,897
0.5786333,763
0.5803,816
0.5819666,936
0.5836333,949
0.5853,906
0.5869667,1013
0.5886334,746
0.5903,1123
0.5919667,948
0.5936334,867
0.5953,989
0.5969667,911
0.5986333,1005
0.6003,1043
0.6019667,959
0.6036333,931
0.6053,1079
0.6069667,1042
0.6086333,1059
0.6103,1060
0.6119667,1013
0.6136333,1054
0.6153,1001
0.6169667,953
0.6186333,897
0.6203,841
0.6219667,872
0.6236333,902
0.6253,1037
0.6269667,1007
0.6286333,1269
0.6303,1194
0.6319667,1248
0.6336333,1060
0.6353,935
0.6369666,1190
0.6386333,1194
0.6403,994
0.6419666,1014
0.6436333,960
0.6453,1030
0.6469667,1014
0.6486334,1056
0.6503,1128
0.6519667,1120
0.6536334,1254
0.6553,785
0.6569667,1090
0.6586334,1166
0.6603,1104
0.6619667,1132
0.6636333,1281
0.6653,783
0.6669667,1234
0.6686333,1069
0.6703,1492
0.6719667,1441
0.6736333,1872
0.6753,2203
0.6769667,2584
0.6786333,3509
0.6803,4507
0.6819667,6009
0.6836333,7473
0.6853,9464
0.6869667,11128
0.6886333,13564
0.6903,15700
0.6919667,17628
0.6936333,19612
0.6953,21832
0.6969666,23108
0.6986333,23796
0.7003,24884
0.7019666,24108
0.7036333,24108
0.7053,24280
0.7069666,21752
0.7086333,21524
0.7103,20220
0.7119667,19784
0.7136334,20284
0.7153,19904
0.7169667,18176
0.7186334,18980
0.7203,19624
0.7219667,18708
0.7236333,17872
0.7253,18276
0.7269667,16836
0.7286333,16264
0.7303,15808
0.7319667,14460
0.7336333,12836
0.7353,11992
0.7369667,10628
0.7386333,9908
0.7403,8628
0.7419667,7763
0.7436333,6875
0.7453,6110
0.7469667,5428
0.7486333,4754
0.7503,4538
0.7519667,4170
0.7536333,3824
0.7553,3100
0.7569667,2972
0.7586333,2341
0.7603,2528
0.7619666,2257
0.7636333,2068
0.7653,2083
0.7669666,1962
0.7686333,2250
0.7703,1699
0.7719667,1959
0.7736334,2084
0.7753,2422
0.7769667,2973
0.7786334,3266
0.7803,4812
0.7819667,5488
0.7836334,6908
0.7853,7622
0.7869667,10792
0.7886333,12876
0.7903,14652
0.7919667,17308
0.7936333,19236
0.7953,22076
0.7969667,25524
0.7986333,25636
0.8003,27564
0.8019667,29920
0.8036333,29512
0.8053,30940
0.8069667,30976
0.8086333,28784
0.8103,27936
0.8119667,27432
0.8136333,27172
0.8153,25556
0.8169667,23392
0.8186333,23516
0.8203,22032
0.8219666,22460
0.8236333,21808
0.8253,22424
0.8269666,22472
0.8286333,21668
0.8303,22096
0.8319666,20172
0.8336333,19964
0.8353,19564
0.8369667,18916
0.8386334,18352
0.8403,17160
0.8419667,14644
0.8436334,13516
0.8453,12108
0.8469667,11696
0.8486333,10492
0.8503,8536
0.8519667,8065
0.8536333,7514
0.8553,7202
0.8569667,6301
0.8586333,5533
0.8603,5248
0.8619667,4271
0.8636333,4328
0.8653,3955
0.8669667,3100
0.8686333,2811
0.8703,2768
0.8719667,2606
0.8736333,2449
0.8753,2605
0.8769667,2689
0.8786333,2283
0.8803,2764
0.8819667,3107
0.8836333,3149
0.8853,3101
0.8869666,2891
0.8886333,2353
0.8903,2573
0.8919666,2148
0.8936333,2065
0.8953,2513
0.8969667,2208
0.8986334,2160
0.9003,2169
0.9019667,1855
0.9036334,2073
0.9053,2313
0.9069667,2137
0.9086334,1931
0.9103,1977
0.9119667,1726
0.9136333,1893
0.9153,1484
0.9169667,1812
0.9186333,1652
0.9203,1988
0.9219667,1789
0.9236333,1449
0.9253,1609
0.9269667,1521
0.9286333,1534
0.9303,1831
0.9319667,1815
0.9336333,1495
0.9353,1667
0.9369667,1467
0.9386333,1621
0.9403,1667
0.9419667,1786
0.9436333,1694
0.9453,1936
0.9469666,2061
0.9486333,2312
0.9503,2408
0.9519666,3068
0.9536333,3374
0.9553,3961
0.9569666,5148
0.9586333,6196
0.9603,8332
0.9619667,9544
0.9636334,11548
0.9653,13988
0.9669667,18084
0.9686334,20632
0.9703,24456
0.9719667,28232
0.9736333,32448
0.9753,36144
0.9769667,38768
0.9786333,44512
0.9803,46176
0.9819667,49952
0.9836333,51680
0.9853,55056
0.9869667,56192
0.9886333,55952
0.9903,55296
0.9919667,56688
0.9936333,54512
0.9953,55808
0.9969667,51824
0.9986333,51824
1.0003,49456
1.001967,49168
1.003633,48688
1.0053,44880
1.006967,45680
1.008633,44896
1.0103,42688
1.011967,45920
1.013633,46368
1.0153,42160
1.016967,43584
1.018633,44192
1.0203,46304
1.021967,46336
1.023633,43216
1.0253,44832
1.026967,42320
1.028633,41008
1.0303,42784
1.031967,39216
1.033633,38144
1.0353,37504
1.036967,34448
1.038633,31912
1.0403,29816
1.041967,28132
1.043633,26960
1.0453,25540
1.046967,22056
1.048633,20776
1.0503,19780
1.051967,19180
1.053633,18688
1.0553,18020
1.056967,17544
1.058633,16764
1.0603,17040
1.061967,16796
1.063633,17244
1.0653,17416
1.066967,17380
1.068633,17728
1.0703,18076
1.071967,18776
1.073633,19080
1.0753,18876
1.076967,18400
1.078633,18536
1.0803,18676
1.081967,18392
1.083633,17752
1.0853,17288
1.086967,17176
1.088633,17644
1.0903,17452
1.091967,16036
1.093633,16368
1.0953,16164
1.096967,14856
1.098633,14796
1.1003,14032
1.101967,14372
1.103633,14024
1.1053,13592
1.106967,14036
1.108633,13036
1.1103,13340
1.111967,12672
1.113633,12700
1.1153,12732
1.116967,12932
1.118633,12028
1.1203,12156
1.121967,11468
1.123633,11440
1.1253,10484
1.126967,10280
1.128633,10620
1.1303,9116
1.131967,8844
1.133633,8936
1.1353,8272
1.136967,6757
1.138633,6889
1.1403,7213
1.141967,6419
1.143633,5699
1.1453,5555
1.146967,5401
1.148633,4863
1.1503,4608
1.151967,4199
1.153633,4238
1.1553,4345
1.156967,3842
1.158633,3876
1.1603,3133
1.161967,3608
1.163633,3039
1.1653,2682
1.166967,2687
1.168633,3036
1.1703,2734
1.171967,2316
1.173633,2635
1.1753,2448
1.176967,2439
1.178633,2321
1.1803,2417
1.181967,2257
1.183633,2105
1.1853,2138
1.186967,2086
1.188633,2134
1.1903,2309
1.191967,2898
1.193633,2692
1.1953,2573
1.196967,2888
1.198633,2987
