"SampleName","A2Rd2_02-8"
"Target Mass 1",
"Column Name","IA-3 (3um, 4.6X100)"
"Channel","QDa 1: SIR Ch1"
0.00195,359
0.003616667,525
0.005283333,548
0.00695,654
0.008616666,515
0.01028333,616
0.01195,504
0.01361667,537
0.01528333,591
0.01695,524
0.01861667,504
0.02028333,498
0.02195,555
0.02361667,496
0.02528333,438
0.02695,459
0.02861667,463
0.03028333,467
0.03195,457
0.03361667,447
0.03528333,434
0.03695,420
0.03861667,448
0.04028333,488
0.04195,482
0.04361667,477
0.04528333,517
0.04695,498
0.04861667,479
0.05028334,362
0.05195,469
0.05361667,410
0.05528333,452
0.05695,506
0.05861667,477
0.06028333,516
0.06195,419
0.06361666,413
0.06528334,474
0.06695,431
0.06861667,387
0.07028333,519
0.07195,460
0.07361667,516
0.07528333,491
0.07695,393
0.07861666,459
0.08028334,640
0.08195,696
0.08361667,425
0.08528333,604
0.08695,463
0.08861667,517
0.09028333,583
0.09195,549
0.09361666,465
0.09528334,481
0.09695,566
0.09861667,456
0.1002833,550
0.10195,417
0.1036167,483
0.1052833,425
0.10695,458
0.1086167,492
0.1102833,449
0.11195,470
0.1136167,469
0.1152833,516
0.11695,521
0.1186167,532
0.1202833,453
0.12195,479
0.1236167,504
0.1252833,556
0.12695,604
0.1286167,580
0.1302833,408
0.13195,473
0.1336167,599
0.1352833,584
0.13695,512
0.1386167,478
0.1402833,474
0.14195,487
0.1436167,500
0.1452833,485
0.14695,470
0.1486167,417
0.1502833,426
0.15195,422
0.1536167,418
0.1552833,426
0.15695,434
0.1586167,310
0.1602833,353
0.16195,396
0.1636167,425
0.1652833,552
0.16695,489
0.1686167,427
0.1702833,435
0.17195,446
0.1736167,444
0.1752833,351
0.17695,563
0.1786167,568
0.1802833,560
0.18195,527
0.1836167,452
0.1852833,465
0.18695,432
0.1886167,456
0.1902833,505
0.19195,462
0.1936167,419
0.1952833,522
0.19695,521
0.1986167,520
0.2002833,520
0.20195,519
0.2036167,469
0.2052833,463
0.20695,387
0.2086167,417
0.2102833,446
0.21195,492
0.2136167,496
0.2152833,479
0.21695,462
0.2186167,500
0.2202833,504
0.22195,507
0.2236167,496
0.2252833,455
0.22695,507
0.2286167,421
0.2302833,616
0.23195,630
0.2336167,463
0.2352833,609
0.23695,553
0.2386167,534
0.2402833,421
0.24195,388
0.2436167,489
0.2453,504
0.24695,518
0.2486167,458
0.2502833,455
0.25195,525
0.2536167,492
0.2552833,433
0.25695,470
0.2586167,506
0.2602833,512
0.26195,401
0.2636167,500
0.2652833,466
0.26695,432
0.2686167,494
0.2702833,519
0.27195,544
0.2736167,534
0.2752833,523
0.27695,384
0.2786167,610
0.2803,525
0.28195,516
0.2836167,413
0.2852833,461
0.2869667,437
0.2886167,412
0.2902833,562
0.29195,529
0.2936167,558
0.2952833,623
0.29695,466
0.2986333,626
0.3002833,500
0.30195,576
0.3036167,484
0.3052833,445
0.30695,576
0.3086167,524
0.3102833,615
0.31195,638
0.3136167,522
0.3153,569
0.31695,578
0.3186167,464
0.3203,456
0.32195,367
0.3236167,456
0.3253,545
0.32695,552
0.3286333,482
0.3302833,491
0.33195,560
0.3336333,527
0.3352833,428
0.3369667,569
0.3386167,579
0.3402833,565
0.34195,434
0.3436167,517
0.3453,484
0.34695,454
0.3486167,486
0.3503,519
0.35195,559
0.3536333,556
0.3552833,553
0.35695,551
0.3586167,548
0.3602833,574
0.3619667,633
0.3636167,769
0.3652833,1071
0.3669667,2108
0.3686333,3002
0.3703,3916
0.3719667,5228
0.3736167,5745
0.3753,5316
0.37695,5625
0.3786333,6087
0.3802833,6491
0.3819667,6250
0.3836167,4407
0.3853,4173
0.3869667,3753
0.3886333,3204
0.3902833,2291
0.3919667,1782
0.3936167,1675
0.3953,1514
0.39695,1618
0.3986333,1038
0.4002833,1314
0.4019667,1221
0.4036333,1344
0.4053,1366
0.4069667,1365
0.4086333,1314
0.4103,1424
0.4119667,1516
0.4136167,1579
0.4153,1476
0.41695,1673
0.4186333,1827
0.4203,1839
0.4219667,1764
0.4236333,1688
0.4253,1684
0.4269667,1732
0.4286333,1678
0.4303,1695
0.4319667,1711
0.4336333,2258
0.4353,2677
0.4369667,3688
0.4386333,5479
0.4403,8452
0.4419667,12292
0.4436333,19420
0.4453,29692
0.4469667,41584
0.4486333,56384
0.4503,74368
0.4519667,94592
0.4536333,115120
0.4553,135232
0.4569667,153920
0.4586333,171712
0.4603,186432
0.4619667,204736
0.4636333,212672
0.4653,224512
0.4669667,236928
0.4686333,253888
0.4703,268608
0.4719667,284160
0.4736333,299200
0.4753,309312
0.4769667,319360
0.4786333,318720
0.4803,310272
0.4819667,297728
0.4836333,273664
0.4853,252352
0.4869667,224704
0.4886333,192256
0.4903,164096
0.4919667,136704
0.4936333,116128
0.4953,92768
0.4969667,75760
0.4986333,59136
0.5003,46144
0.5019667,38144
0.5036333,28968
0.5053,24628
0.5069667,19644
0.5086333,16524
0.5103,12444
0.5119666,10900
0.5136333,9096
0.5153,8528
0.5169666,6979
0.5186333,6834
0.5203,6371
0.5219667,5520
0.5236334,5340
0.5253,4635
0.5269667,4744
0.5286334,4402
0.5303,3879
0.5319667,3809
0.5336334,3387
0.5353,3235
0.5369667,3858
0.5386333,3592
0.5403,3504
0.5419667,2992
0.5436333,3045
0.5453,2952
0.5469667,2848
0.5486333,2727
0.5503,2499
0.5519667,2336
0.5536333,2322
0.5553,2267
0.5569667,2205
0.5586333,2149
0.5603,1975
0.5619667,2305
0.5636333,2372
0.5653,2075
0.5669667,1981
0.5686333,1837
0.5703,1719
0.5719666,1692
0.5736333,1793
0.5753,1722
0.5769666,1695
0.5786333,1667
0.5803,1705
0.5819666,1476
0.5836333,1853
0.5853,1735
0.5869667,1297
0.5886334,1654
0.5903,1502
0.5919667,1600
0.5936334,1424
0.5953,1246
0.5969667,1720
0.5986333,1721
0.6003,1538
0.6019667,1609
0.6036333,1691
0.6053,1589
0.6069667,1464
0.6086333,1325
0.6103,1356
0.6119667,1441
0.6136333,1173
0.6153,1453
0.6169667,1516
0.6186333,1502
0.6203,1421
0.6219667,1299
0.6236333,1538
0.6253,1190
0.6269667,1302
0.6286333,1143
0.6303,1160
0.6319667,1167
0.6336333,1130
0.6353,1185
0.6369666,1112
0.6386333,1022
0.6403,990
0.6419666,957
0.6436333,1026
0.6453,1235
0.6469667,1174
0.6486334,983
0.6503,931
0.6519667,982
0.6536334,899
0.6553,1014
0.6569667,949
0.6586334,932
0.6603,970
0.6619667,862
0.6636333,1000
0.6653,811
0.6669667,841
0.6686333,872
0.6703,800
0.6719667,992
0.6736333,945
0.6753,929
0.6769667,769
0.6786333,937
0.6803,859
0.6819667,934
0.6836333,762
0.6853,841
0.6869667,831
0.6886333,820
0.6903,872
0.6919667,814
0.6936333,756
0.6953,790
0.6969666,882
0.6986333,874
0.7003,817
0.7019666,774
0.7036333,798
0.7053,786
0.7069666,694
0.7086333,560
0.7103,839
0.7119667,726
0.7136334,740
0.7153,944
0.7169667,864
0.7186334,722
0.7203,678
0.7219667,665
0.7236333,702
0.7253,709
0.7269667,715
0.7286333,743
0.7303,657
0.7319667,702
0.7336333,628
0.7353,583
0.7369667,752
0.7386333,841
0.7403,846
0.7419667,775
0.7436333,813
0.7453,768
0.7469667,604
0.7486333,705
0.7503,717
0.7519667,667
0.7536333,736
0.7553,720
0.7569667,704
0.7586333,696
0.7603,688
0.7619666,718
0.7636333,748
0.7653,729
0.7669666,715
0.7686333,696
0.7703,716
0.7719667,805
0.7736334,810
0.7753,680
0.7769667,776
0.7786334,735
0.7803,784
0.7819667,694
0.7836334,613
0.7853,729
0.7869667,799
0.7886333,759
0.7903,772
0.7919667,583
0.7936333,686
0.7953,773
0.7969667,842
0.7986333,643
0.8003,627
0.8019667,725
0.8036333,770
0.8053,695
0.8069667,604
0.8086333,562
0.8103,802
0.8119667,716
0.8136333,592
0.8153,678
0.8169667,723
0.8186333,741
0.8203,756
0.8219666,602
0.8236333,771
0.8253,629
0.8269666,736
0.8286333,717
0.8303,664
0.8319666,507
0.8336333,749
0.8353,624
0.8369667,885
0.8386334,743
0.8403,693
0.8419667,737
0.8436334,778
0.8453,682
0.8469667,714
0.8486333,741
0.8503,768
0.8519667,593
0.8536333,758
0.8553,656
0.8569667,734
0.8586333,794
0.8603,793
0.8619667,760
0.8636333,760
0.8653,725
0.8669667,722
0.8686333,715
0.8703,546
0.8719667,678
0.8736333,601
0.8753,487
0.8769667,617
0.8786333,658
0.8803,1012
0.8819667,1186
0.8836333,1608
0.8853,1823
0.8869666,2052
0.8886333,1959
0.8903,2526
0.8919666,2665
0.8936333,2825
0.8953,2738
0.8969667,2797
0.8986334,2699
0.9003,2602
0.9019667,3108
0.9036334,3149
0.9053,2887
0.9069667,2914
0.9086334,3115
0.9103,2816
0.9119667,2692
0.9136333,3098
0.9153,3013
0.9169667,2971
0.9186333,2941
0.9203,2788
0.9219667,2885
0.9236333,2417
0.9253,3113
0.9269667,3002
0.9286333,2650
0.9303,2759
0.9319667,2626
0.9336333,2295
0.9353,2764
0.9369667,2337
0.9386333,2390
0.9403,2405
0.9419667,2284
0.9436333,2232
0.9453,2179
0.9469666,2028
0.9486333,1878
0.9503,2271
0.9519666,2051
0.9536333,2010
0.9553,1975
0.9569666,1612
0.9586333,1739
0.9603,1667
0.9619667,1355
0.9636334,1297
0.9653,1333
0.9669667,1285
0.9686334,1237
0.9703,1006
0.9719667,1164
0.9736333,1079
0.9753,1134
0.9769667,991
0.9786333,931
0.9803,887
0.9819667,982
0.9836333,637
0.9853,770
0.9869667,747
0.9886333,668
0.9903,536
0.9919667,716
0.9936333,604
0.9953,633
0.9969667,663
0.9986333,566
1.0003,642
1.001967,666
1.003633,625
1.0053,432
1.006967,521
1.008633,544
1.0103,658
1.011967,705
1.013633,601
1.0153,567
1.016967,590
1.018633,579
1.0203,569
1.021967,597
1.023633,589
1.0253,532
1.026967,547
1.028633,526
1.0303,490
1.031967,591
1.033633,660
1.0353,620
1.036967,520
1.038633,536
1.0403,526
1.041967,568
1.043633,610
1.0453,565
1.046967,521
1.048633,546
1.0503,565
1.051967,584
1.053633,573
1.0553,562
1.056967,570
1.058633,578
1.0603,644
1.061967,697
1.063633,674
1.0653,710
1.066967,452
1.068633,634
1.0703,509
1.071967,591
1.073633,658
1.0753,411
1.076967,746
1.078633,501
1.0803,591
1.081967,603
1.083633,746
1.0853,673
1.086967,591
1.088633,763
1.0903,675
1.091967,626
1.093633,658
1.0953,629
1.096967,600
1.098633,591
1.1003,582
1.101967,607
1.103633,542
1.1053,534
1.106967,520
1.108633,557
1.1103,560
1.111967,564
1.113633,593
1.1153,621
1.116967,642
1.118633,595
1.1203,554
1.121967,483
1.123633,486
1.1253,601
1.126967,571
1.128633,528
1.1303,576
1.131967,455
1.133633,528
1.1353,600
1.136967,599
1.138633,482
1.1403,544
1.141967,626
1.143633,473
1.1453,624
1.146967,601
1.148633,657
1.1503,754
1.151967,440
1.153633,582
1.1553,627
1.156967,576
1.158633,412
1.1603,636
1.161967,606
1.163633,632
1.1653,595
1.166967,558
1.168633,591
1.1703,585
1.171967,579
1.173633,506
1.1753,563
1.176967,621
1.178633,600
1.1803,642
1.181967,542
1.183633,585
1.1853,627
1.186967,532
1.188633,641
1.1903,637
1.191967,632
1.193633,618
1.1953,646
1.196967,599
1.198633,533
