"SampleName","A2Rd2_02-88"
"Target Mass 1",
"Column Name","IA-3 (3um, 4.6X100)"
"Channel","QDa 1: SIR Ch2"
0.00195,444
0.003616667,715
0.005283333,672
0.00695,985
0.008616666,852
0.01028333,758
0.01195,870
0.01361667,980
0.01528333,915
0.01695,925
0.01861667,1000
0.02028333,765
0.02195,961
0.02361667,914
0.02528333,902
0.02695,875
0.02861667,848
0.03028333,936
0.03195,1003
0.03361667,987
0.03528333,971
0.03695,908
0.03861667,999
0.04028333,1091
0.04195,1069
0.04361667,955
0.04528333,967
0.04695,1059
0.04861667,925
0.05028334,928
0.05195,930
0.05361667,952
0.05528333,975
0.05695,994
0.05861667,1048
0.06028333,1102
0.06195,1163
0.06361666,878
0.06528334,1056
0.06695,1042
0.06861667,985
0.07028333,1019
0.07195,957
0.07361667,1044
0.07528333,1015
0.07695,1156
0.07861666,1169
0.08028334,1037
0.08195,956
0.08361667,1069
0.08528333,970
0.08695,1017
0.08861667,916
0.09028333,779
0.09195,893
0.09361666,948
0.09528334,851
0.09695,866
0.09861667,882
0.1002833,918
0.10195,1019
0.1036167,1120
0.1052833,1147
0.10695,1086
0.1086167,991
0.1102833,976
0.11195,981
0.1136167,906
0.1152833,831
0.11695,977
0.1186167,948
0.1202833,882
0.12195,1099
0.1236167,1102
0.1252833,957
0.12695,936
0.1286167,1034
0.1302833,884
0.13195,1105
0.1336167,1057
0.1352833,932
0.13695,871
0.1386167,1099
0.1402833,926
0.14195,830
0.1436167,1109
0.1452833,869
0.14695,1117
0.1486167,925
0.1502833,1008
0.15195,1033
0.1536167,924
0.1552833,1057
0.15695,943
0.1586167,808
0.1602833,901
0.16195,710
0.1636167,833
0.1652833,956
0.16695,913
0.1686167,919
0.1702833,846
0.17195,859
0.1736167,873
0.1752833,786
0.17695,963
0.1786167,935
0.1802833,835
0.18195,947
0.1836167,1020
0.1852833,988
0.18695,960
0.1886167,915
0.1902833,980
0.19195,1045
0.1936167,1058
0.1952833,806
0.19695,1113
0.1986167,683
0.2002833,1020
0.20195,1020
0.2036167,902
0.2052833,1087
0.20695,886
0.2086167,1001
0.2102833,809
0.21195,1114
0.2136167,1062
0.2152833,1028
0.21695,1097
0.2186167,1151
0.2202833,1255
0.22195,1227
0.2236167,1095
0.2252833,1012
0.22695,981
0.2286167,1073
0.2302833,1109
0.23195,1145
0.2336167,1169
0.2352833,1145
0.23695,1109
0.2386167,1074
0.2402833,1161
0.24195,1153
0.2436167,1145
0.2452833,958
0.24695,1381
0.2486167,1281
0.2502833,1314
0.25195,1298
0.2536167,1044
0.2552833,1232
0.25695,1300
0.2586167,1288
0.2602833,1056
0.26195,1101
0.2636167,1222
0.2652833,1145
0.26695,1182
0.2686167,1173
0.2702833,1127
0.27195,1082
0.2736167,1058
0.2752833,955
0.27695,1141
0.2786167,936
0.2802833,1169
0.28195,1153
0.2836167,1068
0.2852833,906
0.28695,1121
0.2886167,958
0.2902833,1240
0.29195,1147
0.2936167,1099
0.2952833,1097
0.29695,998
0.2986333,923
0.3002833,1151
0.30195,1106
0.3036167,1241
0.3052833,1250
0.30695,1218
0.3086333,1270
0.3102833,1275
0.31195,1281
0.3136167,1133
0.3153,1245
0.31695,1356
0.3186167,1305
0.3202833,1340
0.32195,1374
0.3236167,1368
0.3252833,1248
0.32695,1302
0.3286167,1336
0.3302833,1253
0.33195,1378
0.3336333,1013
0.3353,1097
0.33695,1276
0.3386167,1173
0.3402833,1069
0.34195,1299
0.3436333,1277
0.3452833,1020
0.34695,1372
0.3486167,1228
0.3503,1081
0.3519667,1280
0.3536167,1303
0.3553,1326
0.3569667,1201
0.3586333,1255
0.3603,1379
0.36195,1358
0.3636167,1338
0.3652833,1617
0.36695,2184
0.3686333,2806
0.3703,2834
0.3719667,2739
0.3736333,2462
0.3753,2549
0.3769667,2801
0.3786333,2329
0.3803,2517
0.3819667,2774
0.3836167,2342
0.3853,2118
0.38695,2081
0.3886333,1590
0.3903,1468
0.3919667,1057
0.3936333,757
0.3953,606
0.39695,568
0.3986333,565
0.4002833,542
0.4019667,534
0.4036333,525
0.4053,436
0.4069667,688
0.4086333,649
0.4103,561
0.41195,546
0.4136333,729
0.4152833,673
0.4169667,649
0.4186333,609
0.4203,628
0.4219667,647
0.4236333,728
0.4253,766
0.4269667,850
0.4286333,837
0.4303,675
0.4319667,737
0.4336333,803
0.4353,800
0.4369667,894
0.4386333,854
0.4403,900
0.4419667,946
0.4436333,989
0.4453,946
0.4469667,1250
0.4486333,1184
0.4503,1183
0.4519667,1295
0.4536333,1346
0.4553,1323
0.4569667,1222
0.4586333,1107
0.4603,1174
0.4619667,1444
0.4636333,1700
0.4653,1577
0.4669667,1437
0.4686333,1383
0.4703,1587
0.4719667,1622
0.4736333,1656
0.4753,1485
0.4769667,1540
0.4786333,1568
0.4803,1549
0.4819667,1530
0.4836333,1470
0.4853,1461
0.4869667,1453
0.4886333,1446
0.4903,1423
0.4919667,1399
0.4936333,1270
0.4953,1373
0.4969667,1147
0.4986333,1348
0.5003,1106
0.5019667,1108
0.5036333,1036
0.5053,1051
0.5069667,1067
0.5086333,968
0.5103,964
0.5119666,764
0.5136333,954
0.5153,1033
0.5169666,856
0.5186333,1065
0.5203,1152
0.5219667,1222
0.5236334,948
0.5253,876
0.5269667,868
0.5286334,909
0.5303,950
0.5319667,955
0.5336334,960
0.5353,961
0.5369667,940
0.5386333,985
0.5403,891
0.5419667,879
0.5436333,983
0.5453,961
0.5469667,879
0.5486333,837
0.5503,971
0.5519667,945
0.5536333,952
0.5553,959
0.5569667,973
0.5586333,935
0.5603,896
0.5619667,989
0.5636333,860
0.5653,839
0.5669667,1018
0.5686333,1067
0.5703,908
0.5719666,917
0.5736333,952
0.5753,850
0.5769666,986
0.5786333,923
0.5803,943
0.5819666,1101
0.5836333,977
0.5853,852
0.5869667,944
0.5886334,831
0.5903,922
0.5919667,1018
0.5936334,994
0.5953,1061
0.5969667,1008
0.5986333,973
0.6003,1081
0.6019667,964
0.6036333,963
0.6053,1057
0.6069667,987
0.6086333,967
0.6103,928
0.6119667,965
0.6136333,956
0.6153,948
0.6169667,1004
0.6186333,1000
0.6203,790
0.6219667,1102
0.6236333,868
0.6253,962
0.6269667,980
0.6286333,976
0.6303,972
0.6319667,971
0.6336333,969
0.6353,915
0.6369666,976
0.6386333,1059
0.6403,732
0.6419666,963
0.6436333,956
0.6453,1118
0.6469667,755
0.6486334,796
0.6503,1051
0.6519667,962
0.6536334,858
0.6553,862
0.6569667,963
0.6586334,989
0.6603,939
0.6619667,846
0.6636333,797
0.6653,758
0.6669667,745
0.6686333,804
0.6703,691
0.6719667,801
0.6736333,912
0.6753,952
0.6769667,818
0.6786333,861
0.6803,885
0.6819667,909
0.6836333,647
0.6853,1075
0.6869667,991
0.6886333,746
0.6903,973
0.6919667,897
0.6936333,874
0.6953,798
0.6969666,675
0.6986333,736
0.7003,766
0.7019666,917
0.7036333,912
0.7053,913
0.7069666,868
0.7086333,912
0.7103,726
0.7119667,797
0.7136334,722
0.7153,775
0.7169667,829
0.7186334,743
0.7203,716
0.7219667,689
0.7236333,944
0.7253,926
0.7269667,1109
0.7286333,1025
0.7303,1090
0.7319667,828
0.7336333,983
0.7353,861
0.7369667,911
0.7386333,803
0.7403,925
0.7419667,941
0.7436333,862
0.7453,928
0.7469667,936
0.7486333,944
0.7503,895
0.7519667,801
0.7536333,937
0.7553,883
0.7569667,939
0.7586333,771
0.7603,831
0.7619666,782
0.7636333,801
0.7653,820
0.7669666,1012
0.7686333,973
0.7703,934
0.7719667,917
0.7736334,832
0.7753,865
0.7769667,898
0.7786334,826
0.7803,776
0.7819667,726
0.7836334,864
0.7853,793
0.7869667,832
0.7886333,818
0.7903,804
0.7919667,836
0.7936333,869
0.7953,885
0.7969667,902
0.7986333,868
0.8003,936
0.8019667,968
0.8036333,802
0.8053,840
0.8069667,859
0.8086333,879
0.8103,813
0.8119667,747
0.8136333,985
0.8153,913
0.8169667,957
0.8186333,845
0.8203,992
0.8219666,827
0.8236333,885
0.8253,944
0.8269666,1008
0.8286333,1012
0.8303,981
0.8319666,1056
0.8336333,919
0.8353,979
0.8369667,780
0.8386334,972
0.8403,736
0.8419667,1008
0.8436334,767
0.8453,949
0.8469667,895
0.8486333,816
0.8503,782
0.8519667,801
0.8536333,820
0.8553,823
0.8569667,825
0.8586333,810
0.8603,795
0.8619667,795
0.8636333,795
0.8653,800
0.8669667,805
0.8686333,687
0.8703,777
0.8719667,868
0.8736333,896
0.8753,817
0.8769667,854
0.8786333,878
0.8803,902
0.8819667,697
0.8836333,1211
0.8853,1113
0.8869666,1461
0.8886333,1227
0.8903,1245
0.8919666,1535
0.8936333,1460
0.8953,1415
0.8969667,1232
0.8986334,1483
0.9003,1315
0.9019667,1318
0.9036334,1320
0.9053,1245
0.9069667,1169
0.9086334,1445
0.9103,1492
0.9119667,1312
0.9136333,1155
0.9153,1162
0.9169667,1153
0.9186333,1250
0.9203,1347
0.9219667,1368
0.9236333,1341
0.9253,1315
0.9269667,1256
0.9286333,1503
0.9303,1475
0.9319667,1651
0.9336333,1148
0.9353,1255
0.9369667,1456
0.9386333,1339
0.9403,1336
0.9419667,1372
0.9436333,1328
0.9453,1284
0.9469666,1204
0.9486333,1294
0.9503,1270
0.9519666,1246
0.9536333,1180
0.9553,1257
0.9569666,1107
0.9586333,1034
0.9603,1061
0.9619667,1105
0.9636334,1106
0.9653,1108
0.9669667,929
0.9686334,1192
0.9703,1095
0.9719667,1144
0.9736333,1141
0.9753,984
0.9769667,1033
0.9786333,1167
0.9803,1185
0.9819667,999
0.9836333,973
0.9853,861
0.9869667,1004
0.9886333,843
0.9903,813
0.9919667,889
0.9936333,826
0.9953,739
0.9969667,653
0.9986333,719
1.0003,786
1.001967,994
1.003633,908
1.0053,808
1.006967,790
1.008633,735
1.0103,758
1.011967,781
1.013633,780
1.0153,812
1.016967,831
1.018633,851
1.0203,887
1.021967,913
1.023633,940
1.0253,909
1.026967,879
1.028633,952
1.0303,976
1.031967,779
1.033633,798
1.0353,906
1.036967,716
1.038633,827
1.0403,851
1.041967,849
1.043633,848
1.0453,872
1.046967,925
1.048633,888
1.0503,851
1.051967,939
1.053633,1017
1.0553,1050
1.056967,1029
1.058633,890
1.0603,1133
1.061967,772
1.063633,881
1.0653,1079
1.066967,789
1.068633,964
1.0703,839
1.071967,694
1.073633,989
1.0753,897
1.076967,886
1.078633,870
1.0803,870
1.081967,767
1.083633,881
1.0853,940
1.086967,902
1.088633,843
1.0903,873
1.091967,886
1.093633,849
1.0953,813
1.096967,866
1.098633,921
1.1003,920
1.101967,909
1.103633,792
1.1053,703
1.106967,834
1.108633,743
1.1103,923
1.111967,878
1.113633,723
1.1153,883
1.116967,835
1.118633,928
1.1203,836
1.121967,870
1.123633,832
1.1253,819
1.126967,806
1.128633,870
1.1303,887
1.131967,851
1.133633,885
1.1353,800
1.136967,806
1.138633,832
1.1403,858
1.141967,861
1.143633,993
1.1453,958
1.146967,922
1.148633,767
1.1503,945
1.151967,972
1.153633,1031
1.1553,768
1.156967,972
1.158633,892
1.1603,854
1.161967,884
1.163633,882
1.1653,880
1.166967,921
1.168633,893
1.1703,864
1.171967,911
1.173633,916
1.1753,921
1.176967,928
1.178633,803
1.1803,873
1.181967,906
1.183633,852
1.1853,891
1.186967,930
1.188633,805
1.1903,984
1.191967,900
1.193633,984
1.1953,711
1.196967,924
1.198633,1112
