"SampleName","A2Rd2_02-60"
"Target Mass 1",
"Column Name","IA-3 (3um, 4.6X100)"
"Channel","QDa 1: SIR Ch1"
0.00195,476
0.003616667,453
0.005283333,514
0.00695,404
0.008616666,393
0.01028333,456
0.01195,431
0.01361667,415
0.01528333,398
0.01695,426
0.01861667,390
0.02028333,354
0.02195,482
0.02361667,559
0.02528333,558
0.02695,419
0.02861667,445
0.03028333,468
0.03195,491
0.03361667,482
0.03528333,438
0.03695,481
0.03861667,438
0.04028333,418
0.04195,426
0.04361667,434
0.04528333,528
0.04695,524
0.04861667,491
0.05028334,404
0.05195,445
0.05361667,380
0.05528333,376
0.05695,382
0.05861667,480
0.06028333,484
0.06195,547
0.06361666,443
0.06528334,414
0.06695,488
0.06861667,509
0.07028333,408
0.07195,424
0.07361667,439
0.07528333,412
0.07695,386
0.07861666,498
0.08028334,453
0.08195,409
0.08361667,444
0.08528333,409
0.08695,471
0.08861667,508
0.09028333,380
0.09195,517
0.09361666,408
0.09528334,463
0.09695,470
0.09861667,478
0.1002833,406
0.10195,441
0.1036167,540
0.1052833,529
0.10695,488
0.1086167,448
0.1102833,504
0.11195,321
0.1136167,485
0.1152833,553
0.11695,349
0.1186167,416
0.1202833,399
0.12195,409
0.1236167,419
0.1252833,473
0.12695,493
0.1286167,479
0.1302833,464
0.13195,373
0.1336167,456
0.1352833,398
0.13695,424
0.1386167,449
0.1402833,400
0.14195,449
0.1436167,396
0.1452833,289
0.14695,497
0.1486167,365
0.1502833,435
0.15195,491
0.1536167,525
0.1552833,403
0.15695,506
0.1586167,469
0.1602833,458
0.16195,351
0.1636167,489
0.1652833,550
0.16695,426
0.1686167,529
0.1702833,484
0.17195,394
0.1736167,536
0.1752833,415
0.17695,433
0.1786167,403
0.1802833,373
0.18195,358
0.1836167,343
0.1852833,458
0.18695,468
0.1886167,512
0.1902833,425
0.19195,352
0.1936167,307
0.1952833,368
0.19695,400
0.1986167,366
0.2002833,485
0.20195,495
0.2036167,362
0.2052833,459
0.20695,415
0.2086167,477
0.2102833,507
0.21195,487
0.2136167,467
0.2152833,446
0.21695,373
0.2186167,513
0.2202833,376
0.22195,337
0.2236167,427
0.2252833,432
0.22695,437
0.2286167,438
0.2302833,439
0.23195,434
0.2336167,429
0.2352833,423
0.23695,423
0.2386167,352
0.2402833,507
0.24195,475
0.2436167,572
0.2452833,398
0.24695,363
0.2486167,502
0.2502833,433
0.25195,384
0.2536167,424
0.2552833,344
0.25695,370
0.2586167,396
0.2602833,391
0.26195,451
0.2636333,479
0.2652833,439
0.26695,400
0.2686167,464
0.2702833,452
0.27195,454
0.2736167,422
0.2752833,389
0.2769667,419
0.2786167,374
0.2803,300
0.28195,523
0.2836167,514
0.2852833,408
0.28695,481
0.2886167,564
0.2902833,541
0.29195,479
0.2936167,539
0.2952833,453
0.29695,498
0.2986333,532
0.3002833,260
0.30195,526
0.3036167,599
0.3053,521
0.30695,376
0.3086167,579
0.3102833,373
0.31195,378
0.3136333,380
0.3153,422
0.31695,464
0.3186167,453
0.3202833,557
0.3219667,526
0.3236167,513
0.3252833,499
0.3269667,509
0.3286167,519
0.3303,568
0.33195,610
0.3336333,641
0.3352833,628
0.3369667,615
0.3386333,558
0.3402833,439
0.34195,304
0.3436167,447
0.3452833,342
0.3469667,454
0.3486167,457
0.3503,537
0.3519667,324
0.3536167,522
0.3553,562
0.35695,586
0.3586333,366
0.3602833,498
0.3619667,716
0.3636333,780
0.3653,1219
0.36695,1873
0.3686333,2884
0.3702833,3729
0.3719667,4436
0.3736167,4542
0.3753,4637
0.3769667,4541
0.3786333,4444
0.3803,5000
0.38195,5206
0.3836333,5464
0.3853,5632
0.3869667,4528
0.3886333,3457
0.3903,3003
0.3919667,2572
0.3936333,2209
0.3952833,1875
0.3969667,1550
0.3986333,1200
0.4003,1242
0.40195,1003
0.4036333,909
0.4053,1109
0.4069667,960
0.4086333,689
0.4103,774
0.4119667,644
0.4136333,691
0.4153,699
0.4169667,718
0.4186333,700
0.4203,681
0.4219667,674
0.4236333,655
0.4253,685
0.4269667,715
0.4286333,863
0.4303,947
0.4319667,1282
0.4336333,1611
0.4353,2793
0.4369667,4671
0.4386333,8131
0.4403,12868
0.4419667,21364
0.4436333,33856
0.4453,45296
0.4469667,64576
0.4486333,81040
0.4503,98944
0.4519667,117664
0.4536333,135744
0.4553,147520
0.4569667,161600
0.4586333,167232
0.4603,172928
0.4619667,178752
0.4636333,177088
0.4653,180224
0.4669667,185024
0.4686333,190912
0.4703,197376
0.4719667,200064
0.4736333,208448
0.4753,219584
0.4769667,221440
0.4786333,220224
0.4803,220992
0.4819667,211008
0.4836333,199808
0.4853,183104
0.4869667,162304
0.4886333,145216
0.4903,126192
0.4919667,106240
0.4936333,88032
0.4953,76352
0.4969667,64096
0.4986333,51184
0.5003,40480
0.5019667,34112
0.5036333,27136
0.5053,22440
0.5069667,18184
0.5086333,14412
0.5103,12628
0.5119666,10180
0.5136333,9080
0.5153,7557
0.5169666,7009
0.5186333,5730
0.5203,5119
0.5219667,4687
0.5236334,4623
0.5253,4150
0.5269667,3936
0.5286334,3607
0.5303,3261
0.5319667,3624
0.5336334,3592
0.5353,2977
0.5369667,2380
0.5386333,2603
0.5403,2596
0.5419667,2338
0.5436333,2571
0.5453,2561
0.5469667,2076
0.5486333,1990
0.5503,1987
0.5519667,1957
0.5536333,2303
0.5553,2344
0.5569667,1841
0.5586333,1711
0.5603,1912
0.5619667,1786
0.5636333,1659
0.5653,1886
0.5669667,1643
0.5686333,1325
0.5703,1246
0.5719666,1425
0.5736333,1219
0.5753,1287
0.5769666,1426
0.5786333,1392
0.5803,1257
0.5819666,1187
0.5836333,1349
0.5853,1227
0.5869667,1118
0.5886334,1135
0.5903,1223
0.5919667,1311
0.5936334,1306
0.5953,1154
0.5969667,1137
0.5986333,1146
0.6003,1149
0.6019667,1152
0.6036333,1090
0.6053,1089
0.6069667,1088
0.6086333,1000
0.6103,914
0.6119667,841
0.6136333,1062
0.6153,1086
0.6169667,1117
0.6186333,978
0.6203,1038
0.6219667,1007
0.6236333,868
0.6253,918
0.6269667,810
0.6286333,819
0.6303,861
0.6319667,819
0.6336333,778
0.6353,840
0.6369666,902
0.6386333,910
0.6403,692
0.6419666,693
0.6436333,822
0.6453,735
0.6469667,649
0.6486334,765
0.6503,766
0.6519667,767
0.6536334,788
0.6553,819
0.6569667,851
0.6586334,675
0.6603,730
0.6619667,723
0.6636333,671
0.6653,792
0.6669667,783
0.6686333,584
0.6703,762
0.6719667,883
0.6736333,756
0.6753,801
0.6769667,679
0.6786333,804
0.6803,576
0.6819667,691
0.6836333,659
0.6853,497
0.6869667,789
0.6886333,704
0.6903,653
0.6919667,703
0.6936333,654
0.6953,560
0.6969666,632
0.6986333,676
0.7003,710
0.7019666,714
0.7036333,634
0.7053,589
0.7069666,593
0.7086333,587
0.7103,600
0.7119667,609
0.7136334,651
0.7153,537
0.7169667,592
0.7186334,646
0.7203,651
0.7219667,598
0.7236333,562
0.7253,520
0.7269667,658
0.7286333,643
0.7303,650
0.7319667,525
0.7336333,674
0.7353,601
0.7369667,509
0.7386333,599
0.7403,550
0.7419667,500
0.7436333,481
0.7453,541
0.7469667,575
0.7486333,609
0.7503,492
0.7519667,505
0.7536333,561
0.7553,575
0.7569667,589
0.7586333,599
0.7603,610
0.7619666,644
0.7636333,678
0.7653,683
0.7669666,582
0.7686333,583
0.7703,652
0.7719667,690
0.7736334,640
0.7753,590
0.7769667,469
0.7786334,614
0.7803,582
0.7819667,508
0.7836334,558
0.7853,554
0.7869667,551
0.7886333,453
0.7903,523
0.7919667,552
0.7936333,575
0.7953,598
0.7969667,395
0.7986333,571
0.8003,511
0.8019667,537
0.8036333,517
0.8053,505
0.8069667,493
0.8086333,515
0.8103,537
0.8119667,442
0.8136333,540
0.8153,526
0.8169667,512
0.8186333,508
0.8203,518
0.8219666,477
0.8236333,514
0.8253,527
0.8269666,615
0.8286333,599
0.8303,552
0.8319666,436
0.8336333,498
0.8353,708
0.8369667,656
0.8386334,469
0.8403,506
0.8419667,567
0.8436334,531
0.8453,403
0.8469667,460
0.8486333,502
0.8503,453
0.8519667,534
0.8536333,581
0.8553,608
0.8569667,471
0.8586333,615
0.8603,427
0.8619667,462
0.8636333,662
0.8653,568
0.8669667,403
0.8686333,503
0.8703,416
0.8719667,474
0.8736333,534
0.8753,526
0.8769667,871
0.8786333,878
0.8803,938
0.8819667,758
0.8836333,903
0.8853,1039
0.8869666,960
0.8886333,915
0.8903,959
0.8919666,1053
0.8936333,756
0.8953,980
0.8969667,872
0.8986334,870
0.9003,1011
0.9019667,827
0.9036334,1001
0.9053,853
0.9069667,840
0.9086334,828
0.9103,928
0.9119667,933
0.9136333,938
0.9153,956
0.9169667,872
0.9186333,863
0.9203,925
0.9219667,893
0.9236333,889
0.9253,917
0.9269667,921
0.9286333,924
0.9303,939
0.9319667,863
0.9336333,960
0.9353,897
0.9369667,895
0.9386333,837
0.9403,896
0.9419667,726
0.9436333,877
0.9453,936
0.9469666,773
0.9486333,926
0.9503,749
0.9519666,929
0.9536333,853
0.9553,780
0.9569666,708
0.9586333,862
0.9603,860
0.9619667,764
0.9636334,718
0.9653,715
0.9669667,587
0.9686334,606
0.9703,713
0.9719667,588
0.9736333,714
0.9753,658
0.9769667,748
0.9786333,661
0.9803,607
0.9819667,419
0.9836333,718
0.9853,424
0.9869667,522
0.9886333,490
0.9903,477
0.9919667,463
0.9936333,383
0.9953,371
0.9969667,488
0.9986333,448
1.0003,363
1.001967,541
1.003633,490
1.0053,463
1.006967,466
1.008633,344
1.0103,531
1.011967,438
1.013633,530
1.0153,466
1.016967,402
1.018633,421
1.0203,384
1.021967,348
1.023633,499
1.0253,457
1.026967,364
1.028633,544
1.0303,527
1.031967,440
1.033633,548
1.0353,517
1.036967,486
1.038633,527
1.0403,423
1.041967,464
1.043633,509
1.0453,361
1.046967,453
1.048633,390
1.0503,459
1.051967,452
1.053633,425
1.0553,352
1.056967,279
1.058633,335
1.0603,454
1.061967,506
1.063633,397
1.0653,426
1.066967,510
1.068633,338
1.0703,418
1.071967,447
1.073633,484
1.0753,447
1.076967,410
1.078633,466
1.0803,427
1.081967,341
1.083633,409
1.0853,491
1.086967,530
1.088633,402
1.0903,477
1.091967,403
1.093633,397
1.0953,392
1.096967,429
1.098633,466
1.1003,453
1.101967,440
1.103633,472
1.1053,453
1.106967,435
1.108633,329
1.1103,461
1.111967,436
1.113633,483
1.1153,456
1.116967,408
1.118633,476
1.1203,462
1.121967,506
1.123633,494
1.1253,483
1.126967,559
1.128633,523
1.1303,486
1.131967,409
1.133633,411
1.1353,420
1.136967,414
1.138633,408
1.1403,430
1.141967,389
1.143633,348
1.1453,452
1.146967,492
1.148633,520
1.1503,488
1.151967,459
1.153633,440
1.1553,439
1.156967,500
1.158633,460
1.1603,421
1.161967,554
1.163633,503
1.1653,527
1.166967,474
1.168633,495
1.1703,547
1.171967,378
1.173633,385
1.1753,404
1.176967,447
1.178633,438
1.1803,450
1.181967,442
1.183633,434
1.1853,474
1.186967,477
1.188633,481
1.1903,459
1.191967,487
1.193633,477
1.1953,459
1.196967,442
1.198633,446
