"SampleName","A2Rd2_02-20"
"Target Mass 1",
"Column Name","IA-3 (3um, 4.6X100)"
"Channel","QDa 1: SIR Ch1"
0.00195,385
0.003616667,494
0.005283333,538
0.00695,707
0.008616666,617
0.01028333,593
0.01195,591
0.01361667,545
0.01528333,528
0.01695,511
0.01861667,551
0.02028333,444
0.02195,528
0.02361667,650
0.02528333,613
0.02695,487
0.02861667,372
0.03028333,457
0.03195,492
0.03361667,528
0.03528333,530
0.03695,550
0.03861667,487
0.04028333,498
0.04195,614
0.04361667,671
0.04528333,630
0.04695,510
0.04861667,504
0.05028334,570
0.05195,523
0.05361667,519
0.05528333,559
0.05695,551
0.05861667,540
0.06028333,529
0.06195,518
0.06361666,580
0.06528334,642
0.06695,656
0.06861667,436
0.07028333,589
0.07195,527
0.07361667,531
0.07528333,621
0.07695,579
0.07861666,566
0.08028334,635
0.08195,609
0.08361667,595
0.08528333,563
0.08695,553
0.08861667,544
0.09028333,531
0.09195,456
0.09361666,472
0.09528334,453
0.09695,563
0.09861667,547
0.1002833,601
0.10195,596
0.1036167,503
0.1052833,575
0.10695,637
0.1086167,588
0.1102833,487
0.11195,535
0.1136167,584
0.1152833,548
0.11695,512
0.1186167,543
0.1202833,597
0.12195,418
0.1236167,616
0.1252833,479
0.12695,515
0.1286167,570
0.1302833,542
0.13195,578
0.1336167,581
0.1352833,583
0.13695,588
0.1386167,606
0.1402833,434
0.14195,671
0.1436167,591
0.1452833,615
0.14695,626
0.1486167,534
0.1502833,460
0.15195,597
0.1536167,479
0.1552833,510
0.15695,432
0.1586167,451
0.1602833,470
0.16195,618
0.1636167,640
0.1652833,601
0.16695,546
0.1686167,557
0.1702833,568
0.17195,415
0.1736167,453
0.1752833,492
0.17695,535
0.1786167,543
0.1802833,518
0.18195,492
0.1836167,612
0.1852833,415
0.18695,585
0.1886167,523
0.1902833,657
0.19195,499
0.1936167,398
0.1952833,562
0.19695,522
0.1986167,620
0.2002833,526
0.20195,564
0.2036167,580
0.2052833,596
0.20695,578
0.2086167,585
0.2102833,592
0.21195,545
0.2136167,457
0.2152833,508
0.21695,511
0.2186167,517
0.2202833,511
0.22195,505
0.2236167,557
0.2252833,526
0.22695,496
0.2286167,472
0.2302833,447
0.23195,366
0.2336167,524
0.2352833,573
0.23695,428
0.2386167,571
0.2402833,578
0.24195,497
0.2436167,494
0.2452833,529
0.24695,504
0.2486167,477
0.2502833,538
0.25195,449
0.2536167,545
0.2552833,590
0.25695,552
0.2586167,536
0.2602833,560
0.26195,530
0.2636333,540
0.2652833,403
0.26695,454
0.2686167,501
0.2702833,489
0.27195,494
0.2736167,499
0.2753,444
0.27695,467
0.2786167,490
0.2803,483
0.28195,475
0.2836167,471
0.2852833,466
0.28695,525
0.2886167,614
0.2902833,650
0.29195,563
0.2936167,663
0.2952833,464
0.29695,499
0.2986333,615
0.3002833,574
0.30195,663
0.3036167,620
0.3052833,545
0.30695,411
0.3086167,640
0.3102833,548
0.31195,503
0.3136167,497
0.3153,606
0.3169667,626
0.3186167,632
0.3203,724
0.32195,485
0.3236167,619
0.3253,500
0.32695,475
0.3286167,527
0.3302833,520
0.33195,514
0.3336333,594
0.3352833,622
0.3369667,573
0.3386167,472
0.3402833,491
0.3419667,597
0.3436167,540
0.3452833,482
0.34695,634
0.3486167,502
0.3503,650
0.35195,640
0.3536333,558
0.3552833,564
0.3569667,647
0.3586333,746
0.3602833,696
0.36195,775
0.3636167,1004
0.3652833,1191
0.3669667,1932
0.3686333,2659
0.3703,3811
0.3719667,3607
0.3736333,4247
0.3753,4084
0.37695,4723
0.3786167,4658
0.3802833,4594
0.38195,5040
0.3836333,4135
0.3853,3613
0.3869667,3178
0.3886333,3041
0.3903,2249
0.3919667,1895
0.3936333,1739
0.3952833,1580
0.39695,1153
0.3986167,1350
0.4003,1469
0.4019667,1201
0.4036333,1115
0.4053,1069
0.4069667,1118
0.4086333,1167
0.4103,1253
0.4119667,1214
0.4136333,1176
0.4153,1486
0.4169667,1413
0.4186333,1590
0.4203,1567
0.4219667,1544
0.4236333,1324
0.4253,1600
0.4269667,1808
0.4286333,1630
0.4303,1685
0.4319667,2116
0.4336333,2546
0.4353,2826
0.4369667,4767
0.4386333,8023
0.4403,12172
0.4419667,18076
0.4436333,27192
0.4453,38128
0.4469667,49792
0.4486333,63904
0.4503,80912
0.4519667,93136
0.4536333,111344
0.4553,124480
0.4569667,136768
0.4586333,146112
0.4603,155264
0.4619667,162304
0.4636333,165184
0.4653,173504
0.4669667,179584
0.4686333,190592
0.4703,199104
0.4719667,214464
0.4736333,227008
0.4753,230400
0.4769667,238528
0.4786333,230848
0.4803,225216
0.4819667,207936
0.4836333,188416
0.4853,165248
0.4869667,144704
0.4886333,122688
0.4903,102880
0.4919667,83920
0.4936333,68832
0.4953,55008
0.4969667,43376
0.4986333,35264
0.5003,27504
0.5019667,21164
0.5036333,17152
0.5053,14180
0.5069667,11860
0.5086333,9016
0.5103,7865
0.5119666,6961
0.5136333,5998
0.5153,5549
0.5169666,5157
0.5186333,4524
0.5203,4334
0.5219667,3792
0.5236334,3947
0.5253,3344
0.5269667,3508
0.5286334,3482
0.5303,3443
0.5319667,2683
0.5336334,2820
0.5353,2611
0.5369667,2590
0.5386333,2577
0.5403,2228
0.5419667,2558
0.5436333,2513
0.5453,2801
0.5469667,2086
0.5486333,1896
0.5503,2110
0.5519667,1873
0.5536333,2126
0.5553,1767
0.5569667,1730
0.5586333,2027
0.5603,1632
0.5619667,1998
0.5636333,1806
0.5653,1502
0.5669667,1467
0.5686333,1341
0.5703,1388
0.5719666,1435
0.5736333,1495
0.5753,1274
0.5769666,1528
0.5786333,1383
0.5803,1626
0.5819666,1219
0.5836333,1276
0.5853,1210
0.5869667,1384
0.5886334,1420
0.5903,1162
0.5919667,1224
0.5936334,1335
0.5953,1281
0.5969667,1227
0.5986333,1322
0.6003,1324
0.6019667,1326
0.6036333,1372
0.6053,1374
0.6069667,1445
0.6086333,1383
0.6103,1321
0.6119667,1471
0.6136333,1468
0.6153,1465
0.6169667,1304
0.6186333,1395
0.6203,1198
0.6219667,1116
0.6236333,1254
0.6253,1187
0.6269667,1241
0.6286333,1228
0.6303,1065
0.6319667,1074
0.6336333,1129
0.6353,1105
0.6369666,1080
0.6386333,876
0.6403,941
0.6419666,999
0.6436333,973
0.6453,947
0.6469667,925
0.6486334,902
0.6503,825
0.6519667,887
0.6536334,950
0.6553,977
0.6569667,863
0.6586334,883
0.6603,802
0.6619667,746
0.6636333,1039
0.6653,993
0.6669667,821
0.6686333,821
0.6703,788
0.6719667,1033
0.6736333,1071
0.6753,720
0.6769667,885
0.6786333,847
0.6803,881
0.6819667,760
0.6836333,815
0.6853,941
0.6869667,730
0.6886333,1032
0.6903,871
0.6919667,795
0.6936333,766
0.6953,783
0.6969666,801
0.6986333,749
0.7003,698
0.7019666,651
0.7036333,658
0.7053,610
0.7069666,563
0.7086333,629
0.7103,695
0.7119667,692
0.7136334,709
0.7153,624
0.7169667,540
0.7186334,742
0.7203,718
0.7219667,695
0.7236333,713
0.7253,732
0.7269667,733
0.7286333,733
0.7303,592
0.7319667,709
0.7336333,793
0.7353,761
0.7369667,739
0.7386333,700
0.7403,781
0.7419667,742
0.7436333,704
0.7453,624
0.7469667,794
0.7486333,836
0.7503,743
0.7519667,736
0.7536333,721
0.7553,676
0.7569667,802
0.7586333,616
0.7603,641
0.7619666,769
0.7636333,723
0.7653,677
0.7669666,667
0.7686333,720
0.7703,725
0.7719667,708
0.7736334,690
0.7753,695
0.7769667,699
0.7786334,702
0.7803,693
0.7819667,683
0.7836334,707
0.7853,687
0.7869667,666
0.7886333,709
0.7903,662
0.7919667,615
0.7936333,564
0.7953,753
0.7969667,786
0.7986333,805
0.8003,727
0.8019667,607
0.8036333,690
0.8053,623
0.8069667,639
0.8086333,653
0.8103,761
0.8119667,739
0.8136333,690
0.8153,651
0.8169667,676
0.8186333,704
0.8203,604
0.8219666,607
0.8236333,627
0.8253,616
0.8269666,617
0.8286333,755
0.8303,710
0.8319666,664
0.8336333,658
0.8353,673
0.8369667,629
0.8386334,692
0.8403,692
0.8419667,640
0.8436334,617
0.8453,787
0.8469667,745
0.8486333,581
0.8503,642
0.8519667,700
0.8536333,775
0.8553,802
0.8569667,603
0.8586333,600
0.8603,673
0.8619667,656
0.8636333,640
0.8653,624
0.8669667,635
0.8686333,646
0.8703,541
0.8719667,541
0.8736333,552
0.8753,563
0.8769667,726
0.8786333,687
0.8803,762
0.8819667,1062
0.8836333,1305
0.8853,1610
0.8869666,1458
0.8886333,2138
0.8903,2458
0.8919666,2256
0.8936333,2311
0.8953,2480
0.8969667,2524
0.8986334,2600
0.9003,2652
0.9019667,2705
0.9036334,2722
0.9053,2739
0.9069667,2632
0.9086334,2712
0.9103,2653
0.9119667,2496
0.9136333,2852
0.9153,3004
0.9169667,3130
0.9186333,2672
0.9203,2884
0.9219667,3047
0.9236333,2592
0.9253,2642
0.9269667,3040
0.9286333,2907
0.9303,2632
0.9319667,2616
0.9336333,2427
0.9353,2489
0.9369667,2400
0.9386333,2336
0.9403,2238
0.9419667,2079
0.9436333,2167
0.9453,2254
0.9469666,2180
0.9486333,2025
0.9503,2134
0.9519666,2118
0.9536333,1885
0.9553,1611
0.9569666,1611
0.9586333,1750
0.9603,1643
0.9619667,1662
0.9636334,1539
0.9653,1094
0.9669667,1143
0.9686334,1006
0.9703,1204
0.9719667,985
0.9736333,892
0.9753,1042
0.9769667,750
0.9786333,891
0.9803,959
0.9819667,894
0.9836333,844
0.9853,751
0.9869667,637
0.9886333,751
0.9903,584
0.9919667,757
0.9936333,524
0.9953,649
0.9969667,717
0.9986333,701
1.0003,573
1.001967,477
1.003633,679
1.0053,484
1.006967,490
1.008633,520
1.0103,490
1.011967,512
1.013633,534
1.0153,476
1.016967,654
1.018633,648
1.0203,487
1.021967,499
1.023633,482
1.0253,506
1.026967,459
1.028633,412
1.0303,566
1.031967,542
1.033633,545
1.0353,548
1.036967,551
1.038633,542
1.0403,534
1.041967,479
1.043633,590
1.0453,672
1.046967,612
1.048633,586
1.0503,622
1.051967,615
1.053633,637
1.0553,629
1.056967,630
1.058633,689
1.0603,456
1.061967,615
1.063633,571
1.0653,747
1.066967,655
1.068633,559
1.0703,547
1.071967,622
1.073633,754
1.0753,706
1.076967,638
1.078633,664
1.0803,621
1.081967,555
1.083633,466
1.0853,595
1.086967,492
1.088633,486
1.0903,481
1.091967,620
1.093633,610
1.0953,653
1.096967,590
1.098633,546
1.1003,631
1.101967,655
1.103633,476
1.1053,711
1.106967,556
1.108633,703
1.1103,701
1.111967,557
1.113633,528
1.1153,545
1.116967,556
1.118633,567
1.1203,577
1.121967,586
1.123633,599
1.1253,611
1.126967,624
1.128633,518
1.1303,638
1.131967,480
1.133633,520
1.1353,500
1.136967,481
1.138633,487
1.1403,493
1.141967,520
1.143633,547
1.1453,574
1.146967,595
1.148633,616
1.1503,653
1.151967,644
1.153633,680
1.1553,686
1.156967,565
1.158633,666
1.1603,504
1.161967,574
1.163633,673
1.1653,497
1.166967,529
1.168633,689
1.1703,639
1.171967,660
1.173633,604
1.1753,526
1.176967,397
1.178633,606
1.1803,498
1.181967,612
1.183633,516
1.1853,491
1.186967,528
1.188633,566
1.1903,603
1.191967,640
1.193633,643
1.1953,550
1.196967,575
1.198633,648
