"SampleName","A2Rd2_02-57"
"Target Mass 1",
"Column Name","IA-3 (3um, 4.6X100)"
"Channel","QDa 1: SIR Ch1"
0.00195,320
0.003616667,453
0.005283333,502
0.00695,417
0.008616666,451
0.01028333,475
0.01195,499
0.01361667,473
0.01528333,415
0.01695,501
0.01861667,458
0.02028333,467
0.02195,476
0.02361667,458
0.02528333,377
0.02695,459
0.02861667,421
0.03028333,473
0.03195,469
0.03361667,466
0.03528333,478
0.03695,515
0.03861667,552
0.04028333,402
0.04195,526
0.04361667,440
0.04528333,421
0.04695,505
0.04861667,501
0.05028334,470
0.05195,477
0.05361667,472
0.05528333,480
0.05695,340
0.05861667,485
0.06028333,499
0.06195,477
0.06361666,322
0.06528334,504
0.06695,583
0.06861667,505
0.07028333,376
0.07195,455
0.07361667,444
0.07528333,433
0.07695,464
0.07861666,481
0.08028334,512
0.08195,486
0.08361667,459
0.08528333,493
0.08695,528
0.08861667,513
0.09028333,465
0.09195,485
0.09361666,464
0.09528334,456
0.09695,447
0.09861667,553
0.1002833,563
0.10195,431
0.1036167,422
0.1052833,358
0.10695,364
0.1086167,435
0.1102833,420
0.11195,404
0.1136167,422
0.1152833,427
0.11695,427
0.1186167,402
0.1202833,378
0.12195,448
0.1236167,451
0.1252833,455
0.12695,533
0.1286167,498
0.1302833,464
0.13195,519
0.1336167,450
0.1352833,505
0.13695,455
0.1386167,457
0.1402833,416
0.14195,422
0.1436167,459
0.1452833,478
0.14695,491
0.1486167,461
0.1502833,454
0.15195,394
0.1536167,447
0.1552833,500
0.15695,380
0.1586167,549
0.1602833,461
0.16195,538
0.1636167,460
0.1652833,360
0.16695,530
0.1686167,550
0.1702833,344
0.17195,556
0.1736167,471
0.1753,537
0.17695,580
0.1786167,471
0.1802833,602
0.18195,353
0.1836167,381
0.1852833,375
0.18695,382
0.1886167,406
0.1902833,429
0.1919667,566
0.1936333,576
0.1952833,439
0.19695,449
0.1986167,431
0.2002833,445
0.20195,460
0.2036167,406
0.2052833,440
0.20695,474
0.2086167,287
0.2103,455
0.21195,424
0.2136167,513
0.2152833,500
0.21695,469
0.2186167,492
0.2202833,438
0.22195,482
0.2236167,526
0.2252833,424
0.22695,461
0.2286333,557
0.2302833,540
0.23195,510
0.2336167,427
0.2352833,454
0.23695,476
0.2386167,476
0.2402833,475
0.2419667,464
0.2436167,385
0.2453,432
0.24695,577
0.2486167,570
0.2502833,444
0.25195,596
0.2536333,561
0.2553,470
0.25695,428
0.2586167,627
0.2602833,619
0.26195,520
0.2636333,355
0.2652833,482
0.2669667,440
0.2686167,468
0.2703,495
0.2719667,576
0.2736167,332
0.2752833,473
0.27695,508
0.2786167,543
0.2803,449
0.28195,471
0.2836333,501
0.2852833,547
0.2869667,661
0.2886333,639
0.2902833,464
0.2919667,437
0.2936333,616
0.2952833,503
0.29695,401
0.2986333,432
0.3003,544
0.3019667,528
0.3036333,480
0.3053,431
0.3069667,509
0.3086333,516
0.3103,523
0.3119667,486
0.3136333,588
0.3153,634
0.3169667,456
0.3186333,586
0.3203,624
0.3219667,501
0.3236333,604
0.3253,473
0.3269667,542
0.3286333,472
0.3303,483
0.3319667,493
0.3336333,403
0.3353,486
0.3369667,396
0.3386333,637
0.3403,637
0.3419667,460
0.3436333,374
0.3453,481
0.3469667,336
0.3486333,311
0.3503,525
0.3519667,492
0.3536333,565
0.3553,539
0.3569667,512
0.3586333,591
0.3603,576
0.3619667,562
0.3636333,818
0.3653,1213
0.3669667,1556
0.3686333,2943
0.3703,3303
0.3719667,3600
0.3736333,3910
0.3753,4017
0.3769667,3641
0.3786333,4521
0.3803,4883
0.3819667,5158
0.3836333,4655
0.3853,4388
0.3869667,4111
0.3886333,2881
0.3903,2699
0.3919667,2073
0.3936333,1528
0.3953,1583
0.3969667,1545
0.3986333,1170
0.4003,1224
0.4019667,1194
0.4036333,1118
0.4053,1297
0.4069667,1283
0.4086333,1128
0.4103,1436
0.4119667,1322
0.4136333,1218
0.4153,1467
0.4169667,1419
0.4186333,1366
0.4203,1454
0.4219667,1542
0.4236333,1588
0.4253,1370
0.4269667,1535
0.4286333,1542
0.4303,1617
0.4319667,1650
0.4336333,2057
0.4353,2997
0.4369667,3680
0.4386333,5903
0.4403,9924
0.4419667,14160
0.4436333,22264
0.4453,35168
0.4469667,46848
0.4486333,60368
0.4503,75840
0.4519667,89472
0.4536333,106704
0.4553,115296
0.4569667,125808
0.4586333,137280
0.4603,139712
0.4619667,146432
0.4636333,150272
0.4653,152192
0.4669667,153408
0.4686333,151552
0.4703,158016
0.4719667,162560
0.4736333,167616
0.4753,175360
0.4769667,178240
0.4786333,182208
0.4803,179968
0.4819667,177792
0.4836333,174400
0.4853,160768
0.4869667,145088
0.4886333,130128
0.4903,114032
0.4919667,97152
0.4936333,79392
0.4953,67568
0.4969667,57840
0.4986333,43616
0.5003,37360
0.5019667,30000
0.5036333,23900
0.5053,19552
0.5069667,16068
0.5086333,13220
0.5103,10068
0.5119666,9332
0.5136333,7865
0.5153,6710
0.5169666,5739
0.5186333,5106
0.5203,4513
0.5219667,4071
0.5236334,3800
0.5253,3559
0.5269667,3635
0.5286334,3217
0.5303,3044
0.5319667,2999
0.5336334,2550
0.5353,2897
0.5369667,2632
0.5386333,2347
0.5403,2359
0.5419667,2087
0.5436333,2315
0.5453,1995
0.5469667,2017
0.5486333,2002
0.5503,2045
0.5519667,2089
0.5536333,2070
0.5553,2009
0.5569667,1810
0.5586333,1782
0.5603,1551
0.5619667,1829
0.5636333,1702
0.5653,1274
0.5669667,1647
0.5686333,1413
0.5703,1774
0.5719666,1447
0.5736333,1680
0.5753,1508
0.5769666,1413
0.5786333,1391
0.5803,1573
0.5819666,1323
0.5836333,1294
0.5853,1526
0.5869667,1175
0.5886334,1295
0.5903,1246
0.5919667,1284
0.5936334,1322
0.5953,1533
0.5969667,1565
0.5986333,1596
0.6003,1469
0.6019667,1478
0.6036333,1344
0.6053,1543
0.6069667,1434
0.6086333,1461
0.6103,1386
0.6119667,1103
0.6136333,1362
0.6153,1416
0.6169667,1252
0.6186333,1478
0.6203,1432
0.6219667,1130
0.6236333,1281
0.6253,1347
0.6269667,1256
0.6286333,1113
0.6303,1218
0.6319667,841
0.6336333,1204
0.6353,1010
0.6369666,1011
0.6386333,1146
0.6403,1076
0.6419666,987
0.6436333,1094
0.6453,1203
0.6469667,844
0.6486334,916
0.6503,996
0.6519667,1094
0.6536334,1154
0.6553,869
0.6569667,881
0.6586334,760
0.6603,887
0.6619667,875
0.6636333,859
0.6653,844
0.6669667,823
0.6686333,811
0.6703,800
0.6719667,903
0.6736333,689
0.6753,750
0.6769667,934
0.6786333,959
0.6803,946
0.6819667,618
0.6836333,947
0.6853,1092
0.6869667,1040
0.6886333,868
0.6903,783
0.6919667,869
0.6936333,769
0.6953,689
0.6969666,684
0.6986333,680
0.7003,649
0.7019666,648
0.7036333,648
0.7053,718
0.7069666,741
0.7086333,765
0.7103,714
0.7119667,731
0.7136334,747
0.7153,767
0.7169667,888
0.7186334,878
0.7203,822
0.7219667,814
0.7236333,708
0.7253,934
0.7269667,894
0.7286333,698
0.7303,585
0.7319667,927
0.7336333,551
0.7353,894
0.7369667,692
0.7386333,879
0.7403,806
0.7419667,781
0.7436333,896
0.7453,829
0.7469667,683
0.7486333,971
0.7503,1044
0.7519667,618
0.7536333,882
0.7553,699
0.7569667,780
0.7586333,706
0.7603,771
0.7619666,848
0.7636333,857
0.7653,735
0.7669666,764
0.7686333,757
0.7703,830
0.7719667,642
0.7736334,968
0.7753,883
0.7769667,798
0.7786334,752
0.7803,719
0.7819667,676
0.7836334,883
0.7853,868
0.7869667,853
0.7886333,692
0.7903,793
0.7919667,824
0.7936333,819
0.7953,808
0.7969667,817
0.7986333,827
0.8003,759
0.8019667,699
0.8036333,828
0.8053,776
0.8069667,763
0.8086333,749
0.8103,776
0.8119667,877
0.8136333,857
0.8153,646
0.8169667,655
0.8186333,702
0.8203,828
0.8219666,893
0.8236333,800
0.8253,810
0.8269666,683
0.8286333,827
0.8303,907
0.8319666,887
0.8336333,849
0.8353,845
0.8369667,858
0.8386334,830
0.8403,698
0.8419667,709
0.8436334,853
0.8453,832
0.8469667,952
0.8486333,885
0.8503,778
0.8519667,1016
0.8536333,881
0.8553,712
0.8569667,745
0.8586333,776
0.8603,777
0.8619667,778
0.8636333,761
0.8653,744
0.8669667,887
0.8686333,606
0.8703,721
0.8719667,676
0.8736333,594
0.8753,727
0.8769667,913
0.8786333,1028
0.8803,1128
0.8819667,1799
0.8836333,2148
0.8853,2483
0.8869666,2545
0.8886333,3232
0.8903,3387
0.8919666,3388
0.8936333,3260
0.8953,3218
0.8969667,3375
0.8986334,3456
0.9003,3537
0.9019667,3381
0.9036334,3551
0.9053,3911
0.9069667,3829
0.9086334,3629
0.9103,3263
0.9119667,3676
0.9136333,3400
0.9153,3333
0.9169667,3684
0.9186333,3113
0.9203,3348
0.9219667,3624
0.9236333,3565
0.9253,3659
0.9269667,3634
0.9286333,3576
0.9303,2933
0.9319667,3389
0.9336333,3297
0.9353,3326
0.9369667,3322
0.9386333,3041
0.9403,3009
0.9419667,3156
0.9436333,2572
0.9453,2796
0.9469666,2698
0.9486333,2711
0.9503,2415
0.9519666,1904
0.9536333,2260
0.9553,1934
0.9569666,1970
0.9586333,2006
0.9603,1859
0.9619667,1736
0.9636334,1735
0.9653,1745
0.9669667,1826
0.9686334,1463
0.9703,1583
0.9719667,1519
0.9736333,1434
0.9753,1006
0.9769667,1114
0.9786333,1126
0.9803,892
0.9819667,1194
0.9836333,1170
0.9853,1093
0.9869667,745
0.9886333,963
0.9903,748
0.9919667,670
0.9936333,713
0.9953,721
0.9969667,738
0.9986333,436
1.0003,778
1.001967,622
1.003633,693
1.0053,617
1.006967,768
1.008633,728
1.0103,732
1.011967,588
1.013633,751
1.0153,559
1.016967,728
1.018633,719
1.0203,535
1.021967,509
1.023633,690
1.0253,514
1.026967,686
1.028633,570
1.0303,573
1.031967,696
1.033633,607
1.0353,615
1.036967,570
1.038633,618
1.0403,600
1.041967,493
1.043633,678
1.0453,566
1.046967,700
1.048633,651
1.0503,640
1.051967,589
1.053633,604
1.0553,598
1.056967,615
1.058633,610
1.0603,592
1.061967,573
1.063633,695
1.0653,719
1.066967,542
1.068633,600
1.0703,511
1.071967,596
1.073633,579
1.0753,562
1.076967,533
1.078633,529
1.0803,525
1.081967,563
1.083633,601
1.0853,592
1.086967,677
1.088633,613
1.0903,549
1.091967,495
1.093633,643
1.0953,627
1.096967,690
1.098633,714
1.1003,585
1.101967,703
1.103633,651
1.1053,720
1.106967,632
1.108633,634
1.1103,681
1.111967,729
1.113633,755
1.1153,731
1.116967,600
1.118633,607
1.1203,762
1.121967,790
1.123633,745
1.1253,661
1.126967,771
1.128633,565
1.1303,608
1.131967,683
1.133633,532
1.1353,593
1.136967,758
1.138633,726
1.1403,702
1.141967,662
1.143633,649
1.1453,697
1.146967,828
1.148633,803
1.1503,713
1.151967,614
1.153633,710
1.1553,515
1.156967,766
1.158633,764
1.1603,574
1.161967,754
1.163633,683
1.1653,583
1.166967,622
1.168633,805
1.1703,755
1.171967,652
1.173633,631
1.1753,534
1.176967,736
1.178633,676
1.1803,616
1.181967,850
1.183633,883
1.1853,735
1.186967,692
1.188633,586
1.1903,634
1.191967,681
1.193633,641
1.1953,672
1.196967,703
1.198633,636
