"SampleName","A2Rd2_02-61"
"Target Mass 1",
"Column Name","IA-3 (3um, 4.6X100)"
"Channel","QDa 1: SIR Ch2"
0.00195,444
0.003616667,581
0.005283333,597
0.00695,801
0.008616666,958
0.01028333,927
0.01195,849
0.01361667,862
0.01528333,977
0.01695,928
0.01861667,912
0.02028333,870
0.02195,828
0.02361667,906
0.02528333,883
0.02695,860
0.02861667,892
0.03028333,925
0.03195,1006
0.03361667,746
0.03528333,873
0.03695,805
0.03861667,948
0.04028333,914
0.04195,1043
0.04361667,1037
0.04528333,1032
0.04695,894
0.04861667,1102
0.05028334,857
0.05195,1031
0.05361667,1119
0.05528333,995
0.05695,872
0.05861667,943
0.06028333,998
0.06195,965
0.06361666,933
0.06528334,1020
0.06695,998
0.06861667,949
0.07028333,907
0.07195,853
0.07361667,1016
0.07528333,976
0.07695,914
0.07861666,1102
0.08028334,1055
0.08195,893
0.08361667,907
0.08528333,984
0.08695,971
0.08861667,983
0.09028333,896
0.09195,699
0.09361666,1094
0.09528334,889
0.09695,1037
0.09861667,1063
0.1002833,1019
0.10195,859
0.1036167,1078
0.1052833,970
0.10695,938
0.1086167,1000
0.1102833,738
0.11195,948
0.1136167,891
0.1152833,934
0.11695,1005
0.1186167,771
0.1202833,871
0.12195,859
0.1236167,839
0.1252833,879
0.12695,899
0.1286167,919
0.1302833,984
0.13195,985
0.1336167,707
0.1352833,989
0.13695,981
0.1386167,949
0.1402833,693
0.14195,1018
0.1436167,821
0.1452833,940
0.14695,831
0.1486167,827
0.1502833,824
0.15195,795
0.1536167,890
0.1552833,884
0.15695,878
0.1586167,849
0.1602833,824
0.16195,810
0.1636167,757
0.1652833,945
0.16695,920
0.1686167,815
0.1702833,726
0.17195,954
0.1736167,792
0.1752833,877
0.17695,817
0.1786167,832
0.1802833,846
0.18195,757
0.1836167,836
0.1852833,835
0.18695,835
0.1886167,812
0.1902833,789
0.19195,840
0.1936167,891
0.1952833,1017
0.19695,962
0.1986167,957
0.2002833,1054
0.20195,844
0.2036167,937
0.2052833,917
0.20695,891
0.2086167,865
0.2102833,926
0.21195,895
0.2136167,863
0.2152833,901
0.21695,905
0.2186167,909
0.2202833,909
0.22195,914
0.2236167,870
0.2252833,1210
0.22695,1186
0.2286167,962
0.2302833,1073
0.23195,996
0.2336167,1033
0.2352833,1070
0.23695,1109
0.2386167,1216
0.2402833,1236
0.24195,1156
0.2436167,1190
0.2452833,1153
0.24695,1123
0.2486167,1105
0.2502833,1087
0.25195,1111
0.2536167,1135
0.2552833,1235
0.25695,1291
0.2586167,1216
0.2602833,1191
0.26195,1148
0.2636333,1034
0.2652833,1077
0.26695,906
0.2686333,1126
0.2702833,1189
0.27195,1017
0.2736167,941
0.2752833,1170
0.27695,1196
0.2786167,917
0.2803,1085
0.28195,908
0.2836167,945
0.2852833,958
0.2869667,961
0.2886167,964
0.2902833,815
0.29195,993
0.2936167,1001
0.2952833,892
0.29695,892
0.2986333,929
0.3002833,967
0.3019667,1085
0.3036167,1059
0.3052833,1035
0.3069667,1011
0.3086333,919
0.3103,1177
0.3119667,1146
0.3136333,1170
0.3153,1165
0.31695,1225
0.3186333,1285
0.3203,1480
0.32195,1456
0.3236167,1477
0.3252833,1298
0.3269667,1026
0.3286167,1160
0.3302833,1033
0.33195,1116
0.3336333,1262
0.3353,1224
0.3369667,1233
0.3386167,1241
0.3402833,1297
0.34195,1353
0.3436333,1380
0.3452833,1240
0.34695,1184
0.3486167,1364
0.3503,1353
0.3519667,1371
0.3536333,1350
0.3553,1447
0.3569667,1440
0.3586333,1362
0.3603,1359
0.3619667,1339
0.3636167,1490
0.3653,1983
0.36695,3108
0.3686333,3408
0.3703,3731
0.3719667,3635
0.3736167,3410
0.3753,3424
0.3769667,2618
0.3786167,2753
0.3802833,3183
0.38195,3230
0.3836167,2723
0.3853,1951
0.3869667,1869
0.3886333,1469
0.3903,1135
0.3919667,837
0.3936333,748
0.3953,569
0.3969667,586
0.3986333,492
0.4003,517
0.4019667,519
0.4036333,556
0.4053,548
0.4069667,626
0.4086333,653
0.4103,678
0.4119667,499
0.4136333,659
0.4153,472
0.4169667,583
0.4186333,627
0.4203,498
0.4219667,673
0.4236333,610
0.4253,546
0.4269667,572
0.4286333,632
0.4303,692
0.4319667,717
0.4336333,708
0.4353,777
0.4369667,738
0.4386333,699
0.4403,711
0.4419667,805
0.4436333,899
0.4453,1006
0.4469667,1087
0.4486333,1015
0.4503,997
0.4519667,1048
0.4536333,1078
0.4553,1108
0.4569667,1246
0.4586333,1215
0.4603,1183
0.4619667,1203
0.4636333,1223
0.4653,1274
0.4669667,1255
0.4686333,1248
0.4703,1241
0.4719667,1204
0.4736333,1166
0.4753,1260
0.4769667,1132
0.4786333,1004
0.4803,1050
0.4819667,1096
0.4836333,1138
0.4853,1237
0.4869667,1266
0.4886333,1213
0.4903,1077
0.4919667,1248
0.4936333,980
0.4953,1160
0.4969667,1032
0.4986333,1124
0.5003,1157
0.5019667,1074
0.5036333,936
0.5053,869
0.5069667,796
0.5086333,990
0.5103,946
0.5119666,933
0.5136333,819
0.5153,1013
0.5169666,924
0.5186333,1053
0.5203,1078
0.5219667,904
0.5236334,1058
0.5253,1169
0.5269667,1079
0.5286334,1260
0.5303,819
0.5319667,1085
0.5336334,768
0.5353,891
0.5369667,1013
0.5386333,912
0.5403,1013
0.5419667,931
0.5436333,1002
0.5453,915
0.5469667,909
0.5486333,858
0.5503,851
0.5519667,843
0.5536333,847
0.5553,852
0.5569667,881
0.5586333,910
0.5603,1044
0.5619667,998
0.5636333,952
0.5653,910
0.5669667,975
0.5686333,1013
0.5703,993
0.5719666,973
0.5736333,879
0.5753,1116
0.5769666,1091
0.5786333,972
0.5803,880
0.5819666,1177
0.5836333,1037
0.5853,1058
0.5869667,1018
0.5886334,997
0.5903,848
0.5919667,1057
0.5936334,766
0.5953,1034
0.5969667,1001
0.5986333,868
0.6003,924
0.6019667,980
0.6036333,1012
0.6053,952
0.6069667,801
0.6086333,966
0.6103,997
0.6119667,948
0.6136333,940
0.6153,1041
0.6169667,1071
0.6186333,986
0.6203,1016
0.6219667,865
0.6236333,902
0.6253,969
0.6269667,1028
0.6286333,1050
0.6303,1077
0.6319667,1104
0.6336333,1149
0.6353,1189
0.6369666,1002
0.6386333,1186
0.6403,1145
0.6419666,1007
0.6436333,1000
0.6453,1313
0.6469667,1254
0.6486334,1174
0.6503,1103
0.6519667,1108
0.6536334,1059
0.6553,884
0.6569667,1076
0.6586334,845
0.6603,860
0.6619667,1254
0.6636333,1087
0.6653,1156
0.6669667,1218
0.6686333,1100
0.6703,1347
0.6719667,1664
0.6736333,1935
0.6753,2228
0.6769667,3532
0.6786333,4130
0.6803,5700
0.6819667,7625
0.6836333,9436
0.6853,11824
0.6869667,14456
0.6886333,17356
0.6903,19996
0.6919667,22744
0.6936333,25932
0.6953,27208
0.6969666,29640
0.6986333,31112
0.7003,31924
0.7019666,31240
0.7036333,31188
0.7053,31080
0.7069666,29880
0.7086333,29660
0.7103,29368
0.7119667,27220
0.7136334,27420
0.7153,28440
0.7169667,26952
0.7186334,26432
0.7203,26068
0.7219667,25940
0.7236333,24808
0.7253,23568
0.7269667,22260
0.7286333,21388
0.7303,20488
0.7319667,18052
0.7336333,15944
0.7353,14564
0.7369667,12492
0.7386333,10740
0.7403,9972
0.7419667,8860
0.7436333,8196
0.7453,7183
0.7469667,6120
0.7486333,5721
0.7503,4614
0.7519667,4042
0.7536333,3640
0.7553,3844
0.7569667,3275
0.7586333,2881
0.7603,2627
0.7619666,2544
0.7636333,2798
0.7653,2378
0.7669666,2259
0.7686333,2263
0.7703,2195
0.7719667,2373
0.7736334,2551
0.7753,3146
0.7769667,3699
0.7786334,4476
0.7803,5864
0.7819667,7670
0.7836334,10428
0.7853,13420
0.7869667,14980
0.7886333,19524
0.7903,23452
0.7919667,27484
0.7936333,30484
0.7953,35376
0.7969667,38592
0.7986333,42016
0.8003,46528
0.8019667,47424
0.8036333,48320
0.8053,47600
0.8069667,47920
0.8086333,47888
0.8103,47648
0.8119667,45984
0.8136333,43536
0.8153,40176
0.8169667,40016
0.8186333,40560
0.8203,38896
0.8219666,39184
0.8236333,39088
0.8253,37360
0.8269666,38720
0.8286333,36928
0.8303,37504
0.8319666,36272
0.8336333,34544
0.8353,32644
0.8369667,29932
0.8386334,29796
0.8403,24856
0.8419667,22952
0.8436334,21872
0.8453,19324
0.8469667,17436
0.8486333,15272
0.8503,13340
0.8519667,11508
0.8536333,10960
0.8553,9808
0.8569667,8220
0.8586333,7575
0.8603,6648
0.8619667,6162
0.8636333,5484
0.8653,4979
0.8669667,4688
0.8686333,4048
0.8703,3702
0.8719667,3226
0.8736333,2681
0.8753,2978
0.8769667,2755
0.8786333,2945
0.8803,3104
0.8819667,3286
0.8836333,3342
0.8853,3439
0.8869666,3399
0.8886333,2807
0.8903,2685
0.8919666,2945
0.8936333,2615
0.8953,2408
0.8969667,2709
0.8986334,2350
0.9003,2393
0.9019667,2104
0.9036334,2551
0.9053,2381
0.9069667,2008
0.9086334,1936
0.9103,2016
0.9119667,1676
0.9136333,2136
0.9153,2303
0.9169667,1818
0.9186333,1965
0.9203,2185
0.9219667,1873
0.9236333,1725
0.9253,1761
0.9269667,1755
0.9286333,1750
0.9303,1595
0.9319667,1730
0.9336333,1729
0.9353,1728
0.9369667,1908
0.9386333,1927
0.9403,1885
0.9419667,2045
0.9436333,2000
0.9453,1954
0.9469666,2110
0.9486333,2334
0.9503,2707
0.9519666,3523
0.9536333,4248
0.9553,4930
0.9569666,6458
0.9586333,7920
0.9603,8524
0.9619667,11556
0.9636334,14508
0.9653,17512
0.9669667,21212
0.9686334,24792
0.9703,29084
0.9719667,32660
0.9736333,36960
0.9753,42240
0.9769667,46320
0.9786333,50208
0.9803,53680
0.9819667,60048
0.9836333,60096
0.9853,63136
0.9869667,65952
0.9886333,65328
0.9903,68688
0.9919667,67920
0.9936333,67440
0.9953,67008
0.9969667,65184
0.9986333,65824
1.0003,63024
1.001967,62304
1.003633,60544
1.0053,62064
1.006967,60512
1.008633,58160
1.0103,57360
1.011967,57056
1.013633,60112
1.0153,60528
1.016967,61536
1.018633,59552
1.0203,60736
1.021967,58992
1.023633,59088
1.0253,59296
1.026967,56144
1.028633,54560
1.0303,51440
1.031967,50160
1.033633,47200
1.0353,44128
1.036967,40368
1.038633,37232
1.0403,35040
1.041967,32640
1.043633,30432
1.0453,28632
1.046967,25264
1.048633,23328
1.0503,23688
1.051967,22788
1.053633,20332
1.0553,19568
1.056967,19912
1.058633,20052
1.0603,20196
1.061967,20696
1.063633,20788
1.0653,20880
1.066967,21308
1.068633,21548
1.0703,21396
1.071967,22972
1.073633,23332
1.0753,23912
1.076967,23600
1.078633,23376
1.0803,23720
1.081967,23856
1.083633,23688
1.0853,23684
1.086967,21660
1.088633,22756
1.0903,22308
1.091967,22076
1.093633,21656
1.0953,20584
1.096967,21196
1.098633,20540
1.1003,20460
1.101967,20260
1.103633,20080
1.1053,19724
1.106967,19608
1.108633,20020
1.1103,19556
1.111967,18988
1.113633,17336
1.1153,18884
1.116967,17528
1.118633,17708
1.1203,16280
1.121967,16180
1.123633,14832
1.1253,14244
1.126967,13052
1.128633,12664
1.1303,12364
1.131967,11612
1.133633,11116
1.1353,10552
1.136967,9832
1.138633,9172
1.1403,8396
1.141967,7938
1.143633,7506
1.1453,7292
1.146967,7081
1.148633,6125
1.1503,5387
1.151967,5186
1.153633,5218
1.1553,5017
1.156967,4640
1.158633,4314
1.1603,3894
1.161967,3756
1.163633,3795
1.1653,3562
1.166967,3159
1.168633,3345
1.1703,3362
1.171967,2852
1.173633,2991
1.1753,2695
1.176967,2827
1.178633,2327
1.1803,2581
1.181967,2870
1.183633,2753
1.1853,2299
1.186967,2760
1.188633,2661
1.1903,2582
1.191967,2707
1.193633,3181
1.1953,3280
1.196967,3543
1.198633,3472
