"SampleName","A2Rd2_02-42"
"Target Mass 1",
"Column Name","IA-3 (3um, 4.6X100)"
"Channel","QDa 1: SIR Ch2"
0.00195,469
0.003616667,842
0.005283333,844
0.00695,679
0.008616666,849
0.01028333,1110
0.01195,1111
0.01361667,1071
0.01528333,1247
0.01695,904
0.01861667,1004
0.02028333,1078
0.02195,1051
0.02361667,1122
0.02528333,735
0.02695,936
0.02861667,1012
0.03028333,924
0.03195,904
0.03361667,884
0.03528333,1102
0.03695,1157
0.03861667,1167
0.04028333,1086
0.04195,1073
0.04361667,1018
0.04528333,966
0.04695,1071
0.04861667,1104
0.05028334,1138
0.05195,1111
0.05361667,1079
0.05528333,884
0.05695,1033
0.05861667,997
0.06028333,962
0.06195,958
0.06361666,954
0.06528334,976
0.06695,997
0.06861667,930
0.07028333,864
0.07195,946
0.07361667,951
0.07528333,956
0.07695,971
0.07861666,985
0.08028334,927
0.08195,1068
0.08361667,847
0.08528333,980
0.08695,904
0.08861667,828
0.09028333,901
0.09195,898
0.09361666,894
0.09528334,959
0.09695,997
0.09861667,952
0.1002833,906
0.10195,892
0.1036167,878
0.1052833,986
0.10695,1043
0.1086167,997
0.1102833,1047
0.11195,1097
0.1136167,949
0.1152833,927
0.11695,967
0.1186167,830
0.1202833,994
0.12195,999
0.1236167,961
0.1252833,1002
0.12695,904
0.1286167,863
0.1302833,930
0.13195,927
0.1336167,977
0.1352833,943
0.13695,1086
0.1386167,1129
0.1402833,839
0.14195,827
0.1436167,1180
0.1452833,986
0.14695,809
0.1486167,852
0.1502833,882
0.15195,913
0.1536167,974
0.1552833,889
0.15695,803
0.1586167,913
0.1602833,884
0.16195,855
0.1636167,969
0.1652833,1089
0.16695,1075
0.1686167,900
0.1702833,726
0.17195,817
0.1736167,1018
0.1752833,967
0.17695,1000
0.1786167,991
0.1802833,907
0.18195,1006
0.1836167,1098
0.1852833,829
0.18695,925
0.1886167,945
0.1902833,997
0.19195,1049
0.1936167,1005
0.1952833,1081
0.19695,1064
0.1986167,992
0.2002833,1039
0.20195,1136
0.2036167,1098
0.2052833,945
0.20695,983
0.2086167,1029
0.2102833,1095
0.21195,1098
0.2136167,1110
0.2152833,1148
0.21695,1048
0.2186167,1137
0.2202833,1203
0.22195,1171
0.2236167,1139
0.2252833,1136
0.22695,1259
0.2286167,1468
0.2302833,1391
0.23195,1570
0.2336167,1496
0.2352833,1421
0.23695,1387
0.2386167,1455
0.2402833,1231
0.24195,1319
0.2436167,1407
0.2452833,1397
0.24695,1408
0.2486167,1451
0.2502833,1494
0.25195,1569
0.2536167,1598
0.2552833,1421
0.25695,1604
0.2586167,1454
0.2602833,1430
0.26195,1458
0.2636333,1474
0.2652833,1244
0.26695,1410
0.2686167,1396
0.2702833,1382
0.27195,1459
0.2736167,1259
0.2752833,1539
0.27695,1262
0.2786167,1519
0.2803,1142
0.28195,1442
0.2836167,1379
0.2852833,1465
0.28695,1258
0.2886167,1219
0.2903,1136
0.29195,1258
0.2936167,1442
0.2952833,1396
0.29695,1349
0.2986333,1398
0.3002833,1319
0.3019667,1329
0.3036167,1344
0.3053,1359
0.30695,1278
0.3086167,1173
0.3102833,1402
0.31195,1426
0.3136167,1451
0.3153,1172
0.31695,1276
0.3186167,1379
0.3202833,1414
0.32195,1448
0.3236333,1437
0.3252833,1426
0.32695,1240
0.3286167,1407
0.3302833,1478
0.33195,1388
0.3336333,1245
0.3352833,1256
0.33695,1365
0.3386167,1149
0.3403,1246
0.34195,1387
0.3436333,1200
0.3453,1424
0.3469667,1361
0.3486333,1298
0.3503,1290
0.35195,1281
0.3536333,1392
0.3553,1447
0.35695,1425
0.3586167,1416
0.3602833,1460
0.36195,1478
0.3636167,1496
0.3652833,2150
0.36695,2935
0.3686333,2974
0.3702833,3532
0.3719667,2938
0.3736167,3115
0.3753,2878
0.37695,2906
0.3786333,2935
0.3802833,2919
0.3819667,2903
0.3836167,2415
0.3853,2048
0.38695,1785
0.3886333,1442
0.3903,1065
0.3919667,1101
0.3936333,814
0.3953,749
0.39695,596
0.3986167,366
0.4003,517
0.4019667,552
0.4036333,498
0.4053,601
0.4069667,594
0.4086333,604
0.4103,626
0.4119667,622
0.4136333,617
0.4153,562
0.4169667,739
0.4186333,742
0.4203,642
0.4219667,597
0.4236333,811
0.4253,878
0.4269667,854
0.4286333,950
0.4303,714
0.4319667,1003
0.4336333,840
0.4353,878
0.4369667,958
0.4386333,1121
0.4403,1069
0.4419667,1084
0.4436333,1077
0.4453,959
0.4469667,1155
0.4486333,1145
0.4503,1135
0.4519667,1157
0.4536333,1176
0.4553,1195
0.4569667,1175
0.4586333,1155
0.4603,1304
0.4619667,1289
0.4636333,1275
0.4653,1483
0.4669667,1508
0.4686333,1533
0.4703,1365
0.4719667,1522
0.4736333,1469
0.4753,1560
0.4769667,1207
0.4786333,1280
0.4803,1257
0.4819667,1197
0.4836333,1136
0.4853,1312
0.4869667,1276
0.4886333,1241
0.4903,1179
0.4919667,1194
0.4936333,1258
0.4953,1060
0.4969667,1096
0.4986333,1288
0.5003,1116
0.5019667,900
0.5036333,1088
0.5053,951
0.5069667,937
0.5086333,856
0.5103,987
0.5119666,1011
0.5136333,956
0.5153,902
0.5169666,957
0.5186333,934
0.5203,911
0.5219667,903
0.5236334,895
0.5253,770
0.5269667,842
0.5286334,798
0.5303,884
0.5319667,841
0.5336334,857
0.5353,878
0.5369667,899
0.5386333,892
0.5403,1084
0.5419667,1048
0.5436333,1091
0.5453,863
0.5469667,1027
0.5486333,1045
0.5503,1099
0.5519667,1048
0.5536333,1108
0.5553,955
0.5569667,1039
0.5586333,996
0.5603,925
0.5619667,892
0.5636333,994
0.5653,818
0.5669667,812
0.5686333,806
0.5703,816
0.5719666,1010
0.5736333,1013
0.5753,1016
0.5769666,1183
0.5786333,793
0.5803,1160
0.5819666,1017
0.5836333,1084
0.5853,867
0.5869667,886
0.5886334,807
0.5903,1089
0.5919667,1042
0.5936334,952
0.5953,929
0.5969667,1056
0.5986333,1060
0.6003,965
0.6019667,954
0.6036333,1091
0.6053,1094
0.6069667,1097
0.6086333,816
0.6103,942
0.6119667,951
0.6136333,916
0.6153,880
0.6169667,972
0.6186333,926
0.6203,1025
0.6219667,836
0.6236333,1047
0.6253,1075
0.6269667,1099
0.6286333,1119
0.6303,1080
0.6319667,1103
0.6336333,1126
0.6353,961
0.6369666,971
0.6386333,962
0.6403,938
0.6419666,829
0.6436333,921
0.6453,804
0.6469667,931
0.6486334,700
0.6503,766
0.6519667,831
0.6536334,902
0.6553,841
0.6569667,779
0.6586334,929
0.6603,960
0.6619667,990
0.6636333,893
0.6653,758
0.6669667,1041
0.6686333,941
0.6703,947
0.6719667,785
0.6736333,874
0.6753,869
0.6769667,844
0.6786333,820
0.6803,864
0.6819667,854
0.6836333,845
0.6853,859
0.6869667,874
0.6886333,909
0.6903,969
0.6919667,936
0.6936333,904
0.6953,817
0.6969666,1046
0.6986333,1003
0.7003,1034
0.7019666,999
0.7036333,957
0.7053,1018
0.7069666,863
0.7086333,1040
0.7103,902
0.7119667,1071
0.7136334,920
0.7153,847
0.7169667,858
0.7186334,897
0.7203,820
0.7219667,928
0.7236333,956
0.7253,871
0.7269667,782
0.7286333,942
0.7303,891
0.7319667,901
0.7336333,912
0.7353,892
0.7369667,894
0.7386333,1023
0.7403,727
0.7419667,1003
0.7436333,899
0.7453,779
0.7469667,870
0.7486333,850
0.7503,830
0.7519667,841
0.7536333,915
0.7553,909
0.7569667,826
0.7586333,901
0.7603,729
0.7619666,696
0.7636333,934
0.7653,1048
0.7669666,999
0.7686333,964
0.7703,899
0.7719667,777
0.7736334,1023
0.7753,847
0.7769667,1069
0.7786334,886
0.7803,754
0.7819667,731
0.7836334,985
0.7853,939
0.7869667,1035
0.7886333,1071
0.7903,1026
0.7919667,989
0.7936333,851
0.7953,1032
0.7969667,898
0.7986333,1009
0.8003,890
0.8019667,951
0.8036333,1013
0.8053,979
0.8069667,945
0.8086333,974
0.8103,1002
0.8119667,960
0.8136333,918
0.8153,877
0.8169667,884
0.8186333,896
0.8203,802
0.8219666,935
0.8236333,925
0.8253,843
0.8269666,877
0.8286333,911
0.8303,1028
0.8319666,1023
0.8336333,958
0.8353,1070
0.8369667,788
0.8386334,1018
0.8403,850
0.8419667,1025
0.8436334,975
0.8453,995
0.8469667,726
0.8486333,724
0.8503,974
0.8519667,836
0.8536333,870
0.8553,865
0.8569667,876
0.8586333,750
0.8603,967
0.8619667,880
0.8636333,793
0.8653,756
0.8669667,718
0.8686333,1017
0.8703,973
0.8719667,832
0.8736333,1030
0.8753,914
0.8769667,949
0.8786333,968
0.8803,1145
0.8819667,1111
0.8836333,1482
0.8853,1448
0.8869666,1529
0.8886333,1397
0.8903,1419
0.8919666,1626
0.8936333,1582
0.8953,1764
0.8969667,1614
0.8986334,1468
0.9003,1659
0.9019667,1705
0.9036334,1765
0.9053,1450
0.9069667,1574
0.9086334,1450
0.9103,1447
0.9119667,1319
0.9136333,1415
0.9153,1510
0.9169667,1632
0.9186333,1232
0.9203,1443
0.9219667,1346
0.9236333,1469
0.9253,1602
0.9269667,1546
0.9286333,1490
0.9303,1480
0.9319667,1469
0.9336333,1357
0.9353,1297
0.9369667,1696
0.9386333,1676
0.9403,1364
0.9419667,1428
0.9436333,1456
0.9453,1368
0.9469666,1100
0.9486333,1204
0.9503,1079
0.9519666,1173
0.9536333,1305
0.9553,1251
0.9569666,1262
0.9586333,1333
0.9603,1203
0.9619667,1289
0.9636334,896
0.9653,1317
0.9669667,1008
0.9686334,1203
0.9703,1084
0.9719667,956
0.9736333,980
0.9753,1246
0.9769667,1346
0.9786333,820
0.9803,751
0.9819667,864
0.9836333,987
0.9853,1011
0.9869667,1030
0.9886333,1009
0.9903,917
0.9919667,653
0.9936333,1041
0.9953,908
0.9969667,776
0.9986333,809
1.0003,848
1.001967,816
1.003633,785
1.0053,1009
1.006967,1062
1.008633,980
1.0103,868
1.011967,1174
1.013633,1106
1.0153,934
1.016967,1058
1.018633,946
1.0203,1009
1.021967,826
1.023633,1068
1.0253,890
1.026967,1143
1.028633,1033
1.0303,871
1.031967,988
1.033633,1025
1.0353,1010
1.036967,934
1.038633,897
1.0403,1017
1.041967,906
1.043633,899
1.0453,827
1.046967,856
1.048633,819
1.0503,879
1.051967,857
1.053633,808
1.0553,760
1.056967,978
1.058633,992
1.0603,748
1.061967,778
1.063633,709
1.0653,949
1.066967,948
1.068633,849
1.0703,813
1.071967,874
1.073633,949
1.0753,989
1.076967,887
1.078633,830
1.0803,692
1.081967,967
1.083633,947
1.0853,820
1.086967,901
1.088633,910
1.0903,827
1.091967,887
1.093633,844
1.0953,801
1.096967,826
1.098633,851
1.1003,798
1.101967,745
1.103633,736
1.1053,685
1.106967,634
1.108633,990
1.1103,1055
1.111967,833
1.113633,746
1.1153,862
1.116967,745
1.118633,800
1.1203,856
1.121967,786
1.123633,791
1.1253,803
1.126967,816
1.128633,851
1.1303,830
1.131967,808
1.133633,895
1.1353,894
1.136967,908
1.138633,829
1.1403,872
1.141967,929
1.143633,865
1.1453,877
1.146967,790
1.148633,824
1.1503,842
1.151967,859
1.153633,831
1.1553,804
1.156967,772
1.158633,740
1.1603,893
1.161967,951
1.163633,983
1.1653,1018
1.166967,854
1.168633,931
1.1703,904
1.171967,730
1.173633,789
1.1753,968
1.176967,667
1.178633,904
1.1803,842
1.181967,942
1.183633,865
1.1853,967
1.186967,810
1.188633,807
1.1903,880
1.191967,827
1.193633,926
1.1953,870
1.196967,815
1.198633,788
