"SampleName","A2Rd2_02-85"
"Target Mass 1",
"Column Name","IA-3 (3um, 4.6X100)"
"Channel","QDa 1: SIR Ch2"
0.00195,514
0.003616667,909
0.005283333,651
0.00695,597
0.008616666,983
0.01028333,1015
0.01195,766
0.01361667,1106
0.01528333,842
0.01695,771
0.01861667,850
0.02028333,894
0.02195,1048
0.02361667,1050
0.02528333,747
0.02695,938
0.02861667,860
0.03028333,1032
0.03195,961
0.03361667,992
0.03528333,1024
0.03695,973
0.03861667,1018
0.04028333,1063
0.04195,1058
0.04361667,1053
0.04528333,1046
0.04695,1038
0.04861667,1122
0.05028334,1124
0.05195,1003
0.05361667,1109
0.05528333,1151
0.05695,1164
0.05861667,1034
0.06028333,1122
0.06195,802
0.06361666,1054
0.06528334,1122
0.06695,1003
0.06861667,1111
0.07028333,1063
0.07195,798
0.07361667,1073
0.07528333,999
0.07695,1102
0.07861666,996
0.08028334,1003
0.08195,1064
0.08361667,983
0.08528333,902
0.08695,793
0.08861667,1058
0.09028333,900
0.09195,1020
0.09361666,1108
0.09528334,900
0.09695,1192
0.09861667,1104
0.1002833,924
0.10195,979
0.1036167,999
0.1052833,1017
0.10695,971
0.1086167,868
0.1102833,949
0.11195,910
0.1136167,883
0.1152833,856
0.11695,954
0.1186167,1051
0.1202833,988
0.12195,924
0.1236167,1009
0.1252833,965
0.12695,891
0.1286167,607
0.1302833,1127
0.13195,1027
0.1336167,943
0.1352833,889
0.13695,786
0.1386167,895
0.1402833,876
0.14195,890
0.1436167,904
0.1452833,911
0.14695,858
0.1486167,874
0.1502833,891
0.15195,955
0.1536167,948
0.1552833,844
0.15695,835
0.1586167,906
0.1602833,915
0.16195,937
0.1636167,869
0.1652833,1033
0.16695,1025
0.1686167,803
0.1702833,914
0.17195,980
0.1736167,914
0.1752833,924
0.17695,916
0.1786167,908
0.1802833,932
0.18195,956
0.1836167,943
0.1852833,903
0.18695,897
0.1886167,748
0.1902833,832
0.19195,811
0.1936167,868
0.1952833,844
0.19695,820
0.1986167,859
0.2002833,898
0.20195,884
0.2036167,1048
0.2052833,1070
0.20695,976
0.2086167,1026
0.2102833,989
0.21195,997
0.2136167,945
0.2152833,893
0.21695,1010
0.2186167,947
0.2202833,1071
0.22195,990
0.2236167,1067
0.2252833,1144
0.22695,1110
0.2286167,1076
0.2302833,1261
0.23195,1246
0.2336167,1270
0.2352833,1228
0.23695,1352
0.2386167,1077
0.2402833,1227
0.2419667,1165
0.2436167,1047
0.2453,930
0.24695,1012
0.2486167,1045
0.2502833,1077
0.25195,1148
0.2536167,1219
0.2552833,1172
0.25695,1253
0.2586167,1204
0.2602833,1154
0.26195,1130
0.2636333,1117
0.2652833,1104
0.26695,1003
0.2686167,1182
0.2703,1246
0.27195,1153
0.2736167,1048
0.2752833,1216
0.27695,947
0.2786167,940
0.2803,980
0.28195,954
0.2836167,1064
0.2852833,1199
0.28695,1147
0.2886167,1024
0.2902833,1100
0.2919667,1111
0.2936167,1052
0.2952833,1178
0.29695,1168
0.2986333,1157
0.3003,961
0.30195,1043
0.3036333,1128
0.3052833,1050
0.30695,1130
0.3086333,1144
0.3102833,1157
0.31195,1135
0.3136167,1149
0.3153,1162
0.3169667,1282
0.3186333,1363
0.3202833,1274
0.3219667,1245
0.3236167,1215
0.3253,1284
0.32695,1231
0.3286167,1179
0.3302833,1186
0.33195,1193
0.3336333,1247
0.3352833,1244
0.3369667,1241
0.3386167,1248
0.3403,1255
0.3419667,1264
0.3436333,1273
0.3452833,1295
0.3469667,1460
0.3486333,1423
0.3503,1449
0.3519667,1403
0.3536333,1085
0.3553,1394
0.3569667,1249
0.3586333,1209
0.3602833,1412
0.3619667,1306
0.3636167,1733
0.3653,2144
0.3669667,3093
0.3686333,3462
0.3703,3369
0.3719667,2994
0.3736333,2864
0.3753,2885
0.3769667,2933
0.3786333,2537
0.3803,2667
0.3819667,2760
0.3836333,2332
0.3853,2093
0.3869667,1674
0.3886333,1647
0.3903,1339
0.3919667,874
0.3936333,875
0.3953,659
0.3969667,621
0.3986333,658
0.4003,443
0.4019667,421
0.4036333,495
0.4053,478
0.4069667,358
0.4086333,626
0.4103,545
0.4119667,632
0.4136333,631
0.4153,635
0.4169667,640
0.4186333,634
0.4203,628
0.4219667,698
0.4236333,767
0.4253,738
0.4269667,879
0.4286333,910
0.4303,941
0.4319667,749
0.4336333,750
0.4353,777
0.4369667,779
0.4386333,781
0.4403,809
0.4419667,884
0.4436333,959
0.4453,1248
0.4469667,1395
0.4486333,1290
0.4503,1012
0.4519667,1381
0.4536333,1255
0.4553,1703
0.4569667,1533
0.4586333,1248
0.4603,1497
0.4619667,1263
0.4636333,1333
0.4653,1641
0.4669667,1766
0.4686333,1472
0.4703,1701
0.4719667,1355
0.4736333,1271
0.4753,1309
0.4769667,1349
0.4786333,1470
0.4803,1473
0.4819667,1477
0.4836333,1433
0.4853,1390
0.4869667,1346
0.4886333,1257
0.4903,1340
0.4919667,1305
0.4936333,1315
0.4953,1196
0.4969667,1249
0.4986333,1241
0.5003,1214
0.5019667,957
0.5036333,1239
0.5053,1248
0.5069667,975
0.5086333,962
0.5103,902
0.5119666,969
0.5136333,794
0.5153,945
0.5169666,936
0.5186333,942
0.5203,865
0.5219667,788
0.5236334,908
0.5253,904
0.5269667,900
0.5286334,910
0.5303,919
0.5319667,973
0.5336334,708
0.5353,886
0.5369667,1030
0.5386333,859
0.5403,906
0.5419667,920
0.5436333,885
0.5453,849
0.5469667,851
0.5486333,852
0.5503,893
0.5519667,827
0.5536333,761
0.5553,991
0.5569667,944
0.5586333,897
0.5603,850
0.5619667,998
0.5636333,999
0.5653,926
0.5669667,811
0.5686333,811
0.5703,885
0.5719666,840
0.5736333,833
0.5753,825
0.5769666,839
0.5786333,854
0.5803,600
0.5819666,870
0.5836333,1087
0.5853,1043
0.5869667,747
0.5886334,920
0.5903,1061
0.5919667,923
0.5936334,1122
0.5953,1075
0.5969667,953
0.5986333,1008
0.6003,996
0.6019667,967
0.6036333,937
0.6053,809
0.6069667,1034
0.6086333,824
0.6103,837
0.6119667,870
0.6136333,1081
0.6153,1085
0.6169667,898
0.6186333,1069
0.6203,760
0.6219667,900
0.6236333,863
0.6253,1050
0.6269667,990
0.6286333,882
0.6303,1087
0.6319667,820
0.6336333,696
0.6353,1071
0.6369666,1017
0.6386333,889
0.6403,915
0.6419666,809
0.6436333,861
0.6453,913
0.6469667,951
0.6486334,875
0.6503,798
0.6519667,895
0.6536334,889
0.6553,883
0.6569667,892
0.6586334,789
0.6603,763
0.6619667,753
0.6636333,807
0.6653,828
0.6669667,982
0.6686333,1043
0.6703,978
0.6719667,891
0.6736333,862
0.6753,850
0.6769667,891
0.6786333,785
0.6803,897
0.6819667,902
0.6836333,927
0.6853,922
0.6869667,874
0.6886333,921
0.6903,973
0.6919667,697
0.6936333,1006
0.6953,804
0.6969666,1027
0.6986333,1048
0.7003,1166
0.7019666,843
0.7036333,856
0.7053,1061
0.7069666,794
0.7086333,1044
0.7103,833
0.7119667,962
0.7136334,785
0.7153,866
0.7169667,776
0.7186334,955
0.7203,1023
0.7219667,710
0.7236333,950
0.7253,883
0.7269667,911
0.7286333,943
0.7303,967
0.7319667,809
0.7336333,724
0.7353,929
0.7369667,845
0.7386333,761
0.7403,798
0.7419667,835
0.7436333,943
0.7453,934
0.7469667,924
0.7486333,860
0.7503,859
0.7519667,768
0.7536333,954
0.7553,926
0.7569667,996
0.7586333,912
0.7603,751
0.7619666,938
0.7636333,796
0.7653,812
0.7669666,828
0.7686333,958
0.7703,910
0.7719667,863
0.7736334,878
0.7753,926
0.7769667,765
0.7786334,793
0.7803,847
0.7819667,902
0.7836334,881
0.7853,870
0.7869667,889
0.7886333,908
0.7903,914
0.7919667,779
0.7936333,751
0.7953,806
0.7969667,840
0.7986333,889
0.8003,937
0.8019667,880
0.8036333,920
0.8053,976
0.8069667,871
0.8086333,767
0.8103,883
0.8119667,837
0.8136333,791
0.8153,857
0.8169667,895
0.8186333,715
0.8203,808
0.8219666,901
0.8236333,971
0.8253,951
0.8269666,931
0.8286333,862
0.8303,883
0.8319666,752
0.8336333,898
0.8353,884
0.8369667,851
0.8386334,1009
0.8403,1017
0.8419667,999
0.8436334,913
0.8453,989
0.8469667,1020
0.8486333,817
0.8503,925
0.8519667,895
0.8536333,797
0.8553,919
0.8569667,774
0.8586333,827
0.8603,881
0.8619667,912
0.8636333,943
0.8653,865
0.8669667,720
0.8686333,909
0.8703,794
0.8719667,952
0.8736333,949
0.8753,1010
0.8769667,1102
0.8786333,1093
0.8803,1011
0.8819667,1137
0.8836333,1210
0.8853,1295
0.8869666,1347
0.8886333,1229
0.8903,1428
0.8919666,1355
0.8936333,1378
0.8953,1252
0.8969667,1416
0.8986334,1352
0.9003,1335
0.9019667,1253
0.9036334,1307
0.9053,1203
0.9069667,1323
0.9086334,1319
0.9103,1257
0.9119667,1423
0.9136333,1446
0.9153,1278
0.9169667,1439
0.9186333,1350
0.9203,1428
0.9219667,1335
0.9236333,1241
0.9253,1289
0.9269667,1336
0.9286333,1191
0.9303,1263
0.9319667,1335
0.9336333,1601
0.9353,1492
0.9369667,1357
0.9386333,1213
0.9403,1434
0.9419667,1375
0.9436333,1160
0.9453,1244
0.9469666,1419
0.9486333,1116
0.9503,1216
0.9519666,976
0.9536333,1221
0.9553,1298
0.9569666,1159
0.9586333,1169
0.9603,894
0.9619667,1172
0.9636334,1096
0.9653,1090
0.9669667,977
0.9686334,958
0.9703,1028
0.9719667,1071
0.9736333,1113
0.9753,936
0.9769667,1216
0.9786333,1105
0.9803,754
0.9819667,697
0.9836333,815
0.9853,803
0.9869667,762
0.9886333,831
0.9903,947
0.9919667,898
0.9936333,927
0.9953,878
0.9969667,828
0.9986333,726
1.0003,770
1.001967,815
1.003633,752
1.0053,780
1.006967,807
1.008633,737
1.0103,835
1.011967,777
1.013633,804
1.0153,830
1.016967,774
1.018633,819
1.0203,865
1.021967,871
1.023633,878
1.0253,947
1.026967,1030
1.028633,1042
1.0303,1017
1.031967,825
1.033633,1028
1.0353,988
1.036967,806
1.038633,867
1.0403,878
1.041967,860
1.043633,842
1.0453,866
1.046967,890
1.048633,816
1.0503,741
1.051967,780
1.053633,714
1.0553,846
1.056967,814
1.058633,782
1.0603,808
1.061967,835
1.063633,789
1.0653,743
1.066967,756
1.068633,811
1.0703,866
1.071967,828
1.073633,743
1.0753,751
1.076967,840
1.078633,724
1.0803,798
1.081967,753
1.083633,738
1.0853,724
1.086967,791
1.088633,953
1.0903,917
1.091967,743
1.093633,732
1.0953,799
1.096967,898
1.098633,963
1.1003,692
1.101967,761
1.103633,656
1.1053,930
1.106967,871
1.108633,904
1.1103,764
1.111967,789
1.113633,716
1.1153,668
1.116967,692
1.118633,843
1.1203,800
1.121967,888
1.123633,805
1.1253,757
1.126967,766
1.128633,774
1.1303,797
1.131967,821
1.133633,865
1.1353,833
1.136967,801
1.138633,726
1.1403,755
1.141967,784
1.143633,680
1.1453,669
1.146967,657
1.148633,661
1.1503,907
1.151967,899
1.153633,873
1.1553,848
1.156967,789
1.158633,848
1.1603,824
1.161967,799
1.163633,678
1.1653,698
1.166967,719
1.168633,762
1.1703,775
1.171967,788
1.173633,756
1.1753,627
1.176967,962
1.178633,883
1.1803,942
1.181967,887
1.183633,876
1.1853,999
1.186967,737
1.188633,904
1.1903,645
1.191967,672
1.193633,932
1.1953,768
1.196967,737
1.198633,865
