"SampleName","A2Rd2_02-35"
"Target Mass 1",
"Column Name","IA-3 (3um, 4.6X100)"
"Channel","QDa 1: SIR Ch2"
0.00195,656
0.003616667,793
0.005283333,878
0.00695,760
0.008616666,727
0.01028333,885
0.01195,860
0.01361667,971
0.01528333,898
0.01695,925
0.01861667,894
0.02028333,863
0.02195,943
0.02361667,999
0.02528333,1024
0.02695,948
0.02861667,871
0.03028333,1032
0.03195,849
0.03361667,911
0.03528333,739
0.03695,822
0.03861667,843
0.04028333,865
0.04195,944
0.04361667,1035
0.04528333,999
0.04695,963
0.04861667,747
0.05028334,737
0.05195,1045
0.05361667,1012
0.05528333,835
0.05695,1080
0.05861667,877
0.06028333,884
0.06195,1071
0.06361666,872
0.06528334,982
0.06695,882
0.06861667,861
0.07028333,960
0.07195,855
0.07361667,885
0.07528333,909
0.07695,799
0.07861666,753
0.08028334,848
0.08195,943
0.08361667,974
0.08528333,889
0.08695,833
0.08861667,863
0.09028333,892
0.09195,906
0.09361666,920
0.09528334,942
0.09695,944
0.09861667,606
0.1002833,891
0.10195,950
0.1036167,888
0.1052833,836
0.10695,783
0.1086167,804
0.1102833,825
0.11195,757
0.1136167,690
0.1152833,859
0.11695,745
0.1186167,777
0.1202833,781
0.12195,784
0.1236167,753
0.1252833,723
0.12695,919
0.1286167,871
0.1302833,858
0.13195,856
0.1336167,913
0.1352833,801
0.13695,849
0.1386167,814
0.1402833,798
0.14195,1023
0.1436167,1035
0.1452833,828
0.14695,742
0.1486167,861
0.1502833,892
0.15195,921
0.1536167,843
0.1552833,693
0.15695,725
0.1586167,1022
0.1602833,987
0.16195,844
0.1636167,763
0.1652833,906
0.16695,1099
0.1686167,1015
0.1702833,849
0.17195,923
0.1736167,901
0.1752833,827
0.17695,810
0.1786167,885
0.1802833,768
0.18195,949
0.1836167,972
0.1852833,827
0.18695,697
0.1886167,954
0.1902833,792
0.19195,740
0.1936167,954
0.1952833,937
0.19695,811
0.1986167,675
0.2002833,706
0.20195,783
0.2036167,784
0.2052833,785
0.20695,830
0.2086167,875
0.2102833,994
0.21195,949
0.2136167,905
0.2152833,913
0.21695,800
0.2186167,915
0.2202833,1143
0.22195,1155
0.2236167,906
0.2252833,1317
0.22695,1081
0.2286333,1095
0.2302833,1070
0.23195,1029
0.2336167,988
0.2352833,1034
0.23695,1080
0.2386167,1097
0.2402833,1114
0.24195,983
0.2436167,1303
0.2452833,1330
0.24695,1030
0.2486167,1241
0.2502833,1153
0.25195,1081
0.2536167,1070
0.2552833,1254
0.25695,1313
0.2586167,1222
0.2602833,1102
0.26195,1094
0.2636333,1091
0.2652833,1138
0.26695,1185
0.2686167,1178
0.2702833,1170
0.27195,1052
0.2736167,979
0.2752833,965
0.27695,744
0.2786333,865
0.2803,861
0.28195,905
0.2836167,950
0.2852833,991
0.28695,1065
0.2886167,1037
0.2902833,1064
0.29195,1053
0.2936167,1051
0.2952833,1050
0.29695,784
0.2986333,1110
0.3002833,953
0.30195,959
0.3036167,977
0.3052833,1145
0.30695,1221
0.3086167,1281
0.3102833,1138
0.31195,1096
0.3136167,1190
0.3153,1283
0.31695,1299
0.3186167,1273
0.3202833,1286
0.32195,1286
0.3236167,1285
0.3252833,1285
0.3269667,1362
0.3286333,992
0.3302833,1104
0.33195,1144
0.3336333,1222
0.3352833,1123
0.33695,1216
0.3386333,1314
0.3403,1274
0.3419667,1310
0.3436333,1329
0.3452833,1115
0.3469667,1299
0.3486167,1249
0.3503,1386
0.35195,1241
0.3536333,1436
0.3553,1380
0.3569667,1478
0.3586333,1194
0.3603,1243
0.36195,1298
0.3636333,1486
0.3652833,2211
0.3669667,2744
0.3686333,3423
0.3703,3759
0.3719667,3325
0.3736333,3015
0.3753,3241
0.3769667,3278
0.3786333,2974
0.3803,3305
0.38195,2737
0.3836333,2546
0.3853,1913
0.3869667,1990
0.3886333,1623
0.3903,1108
0.3919667,967
0.3936333,862
0.3952833,666
0.3969667,665
0.3986333,658
0.4003,634
0.4019667,475
0.4036333,496
0.4053,568
0.4069667,529
0.4086333,491
0.4103,583
0.4119667,548
0.4136333,565
0.4153,554
0.4169667,544
0.4186333,773
0.4203,829
0.4219667,628
0.4236333,802
0.4253,722
0.4269667,872
0.4286333,788
0.4303,772
0.4319667,836
0.4336333,1045
0.4353,1027
0.4369667,809
0.4386333,1110
0.4403,832
0.4419667,859
0.4436333,1094
0.4453,991
0.4469667,1231
0.4486333,1090
0.4503,1035
0.4519667,1045
0.4536333,1056
0.4553,1140
0.4569667,1270
0.4586333,1210
0.4603,1264
0.4619667,1318
0.4636333,1272
0.4653,1423
0.4669667,1440
0.4686333,1410
0.4703,1436
0.4719667,1461
0.4736333,1276
0.4753,1374
0.4769667,1278
0.4786333,1471
0.4803,1419
0.4819667,1080
0.4836333,1301
0.4853,1165
0.4869667,1116
0.4886333,1134
0.4903,1068
0.4919667,1002
0.4936333,1219
0.4953,1183
0.4969667,1194
0.4986333,1108
0.5003,982
0.5019667,1042
0.5036333,1021
0.5053,1000
0.5069667,965
0.5086333,939
0.5103,914
0.5119666,886
0.5136333,907
0.5153,822
0.5169666,932
0.5186333,875
0.5203,818
0.5219667,861
0.5236334,903
0.5253,820
0.5269667,737
0.5286334,901
0.5303,868
0.5319667,835
0.5336334,915
0.5353,792
0.5369667,941
0.5386333,940
0.5403,938
0.5419667,985
0.5436333,1032
0.5453,805
0.5469667,1089
0.5486333,1022
0.5503,906
0.5519667,728
0.5536333,798
0.5553,636
0.5569667,881
0.5586333,1042
0.5603,879
0.5619667,906
0.5636333,785
0.5653,819
0.5669667,853
0.5686333,845
0.5703,836
0.5719666,845
0.5736333,853
0.5753,865
0.5769666,877
0.5786333,878
0.5803,880
0.5819666,866
0.5836333,816
0.5853,870
0.5869667,924
0.5886334,849
0.5903,775
0.5919667,1127
0.5936334,1069
0.5953,830
0.5969667,995
0.5986333,1002
0.6003,1008
0.6019667,867
0.6036333,914
0.6053,1010
0.6069667,915
0.6086333,849
0.6103,1150
0.6119667,1125
0.6136333,1023
0.6153,1174
0.6169667,916
0.6186333,1086
0.6203,1003
0.6219667,854
0.6236333,920
0.6253,858
0.6269667,894
0.6286333,883
0.6303,872
0.6319667,925
0.6336333,898
0.6353,872
0.6369666,889
0.6386333,931
0.6403,973
0.6419666,937
0.6436333,901
0.6453,869
0.6469667,876
0.6486334,885
0.6503,833
0.6519667,911
0.6536334,777
0.6553,730
0.6569667,838
0.6586334,819
0.6603,800
0.6619667,801
0.6636333,803
0.6653,810
0.6669667,818
0.6686333,886
0.6703,662
0.6719667,786
0.6736333,950
0.6753,943
0.6769667,961
0.6786333,727
0.6803,924
0.6819667,739
0.6836333,913
0.6853,996
0.6869667,810
0.6886333,799
0.6903,825
0.6919667,874
0.6936333,888
0.6953,840
0.6969666,804
0.6986333,829
0.7003,748
0.7019666,1016
0.7036333,1018
0.7053,883
0.7069666,953
0.7086333,905
0.7103,823
0.7119667,915
0.7136334,808
0.7153,924
0.7169667,765
0.7186334,808
0.7203,850
0.7219667,770
0.7236333,690
0.7253,847
0.7269667,806
0.7286333,880
0.7303,845
0.7319667,811
0.7336333,774
0.7353,806
0.7369667,806
0.7386333,806
0.7403,753
0.7419667,799
0.7436333,845
0.7453,934
0.7469667,1015
0.7486333,932
0.7503,712
0.7519667,745
0.7536333,834
0.7553,907
0.7569667,825
0.7586333,862
0.7603,900
0.7619666,871
0.7636333,843
0.7653,657
0.7669666,923
0.7686333,601
0.7703,749
0.7719667,784
0.7736334,819
0.7753,825
0.7769667,831
0.7786334,828
0.7803,826
0.7819667,807
0.7836334,737
0.7853,727
0.7869667,808
0.7886333,798
0.7903,770
0.7919667,742
0.7936333,950
0.7953,1009
0.7969667,846
0.7986333,831
0.8003,962
0.8019667,828
0.8036333,874
0.8053,1005
0.8069667,1062
0.8086333,906
0.8103,927
0.8119667,853
0.8136333,880
0.8153,839
0.8169667,977
0.8186333,1012
0.8203,800
0.8219666,825
0.8236333,937
0.8253,971
0.8269666,787
0.8286333,816
0.8303,827
0.8319666,888
0.8336333,826
0.8353,764
0.8369667,988
0.8386334,1025
0.8403,774
0.8419667,885
0.8436334,942
0.8453,875
0.8469667,1003
0.8486333,729
0.8503,832
0.8519667,879
0.8536333,876
0.8553,874
0.8569667,833
0.8586333,817
0.8603,1033
0.8619667,1043
0.8636333,1050
0.8653,915
0.8669667,775
0.8686333,726
0.8703,821
0.8719667,950
0.8736333,951
0.8753,645
0.8769667,808
0.8786333,849
0.8803,915
0.8819667,981
0.8836333,1023
0.8853,930
0.8869666,1047
0.8886333,1209
0.8903,1214
0.8919666,1221
0.8936333,1211
0.8953,1193
0.8969667,1117
0.8986334,971
0.9003,1082
0.9019667,1221
0.9036334,1343
0.9053,1329
0.9069667,1041
0.9086334,1422
0.9103,1437
0.9119667,1010
0.9136333,1358
0.9153,1188
0.9169667,1219
0.9186333,1102
0.9203,1423
0.9219667,1403
0.9236333,963
0.9253,1162
0.9269667,1371
0.9286333,1313
0.9303,1135
0.9319667,1358
0.9336333,1219
0.9353,1213
0.9369667,1229
0.9386333,1218
0.9403,1208
0.9419667,1242
0.9436333,1266
0.9453,1291
0.9469666,1294
0.9486333,1296
0.9503,1023
0.9519666,1303
0.9536333,949
0.9553,1162
0.9569666,884
0.9586333,1085
0.9603,1052
0.9619667,1177
0.9636334,1001
0.9653,857
0.9669667,1111
0.9686334,1029
0.9703,993
0.9719667,663
0.9736333,1103
0.9753,981
0.9769667,852
0.9786333,822
0.9803,1014
0.9819667,988
0.9836333,962
0.9853,962
0.9869667,899
0.9886333,783
0.9903,723
0.9919667,831
0.9936333,833
0.9953,864
0.9969667,821
0.9986333,842
1.0003,862
1.001967,767
1.003633,864
1.0053,807
1.006967,804
1.008633,801
1.0103,837
1.011967,870
1.013633,902
1.0153,894
1.016967,741
1.018633,895
1.0203,797
1.021967,928
1.023633,1037
1.0253,1010
1.026967,880
1.028633,693
1.0303,938
1.031967,869
1.033633,854
1.0353,958
1.036967,1003
1.038633,935
1.0403,865
1.041967,683
1.043633,718
1.0453,909
1.046967,861
1.048633,860
1.0503,819
1.051967,947
1.053633,821
1.0553,695
1.056967,860
1.058633,713
1.0603,794
1.061967,689
1.063633,707
1.0653,726
1.066967,928
1.068633,870
1.0703,811
1.071967,831
1.073633,707
1.0753,802
1.076967,787
1.078633,772
1.0803,705
1.081967,812
1.083633,919
1.0853,858
1.086967,780
1.088633,844
1.0903,998
1.091967,924
1.093633,849
1.0953,962
1.096967,895
1.098633,883
1.1003,865
1.101967,893
1.103633,921
1.1053,922
1.106967,900
1.108633,922
1.1103,944
1.111967,968
1.113633,643
1.1153,886
1.116967,926
1.118633,862
1.1203,963
1.121967,798
1.123633,858
1.1253,863
1.126967,828
1.128633,792
1.1303,796
1.131967,800
1.133633,859
1.1353,838
1.136967,817
1.138633,823
1.1403,773
1.141967,640
1.143633,942
1.1453,943
1.146967,1008
1.148633,717
1.1503,787
1.151967,864
1.153633,883
1.1553,808
1.156967,734
1.158633,913
1.1603,988
1.161967,919
1.163633,1080
1.1653,789
1.166967,1022
1.168633,822
1.1703,1052
1.171967,1035
1.173633,745
1.1753,774
1.176967,812
1.178633,727
1.1803,883
1.181967,853
1.183633,823
1.1853,814
1.186967,819
1.188633,823
1.1903,846
1.191967,868
1.193633,871
1.1953,716
1.196967,813
1.198633,837
