"SampleName","A2Rd2_02-36"
"Target Mass 1",
"Column Name","IA-3 (3um, 4.6X100)"
"Channel","QDa 1: SIR Ch1"
0.00195,352
0.003616667,438
0.005283333,511
0.00695,587
0.008616666,658
0.01028333,632
0.01195,571
0.01361667,506
0.01528333,659
0.01695,567
0.01861667,531
0.02028333,474
0.02195,591
0.02361667,592
0.02528333,601
0.02695,544
0.02861667,471
0.03028333,553
0.03195,551
0.03361667,490
0.03528333,586
0.03695,615
0.03861667,644
0.04028333,618
0.04195,621
0.04361667,576
0.04528333,574
0.04695,573
0.04861667,450
0.05028334,435
0.05195,399
0.05361667,363
0.05528333,416
0.05695,611
0.05861667,552
0.06028333,611
0.06195,551
0.06361666,532
0.06528334,528
0.06695,528
0.06861667,527
0.07028333,626
0.07195,650
0.07361667,634
0.07528333,703
0.07695,688
0.07861666,558
0.08028334,458
0.08195,563
0.08361667,600
0.08528333,575
0.08695,529
0.08861667,403
0.09028333,615
0.09195,529
0.09361666,487
0.09528334,524
0.09695,579
0.09861667,542
0.1002833,505
0.10195,535
0.1036167,543
0.1052833,551
0.10695,522
0.1086167,494
0.1102833,466
0.11195,608
0.1136167,596
0.1152833,614
0.11695,632
0.1186167,545
0.1202833,541
0.12195,610
0.1236167,585
0.1252833,577
0.12695,411
0.1286167,408
0.1302833,540
0.13195,447
0.1336167,522
0.1352833,518
0.13695,515
0.1386167,532
0.1402833,554
0.14195,564
0.1436167,600
0.1452833,420
0.14695,497
0.1486167,574
0.1502833,557
0.15195,536
0.1536167,510
0.1552833,523
0.15695,489
0.1586167,485
0.1602833,481
0.16195,435
0.1636167,471
0.1652833,507
0.16695,613
0.1686167,585
0.1702833,556
0.17195,561
0.1736167,537
0.1752833,513
0.17695,469
0.1786167,502
0.1802833,671
0.18195,664
0.1836167,635
0.1852833,559
0.18695,546
0.1886167,558
0.1902833,493
0.19195,469
0.1936167,543
0.1952833,588
0.19695,576
0.1986167,434
0.2002833,552
0.20195,474
0.2036167,408
0.2052833,484
0.20695,428
0.2086167,434
0.2102833,440
0.21195,452
0.2136167,465
0.2152833,537
0.21695,600
0.2186167,641
0.2202833,425
0.22195,609
0.2236167,497
0.2252833,604
0.22695,562
0.2286167,631
0.2302833,510
0.23195,395
0.2336167,588
0.2352833,434
0.23695,424
0.2386167,428
0.2402833,457
0.24195,485
0.2436167,494
0.2452833,490
0.24695,528
0.2486167,530
0.2502833,391
0.25195,641
0.2536167,557
0.2552833,511
0.25695,482
0.2586167,460
0.2602833,446
0.26195,570
0.2636333,671
0.2652833,633
0.26695,537
0.2686167,468
0.2702833,467
0.27195,374
0.2736167,465
0.2752833,438
0.27695,455
0.2786167,479
0.2803,503
0.28195,615
0.2836167,605
0.2852833,595
0.28695,422
0.2886167,462
0.2902833,603
0.29195,550
0.2936167,497
0.2952833,438
0.29695,628
0.2986333,586
0.3002833,567
0.30195,571
0.3036167,557
0.3052833,543
0.30695,549
0.3086167,512
0.3102833,514
0.31195,528
0.3136167,490
0.3153,451
0.31695,457
0.3186333,463
0.3203,492
0.3219667,520
0.3236167,489
0.3252833,459
0.32695,476
0.3286167,492
0.3302833,509
0.33195,525
0.3336333,443
0.3353,496
0.33695,435
0.3386167,414
0.3402833,473
0.34195,452
0.3436167,430
0.3452833,486
0.34695,442
0.3486167,566
0.3503,509
0.3519667,452
0.3536333,542
0.3552833,459
0.35695,567
0.3586167,512
0.3602833,503
0.36195,612
0.3636167,616
0.3652833,926
0.36695,1579
0.3686333,2394
0.3703,3391
0.3719667,3457
0.3736333,3734
0.3753,4388
0.37695,4540
0.3786333,5367
0.3802833,4949
0.3819667,5196
0.3836333,5279
0.3853,4266
0.3869667,4433
0.3886333,4010
0.3902833,3517
0.3919667,2949
0.3936167,2366
0.3953,1976
0.39695,1544
0.3986333,1361
0.4002833,1529
0.4019667,1420
0.4036333,1150
0.4053,1149
0.4069667,996
0.4086333,958
0.4103,921
0.4119667,1158
0.4136333,1225
0.4153,1241
0.4169667,1170
0.4186333,1172
0.4203,1174
0.4219667,1201
0.4236333,1182
0.4253,1164
0.4269667,1256
0.4286333,1400
0.4303,1393
0.4319667,1169
0.4336333,1539
0.4353,1677
0.4369667,2334
0.4386333,3339
0.4403,5912
0.4419667,9896
0.4436333,15784
0.4453,22872
0.4469667,35376
0.4486333,49648
0.4503,66448
0.4519667,85536
0.4536333,103792
0.4553,119760
0.4569667,133440
0.4586333,150336
0.4603,157760
0.4619667,164864
0.4636333,172288
0.4653,174592
0.4669667,179456
0.4686333,187264
0.4703,193600
0.4719667,204352
0.4736333,216448
0.4753,223360
0.4769667,221952
0.4786333,221440
0.4803,218240
0.4819667,207936
0.4836333,191808
0.4853,171264
0.4869667,149760
0.4886333,128528
0.4903,112272
0.4919667,92032
0.4936333,74224
0.4953,59888
0.4969667,50096
0.4986333,39136
0.5003,31020
0.5019667,25248
0.5036333,20372
0.5053,16144
0.5069667,13160
0.5086333,11220
0.5103,9340
0.5119666,7679
0.5136333,6933
0.5153,6248
0.5169666,5456
0.5186333,4146
0.5203,4686
0.5219667,4285
0.5236334,3928
0.5253,3563
0.5269667,3206
0.5286334,3255
0.5303,3166
0.5319667,3009
0.5336334,2968
0.5353,2948
0.5369667,2860
0.5386333,3034
0.5403,2445
0.5419667,2444
0.5436333,2171
0.5453,1988
0.5469667,1891
0.5486333,2103
0.5503,2053
0.5519667,2002
0.5536333,1807
0.5553,1749
0.5569667,1811
0.5586333,1690
0.5603,1732
0.5619667,1443
0.5636333,1685
0.5653,1425
0.5669667,1560
0.5686333,1825
0.5703,1752
0.5719666,1451
0.5736333,1277
0.5753,1259
0.5769666,1414
0.5786333,1425
0.5803,1214
0.5819666,1377
0.5836333,1196
0.5853,1291
0.5869667,1442
0.5886334,1460
0.5903,1269
0.5919667,1376
0.5936334,1136
0.5953,1195
0.5969667,1421
0.5986333,1387
0.6003,1326
0.6019667,1264
0.6036333,1303
0.6053,1341
0.6069667,1347
0.6086333,1513
0.6103,1093
0.6119667,1160
0.6136333,1303
0.6153,1241
0.6169667,1053
0.6186333,1088
0.6203,1089
0.6219667,1173
0.6236333,1160
0.6253,1148
0.6269667,1098
0.6286333,1040
0.6303,1123
0.6319667,1056
0.6336333,902
0.6353,1027
0.6369666,990
0.6386333,981
0.6403,1061
0.6419666,940
0.6436333,913
0.6453,1012
0.6469667,937
0.6486334,866
0.6503,1039
0.6519667,765
0.6536334,887
0.6553,894
0.6569667,860
0.6586334,985
0.6603,1010
0.6619667,887
0.6636333,765
0.6653,712
0.6669667,886
0.6686333,764
0.6703,939
0.6719667,809
0.6736333,999
0.6753,727
0.6769667,981
0.6786333,868
0.6803,946
0.6819667,876
0.6836333,931
0.6853,646
0.6869667,921
0.6886333,770
0.6903,847
0.6919667,821
0.6936333,809
0.6953,850
0.6969666,785
0.6986333,745
0.7003,685
0.7019666,711
0.7036333,704
0.7053,689
0.7069666,722
0.7086333,737
0.7103,751
0.7119667,762
0.7136334,773
0.7153,660
0.7169667,765
0.7186334,640
0.7203,666
0.7219667,809
0.7236333,759
0.7253,665
0.7269667,890
0.7286333,871
0.7303,777
0.7319667,700
0.7336333,763
0.7353,750
0.7369667,699
0.7386333,877
0.7403,877
0.7419667,786
0.7436333,816
0.7453,686
0.7469667,695
0.7486333,795
0.7503,772
0.7519667,864
0.7536333,821
0.7553,757
0.7569667,559
0.7586333,953
0.7603,758
0.7619666,860
0.7636333,662
0.7653,640
0.7669666,727
0.7686333,718
0.7703,669
0.7719667,753
0.7736334,778
0.7753,782
0.7769667,761
0.7786334,741
0.7803,671
0.7819667,770
0.7836334,765
0.7853,850
0.7869667,916
0.7886333,866
0.7903,747
0.7919667,752
0.7936333,763
0.7953,857
0.7969667,625
0.7986333,814
0.8003,815
0.8019667,721
0.8036333,724
0.8053,671
0.8069667,686
0.8086333,700
0.8103,745
0.8119667,797
0.8136333,765
0.8153,799
0.8169667,833
0.8186333,815
0.8203,683
0.8219666,960
0.8236333,960
0.8253,726
0.8269666,836
0.8286333,874
0.8303,780
0.8319666,820
0.8336333,804
0.8353,788
0.8369667,885
0.8386334,907
0.8403,929
0.8419667,897
0.8436334,865
0.8453,746
0.8469667,957
0.8486333,888
0.8503,973
0.8519667,840
0.8536333,1006
0.8553,1029
0.8569667,686
0.8586333,1002
0.8603,901
0.8619667,849
0.8636333,590
0.8653,818
0.8669667,780
0.8686333,838
0.8703,750
0.8719667,624
0.8736333,777
0.8753,758
0.8769667,836
0.8786333,939
0.8803,1417
0.8819667,1675
0.8836333,2216
0.8853,2464
0.8869666,2980
0.8886333,2934
0.8903,3223
0.8919666,3298
0.8936333,3373
0.8953,3410
0.8969667,3347
0.8986334,3284
0.9003,3364
0.9019667,3443
0.9036334,3537
0.9053,3619
0.9069667,3499
0.9086334,3224
0.9103,3569
0.9119667,3698
0.9136333,3668
0.9153,3482
0.9169667,3576
0.9186333,3669
0.9203,3243
0.9219667,3516
0.9236333,3355
0.9253,3292
0.9269667,3230
0.9286333,3246
0.9303,3267
0.9319667,3223
0.9336333,3179
0.9353,3285
0.9369667,3439
0.9386333,3455
0.9403,3028
0.9419667,2977
0.9436333,2954
0.9453,2813
0.9469666,2672
0.9486333,2663
0.9503,2916
0.9519666,2427
0.9536333,2614
0.9553,2223
0.9569666,2395
0.9586333,2009
0.9603,2208
0.9619667,2136
0.9636334,1917
0.9653,1661
0.9669667,1688
0.9686334,1571
0.9703,1512
0.9719667,1415
0.9736333,1444
0.9753,1399
0.9769667,1184
0.9786333,1258
0.9803,1185
0.9819667,1012
0.9836333,848
0.9853,972
0.9869667,887
0.9886333,724
0.9903,1002
0.9919667,655
0.9936333,613
0.9953,782
0.9969667,669
0.9986333,652
1.0003,814
1.001967,750
1.003633,685
1.0053,718
1.006967,461
1.008633,603
1.0103,668
1.011967,683
1.013633,704
1.0153,689
1.016967,675
1.018633,555
1.0203,692
1.021967,680
1.023633,476
1.0253,459
1.026967,680
1.028633,682
1.0303,590
1.031967,604
1.033633,423
1.0353,685
1.036967,608
1.038633,843
1.0403,736
1.041967,757
1.043633,721
1.0453,741
1.046967,525
1.048633,753
1.0503,758
1.051967,752
1.053633,716
1.0553,711
1.056967,582
1.058633,660
1.0603,659
1.061967,618
1.063633,793
1.0653,767
1.066967,852
1.068633,663
1.0703,663
1.071967,744
1.073633,696
1.0753,818
1.076967,781
1.078633,766
1.0803,797
1.081967,648
1.083633,693
1.0853,477
1.086967,775
1.088633,669
1.0903,867
1.091967,560
1.093633,612
1.0953,669
1.096967,545
1.098633,556
1.1003,567
1.101967,609
1.103633,652
1.1053,756
1.106967,714
1.108633,683
1.1103,652
1.111967,713
1.113633,725
1.1153,736
1.116967,634
1.118633,559
1.1203,601
1.121967,643
1.123633,602
1.1253,561
1.126967,691
1.128633,734
1.1303,675
1.131967,639
1.133633,721
1.1353,715
1.136967,681
1.138633,646
1.1403,601
1.141967,621
1.143633,644
1.1453,687
1.146967,730
1.148633,740
1.1503,750
1.151967,742
1.153633,734
1.1553,695
1.156967,785
1.158633,844
1.1603,644
1.161967,739
1.163633,785
1.1653,778
1.166967,770
1.168633,782
1.1703,813
1.171967,845
1.173633,829
1.1753,835
1.176967,830
1.178633,824
1.1803,697
1.181967,684
1.183633,857
1.1853,778
1.186967,718
1.188633,855
1.1903,952
1.191967,860
1.193633,744
1.1953,818
1.196967,892
1.198633,828
