"SampleName","A2Rd2_02-40"
"Target Mass 1",
"Column Name","IA-3 (3um, 4.6X100)"
"Channel","QDa 1: SIR Ch1"
0.00195,370
0.003616667,499
0.005283333,444
0.00695,560
0.008616666,569
0.01028333,559
0.01195,550
0.01361667,614
0.01528333,604
0.01695,654
0.01861667,549
0.02028333,630
0.02195,535
0.02361667,518
0.02528333,601
0.02695,437
0.02861667,504
0.03028333,731
0.03195,633
0.03361667,581
0.03528333,564
0.03695,497
0.03861667,490
0.04028333,467
0.04195,444
0.04361667,460
0.04528333,438
0.04695,425
0.04861667,412
0.05028334,499
0.05195,586
0.05361667,589
0.05528333,549
0.05695,586
0.05861667,582
0.06028333,577
0.06195,537
0.06361666,526
0.06528334,507
0.06695,511
0.06861667,515
0.07028333,560
0.07195,564
0.07361667,557
0.07528333,549
0.07695,577
0.07861666,439
0.08028334,484
0.08195,530
0.08361667,466
0.08528333,402
0.08695,470
0.08861667,507
0.09028333,511
0.09195,510
0.09361666,415
0.09528334,559
0.09695,516
0.09861667,591
0.1002833,501
0.10195,627
0.1036167,389
0.1052833,444
0.10695,617
0.1086167,694
0.1102833,293
0.11195,632
0.1136167,563
0.1152833,544
0.11695,548
0.1186167,552
0.1202833,421
0.12195,470
0.1236167,518
0.1252833,436
0.12695,430
0.1286167,424
0.1302833,416
0.13195,408
0.1336167,441
0.1352833,500
0.13695,498
0.1386167,515
0.1402833,613
0.14195,627
0.1436167,436
0.1452833,492
0.14695,593
0.1486167,665
0.1502833,639
0.15195,401
0.1536167,463
0.1552833,477
0.15695,423
0.1586167,424
0.1602833,425
0.16195,524
0.1636167,573
0.1652833,488
0.16695,403
0.1686167,433
0.1702833,462
0.17195,482
0.1736167,501
0.1752833,459
0.17695,469
0.1786167,479
0.1802833,546
0.18195,499
0.1836167,452
0.1852833,537
0.18695,543
0.1886167,568
0.1902833,405
0.19195,596
0.1936167,564
0.1952833,540
0.19695,482
0.1986167,563
0.2002833,500
0.20195,538
0.2036167,479
0.2052833,497
0.20695,515
0.2086167,501
0.2102833,487
0.21195,580
0.2136167,406
0.2152833,577
0.21695,435
0.2186167,491
0.2202833,593
0.22195,498
0.2236167,403
0.2252833,537
0.22695,487
0.2286167,540
0.2302833,574
0.23195,563
0.2336167,469
0.2352833,430
0.23695,390
0.2386167,462
0.2402833,606
0.24195,596
0.2436167,483
0.2452833,484
0.24695,491
0.2486167,440
0.2502833,390
0.25195,403
0.2536167,402
0.2552833,461
0.25695,456
0.2586167,451
0.2602833,398
0.26195,387
0.2636167,439
0.2652833,490
0.26695,531
0.2686167,445
0.2702833,482
0.27195,605
0.2736167,557
0.2752833,464
0.27695,468
0.2786167,431
0.2803,467
0.28195,504
0.2836167,565
0.2852833,556
0.28695,548
0.2886167,554
0.2902833,519
0.29195,483
0.2936167,473
0.2952833,505
0.29695,411
0.2986333,492
0.3002833,573
0.30195,589
0.3036167,630
0.3052833,444
0.30695,530
0.3086167,550
0.3102833,569
0.31195,573
0.3136167,506
0.3153,604
0.31695,571
0.3186167,649
0.3202833,476
0.3219667,421
0.3236167,537
0.3253,586
0.3269667,568
0.3286333,577
0.3302833,596
0.3319667,472
0.3336333,498
0.3353,536
0.3369667,555
0.3386333,490
0.3402833,505
0.3419667,521
0.3436167,524
0.3453,527
0.3469667,531
0.3486333,535
0.3503,496
0.3519667,456
0.3536333,477
0.3553,528
0.3569667,511
0.3586333,512
0.3602833,513
0.3619667,786
0.3636333,882
0.3653,833
0.3669667,1406
0.3686333,1438
0.3703,3312
0.3719667,3479
0.3736333,3770
0.3753,3937
0.3769667,4253
0.3786333,4463
0.3803,4902
0.3819667,5017
0.3836333,4594
0.3853,4360
0.3869667,4042
0.3886333,4079
0.3903,3697
0.3919667,2691
0.3936333,2204
0.3953,1904
0.3969667,1689
0.3986333,1438
0.4003,1210
0.4019667,1245
0.4036333,1060
0.4053,1216
0.4069667,1127
0.4086333,1150
0.4103,1258
0.4119667,1000
0.4136333,1196
0.4153,1144
0.4169667,1213
0.4186333,1174
0.4203,1135
0.4219667,1154
0.4236333,1364
0.4253,1517
0.4269667,1354
0.4286333,1196
0.4303,1341
0.4319667,1330
0.4336333,1318
0.4353,1673
0.4369667,1772
0.4386333,3877
0.4403,5322
0.4419667,8836
0.4436333,13992
0.4453,22496
0.4469667,34272
0.4486333,47344
0.4503,66336
0.4519667,85104
0.4536333,102384
0.4553,121936
0.4569667,137216
0.4586333,150400
0.4603,168448
0.4619667,175552
0.4636333,179008
0.4653,188672
0.4669667,191680
0.4686333,199616
0.4703,205952
0.4719667,209216
0.4736333,219840
0.4753,225984
0.4769667,232576
0.4786333,236736
0.4803,231296
0.4819667,217088
0.4836333,206720
0.4853,188416
0.4869667,168768
0.4886333,149184
0.4903,131328
0.4919667,107904
0.4936333,90992
0.4953,75552
0.4969667,61296
0.4986333,47728
0.5003,38448
0.5019667,31188
0.5036333,24692
0.5053,19932
0.5069667,16456
0.5086333,13416
0.5103,11336
0.5119666,9776
0.5136333,8616
0.5153,7056
0.5169666,5564
0.5186333,5585
0.5203,5061
0.5219667,4858
0.5236334,4749
0.5253,3884
0.5269667,3633
0.5286334,3411
0.5303,3513
0.5319667,3022
0.5336334,3112
0.5353,3010
0.5369667,2723
0.5386333,2835
0.5403,2697
0.5419667,2503
0.5436333,2514
0.5453,2338
0.5469667,2477
0.5486333,2517
0.5503,2427
0.5519667,2062
0.5536333,2120
0.5553,1730
0.5569667,1824
0.5586333,2045
0.5603,1950
0.5619667,1935
0.5636333,1603
0.5653,1791
0.5669667,1561
0.5686333,1594
0.5703,1329
0.5719666,1430
0.5736333,1576
0.5753,1466
0.5769666,1150
0.5786333,1491
0.5803,1313
0.5819666,1291
0.5836333,1361
0.5853,1336
0.5869667,1385
0.5886334,1392
0.5903,1002
0.5919667,1277
0.5936334,1259
0.5953,1264
0.5969667,1343
0.5986333,1347
0.6003,1532
0.6019667,1508
0.6036333,1372
0.6053,1393
0.6069667,1423
0.6086333,1413
0.6103,1144
0.6119667,1448
0.6136333,1122
0.6153,1191
0.6169667,1105
0.6186333,1165
0.6203,1108
0.6219667,1114
0.6236333,1119
0.6253,1233
0.6269667,1163
0.6286333,1094
0.6303,1100
0.6319667,1041
0.6336333,790
0.6353,1098
0.6369666,1104
0.6386333,867
0.6403,981
0.6419666,953
0.6436333,825
0.6453,927
0.6469667,998
0.6486334,870
0.6503,934
0.6519667,1035
0.6536334,1029
0.6553,1028
0.6569667,1069
0.6586334,791
0.6603,1005
0.6619667,959
0.6636333,892
0.6653,819
0.6669667,1154
0.6686333,1118
0.6703,900
0.6719667,729
0.6736333,851
0.6753,1121
0.6769667,1093
0.6786333,809
0.6803,916
0.6819667,1073
0.6836333,703
0.6853,837
0.6869667,731
0.6886333,846
0.6903,962
0.6919667,897
0.6936333,945
0.6953,630
0.6969666,797
0.6986333,789
0.7003,882
0.7019666,643
0.7036333,696
0.7053,849
0.7069666,881
0.7086333,759
0.7103,792
0.7119667,824
0.7136334,793
0.7153,846
0.7169667,796
0.7186334,745
0.7203,771
0.7219667,845
0.7236333,604
0.7253,931
0.7269667,708
0.7286333,778
0.7303,729
0.7319667,617
0.7336333,735
0.7353,869
0.7369667,860
0.7386333,845
0.7403,711
0.7419667,926
0.7436333,811
0.7453,735
0.7469667,830
0.7486333,762
0.7503,950
0.7519667,963
0.7536333,865
0.7553,811
0.7569667,905
0.7586333,739
0.7603,612
0.7619666,779
0.7636333,757
0.7653,730
0.7669666,767
0.7686333,747
0.7703,673
0.7719667,599
0.7736334,813
0.7753,829
0.7769667,857
0.7786334,795
0.7803,759
0.7819667,908
0.7836334,705
0.7853,812
0.7869667,814
0.7886333,816
0.7903,733
0.7919667,901
0.7936333,811
0.7953,720
0.7969667,928
0.7986333,772
0.8003,768
0.8019667,681
0.8036333,862
0.8053,863
0.8069667,761
0.8086333,948
0.8103,952
0.8119667,851
0.8136333,884
0.8153,917
0.8169667,878
0.8186333,838
0.8203,896
0.8219666,991
0.8236333,1026
0.8253,982
0.8269666,961
0.8286333,886
0.8303,826
0.8319666,862
0.8336333,898
0.8353,1010
0.8369667,965
0.8386334,1053
0.8403,956
0.8419667,880
0.8436334,1025
0.8453,909
0.8469667,998
0.8486333,1008
0.8503,1026
0.8519667,918
0.8536333,1032
0.8553,776
0.8569667,892
0.8586333,793
0.8603,900
0.8619667,925
0.8636333,950
0.8653,916
0.8669667,914
0.8686333,913
0.8703,849
0.8719667,728
0.8736333,602
0.8753,724
0.8769667,915
0.8786333,1033
0.8803,1344
0.8819667,1664
0.8836333,2076
0.8853,1982
0.8869666,2815
0.8886333,3367
0.8903,3071
0.8919666,3315
0.8936333,3551
0.8953,3585
0.8969667,3619
0.8986334,3654
0.9003,3689
0.9019667,3930
0.9036334,3855
0.9053,3797
0.9069667,3598
0.9086334,3750
0.9103,3823
0.9119667,3899
0.9136333,3822
0.9153,3638
0.9169667,3656
0.9186333,3817
0.9203,3793
0.9219667,3768
0.9236333,3999
0.9253,3390
0.9269667,4107
0.9286333,3712
0.9303,3626
0.9319667,3846
0.9336333,3693
0.9353,3315
0.9369667,3502
0.9386333,3234
0.9403,3026
0.9419667,2867
0.9436333,3057
0.9453,2940
0.9469666,2822
0.9486333,3009
0.9503,2506
0.9519666,2369
0.9536333,2549
0.9553,2434
0.9569666,2225
0.9586333,2512
0.9603,2275
0.9619667,1857
0.9636334,1981
0.9653,1936
0.9669667,1390
0.9686334,1726
0.9703,1557
0.9719667,1422
0.9736333,1388
0.9753,1266
0.9769667,1168
0.9786333,1156
0.9803,1054
0.9819667,1079
0.9836333,1102
0.9853,923
0.9869667,854
0.9886333,776
0.9903,818
0.9919667,803
0.9936333,763
0.9953,801
0.9969667,704
0.9986333,569
1.0003,686
1.001967,684
1.003633,592
1.0053,697
1.006967,738
1.008633,710
1.0103,584
1.011967,584
1.013633,688
1.0153,594
1.016967,499
1.018633,767
1.0203,684
1.021967,593
1.023633,617
1.0253,670
1.026967,761
1.028633,727
1.0303,603
1.031967,579
1.033633,621
1.0353,663
1.036967,652
1.038633,642
1.0403,478
1.041967,620
1.043633,753
1.0453,752
1.046967,578
1.048633,761
1.0503,621
1.051967,741
1.053633,694
1.0553,646
1.056967,601
1.058633,568
1.0603,696
1.061967,628
1.063633,560
1.0653,704
1.066967,583
1.068633,722
1.0703,604
1.071967,704
1.073633,587
1.0753,656
1.076967,609
1.078633,602
1.0803,595
1.081967,729
1.083633,730
1.0853,724
1.086967,634
1.088633,569
1.0903,882
1.091967,836
1.093633,687
1.0953,857
1.096967,694
1.098633,629
1.1003,603
1.101967,627
1.103633,605
1.1053,639
1.106967,673
1.108633,674
1.1103,778
1.111967,738
1.113633,698
1.1153,738
1.116967,653
1.118633,624
1.1203,512
1.121967,653
1.123633,743
1.1253,767
1.126967,773
1.128633,570
1.1303,689
1.131967,787
1.133633,801
1.1353,574
1.136967,577
1.138633,740
1.1403,727
1.141967,759
1.143633,716
1.1453,806
1.146967,553
1.148633,671
1.1503,629
1.151967,770
1.153633,806
1.1553,696
1.156967,791
1.158633,782
1.1603,828
1.161967,700
1.163633,886
1.1653,796
1.166967,862
1.168633,941
1.1703,885
1.171967,965
1.173633,925
1.1753,988
1.176967,795
1.178633,964
1.1803,850
1.181967,1014
1.183633,854
1.1853,1032
1.186967,837
1.188633,809
1.1903,822
1.191967,786
1.193633,829
1.1953,872
1.196967,751
1.198633,966
