"SampleName","A2Rd2_02-39"
"Target Mass 1",
"Column Name","IA-3 (3um, 4.6X100)"
"Channel","QDa 1: SIR Ch1"
0.00195,368
0.003616667,469
0.005283333,365
0.00695,514
0.008616666,471
0.01028333,428
0.01195,498
0.01361667,390
0.01528333,430
0.01695,516
0.01861667,390
0.02028333,562
0.02195,525
0.02361667,471
0.02528333,418
0.02695,502
0.02861667,479
0.03028333,429
0.03195,470
0.03361667,455
0.03528333,440
0.03695,436
0.03861667,539
0.04028333,618
0.04195,555
0.04361667,459
0.04528333,564
0.04695,510
0.04861667,331
0.05028334,457
0.05195,432
0.05361667,407
0.05528333,436
0.05695,465
0.05861667,514
0.06028333,468
0.06195,422
0.06361666,500
0.06528334,478
0.06695,400
0.06861667,512
0.07028333,469
0.07195,437
0.07361667,526
0.07528333,450
0.07695,487
0.07861666,571
0.08028334,601
0.08195,366
0.08361667,419
0.08528333,480
0.08695,448
0.08861667,424
0.09028333,388
0.09195,526
0.09361666,501
0.09528334,443
0.09695,530
0.09861667,412
0.1002833,507
0.10195,493
0.1036167,498
0.1052833,467
0.10695,490
0.1086167,370
0.1102833,432
0.11195,493
0.1136167,411
0.1152833,474
0.11695,536
0.1186167,519
0.1202833,501
0.12195,445
0.1236167,423
0.1252833,431
0.12695,456
0.1286167,503
0.1302833,459
0.13195,415
0.1336167,418
0.1352833,408
0.13695,501
0.1386167,532
0.1402833,433
0.14195,505
0.1436167,506
0.1452833,422
0.14695,489
0.1486167,466
0.1502833,451
0.15195,473
0.1536167,462
0.1552833,452
0.15695,511
0.1586167,391
0.1602833,358
0.16195,464
0.1636167,453
0.1652833,442
0.16695,454
0.1686167,446
0.1702833,438
0.17195,407
0.1736167,488
0.1752833,501
0.17695,560
0.1786167,375
0.1802833,529
0.18195,417
0.1836167,465
0.1852833,528
0.18695,551
0.1886167,511
0.1902833,457
0.19195,508
0.1936333,556
0.1952833,409
0.19695,534
0.1986167,464
0.2002833,369
0.2019667,554
0.2036167,459
0.2052833,364
0.20695,418
0.2086167,461
0.2103,492
0.21195,363
0.2136167,403
0.2152833,464
0.21695,514
0.2186167,460
0.2202833,440
0.22195,446
0.2236167,459
0.2252833,471
0.22695,460
0.2286333,449
0.2302833,441
0.23195,433
0.2336167,447
0.2352833,462
0.23695,484
0.2386167,325
0.2403,522
0.24195,431
0.2436167,420
0.2453,413
0.24695,405
0.2486167,405
0.2502833,455
0.25195,443
0.2536333,431
0.2552833,476
0.25695,520
0.2586167,456
0.2602833,392
0.26195,496
0.2636333,511
0.2652833,400
0.26695,349
0.2686167,387
0.2703,391
0.27195,402
0.2736167,488
0.2752833,464
0.27695,485
0.2786167,538
0.2803,483
0.28195,427
0.2836167,480
0.2852833,537
0.2869667,513
0.2886167,437
0.2903,571
0.29195,521
0.2936167,523
0.2952833,484
0.29695,543
0.2986333,506
0.3002833,469
0.3019667,528
0.3036167,475
0.3053,513
0.30695,502
0.3086167,519
0.3102833,574
0.31195,566
0.3136167,508
0.3153,451
0.31695,419
0.3186333,499
0.3202833,520
0.3219667,488
0.3236167,456
0.3252833,490
0.3269667,534
0.3286167,512
0.3303,490
0.33195,461
0.3336333,511
0.3353,526
0.3369667,412
0.3386333,395
0.3403,482
0.3419667,465
0.3436333,447
0.3453,435
0.3469667,436
0.3486333,517
0.3503,505
0.3519667,493
0.3536333,580
0.3553,598
0.3569667,532
0.3586333,468
0.3603,580
0.3619667,726
0.3636333,905
0.3653,1116
0.3669667,2091
0.3686333,3150
0.3703,3878
0.3719667,4199
0.3736333,3945
0.3753,4084
0.3769667,4224
0.3786333,5757
0.3803,5483
0.3819667,5770
0.3836333,5453
0.3853,5025
0.3869667,4147
0.3886333,3460
0.3903,3396
0.3919667,2484
0.3936333,1783
0.3953,1703
0.3969667,1380
0.3986333,1325
0.4003,962
0.4019667,1063
0.4036333,851
0.4053,1039
0.4069667,917
0.4086333,1012
0.4103,1114
0.4119667,1078
0.4136333,752
0.4153,1198
0.4169667,1229
0.4186333,956
0.4203,1075
0.4219667,961
0.4236333,1115
0.4253,833
0.4269667,1196
0.4286333,813
0.4303,980
0.4319667,1630
0.4336333,1815
0.4353,2656
0.4369667,3945
0.4386333,7534
0.4403,10852
0.4419667,17644
0.4436333,26540
0.4453,35808
0.4469667,49184
0.4486333,65344
0.4503,80768
0.4519667,95504
0.4536333,108064
0.4553,121312
0.4569667,134080
0.4586333,139456
0.4603,149120
0.4619667,152448
0.4636333,153152
0.4653,158400
0.4669667,160576
0.4686333,168192
0.4703,175680
0.4719667,184000
0.4736333,192960
0.4753,199680
0.4769667,205760
0.4786333,204352
0.4803,197056
0.4819667,194560
0.4836333,178368
0.4853,162368
0.4869667,144192
0.4886333,123456
0.4903,103424
0.4919667,88592
0.4936333,73312
0.4953,60448
0.4969667,51072
0.4986333,38448
0.5003,31396
0.5019667,25324
0.5036333,20508
0.5053,16044
0.5069667,12676
0.5086333,10468
0.5103,8592
0.5119666,8260
0.5136333,6214
0.5153,5497
0.5169666,5392
0.5186333,5066
0.5203,4044
0.5219667,4352
0.5236334,3926
0.5253,3690
0.5269667,3435
0.5286334,3088
0.5303,2763
0.5319667,2970
0.5336334,2671
0.5353,2481
0.5369667,2484
0.5386333,2422
0.5403,2565
0.5419667,1935
0.5436333,2255
0.5453,2259
0.5469667,2259
0.5486333,1992
0.5503,1906
0.5519667,2024
0.5536333,1759
0.5553,1495
0.5569667,1798
0.5586333,1691
0.5603,1585
0.5619667,1463
0.5636333,1570
0.5653,1307
0.5669667,1603
0.5686333,1495
0.5703,1311
0.5719666,1228
0.5736333,1372
0.5753,1352
0.5769666,1331
0.5786333,1206
0.5803,1048
0.5819666,1303
0.5836333,1171
0.5853,1195
0.5869667,1136
0.5886334,1315
0.5903,1346
0.5919667,1335
0.5936334,1357
0.5953,1448
0.5969667,1226
0.5986333,1286
0.6003,1213
0.6019667,1140
0.6036333,1176
0.6053,1213
0.6069667,1175
0.6086333,1196
0.6103,1217
0.6119667,1056
0.6136333,1191
0.6153,1184
0.6169667,1238
0.6186333,1089
0.6203,833
0.6219667,1066
0.6236333,978
0.6253,1043
0.6269667,1073
0.6286333,1069
0.6303,1085
0.6319667,1004
0.6336333,943
0.6353,1002
0.6369666,871
0.6386333,902
0.6403,893
0.6419666,845
0.6436333,798
0.6453,556
0.6469667,832
0.6486334,773
0.6503,886
0.6519667,859
0.6536334,671
0.6553,818
0.6569667,969
0.6586334,665
0.6603,940
0.6619667,886
0.6636333,814
0.6653,669
0.6669667,758
0.6686333,734
0.6703,718
0.6719667,876
0.6736333,562
0.6753,730
0.6769667,826
0.6786333,925
0.6803,746
0.6819667,842
0.6836333,659
0.6853,770
0.6869667,720
0.6886333,670
0.6903,670
0.6919667,669
0.6936333,732
0.6953,708
0.6969666,683
0.6986333,710
0.7003,671
0.7019666,760
0.7036333,786
0.7053,837
0.7069666,719
0.7086333,706
0.7103,790
0.7119667,784
0.7136334,901
0.7153,892
0.7169667,737
0.7186334,655
0.7203,770
0.7219667,751
0.7236333,733
0.7253,665
0.7269667,810
0.7286333,754
0.7303,844
0.7319667,591
0.7336333,857
0.7353,702
0.7369667,768
0.7386333,888
0.7403,628
0.7419667,754
0.7436333,634
0.7453,543
0.7469667,707
0.7486333,706
0.7503,680
0.7519667,708
0.7536333,746
0.7553,784
0.7569667,644
0.7586333,688
0.7603,731
0.7619666,695
0.7636333,746
0.7653,677
0.7669666,679
0.7686333,621
0.7703,649
0.7719667,677
0.7736334,683
0.7753,690
0.7769667,882
0.7786334,864
0.7803,586
0.7819667,708
0.7836334,614
0.7853,717
0.7869667,628
0.7886333,679
0.7903,652
0.7919667,779
0.7936333,786
0.7953,834
0.7969667,724
0.7986333,820
0.8003,719
0.8019667,595
0.8036333,720
0.8053,741
0.8069667,637
0.8086333,692
0.8103,701
0.8119667,737
0.8136333,743
0.8153,831
0.8169667,856
0.8186333,890
0.8203,785
0.8219666,907
0.8236333,854
0.8253,601
0.8269666,798
0.8286333,870
0.8303,856
0.8319666,812
0.8336333,746
0.8353,963
0.8369667,903
0.8386334,792
0.8403,834
0.8419667,755
0.8436334,874
0.8453,705
0.8469667,736
0.8486333,835
0.8503,881
0.8519667,773
0.8536333,950
0.8553,880
0.8569667,593
0.8586333,728
0.8603,844
0.8619667,774
0.8636333,865
0.8653,726
0.8669667,781
0.8686333,785
0.8703,843
0.8719667,825
0.8736333,767
0.8753,747
0.8769667,1120
0.8786333,1306
0.8803,1795
0.8819667,2001
0.8836333,2637
0.8853,3012
0.8869666,2911
0.8886333,3374
0.8903,3175
0.8919666,3004
0.8936333,3571
0.8953,3444
0.8969667,3408
0.8986334,3528
0.9003,3481
0.9019667,3434
0.9036334,3498
0.9053,3691
0.9069667,3086
0.9086334,3564
0.9103,3145
0.9119667,3438
0.9136333,3862
0.9153,3697
0.9169667,3134
0.9186333,3212
0.9203,3895
0.9219667,3376
0.9236333,3726
0.9253,3412
0.9269667,3351
0.9286333,3400
0.9303,3286
0.9319667,2936
0.9336333,3150
0.9353,2802
0.9369667,3192
0.9386333,2900
0.9403,2843
0.9419667,2711
0.9436333,2617
0.9453,2339
0.9469666,2482
0.9486333,2447
0.9503,2425
0.9519666,2387
0.9536333,2439
0.9553,2108
0.9569666,2019
0.9586333,1786
0.9603,1740
0.9619667,1674
0.9636334,1683
0.9653,1691
0.9669667,1551
0.9686334,1254
0.9703,1526
0.9719667,1331
0.9736333,1285
0.9753,999
0.9769667,1312
0.9786333,1101
0.9803,993
0.9819667,1080
0.9836333,846
0.9853,952
0.9869667,877
0.9886333,552
0.9903,872
0.9919667,669
0.9936333,598
0.9953,631
0.9969667,636
0.9986333,680
1.0003,643
1.001967,606
1.003633,673
1.0053,418
1.006967,527
1.008633,750
1.0103,595
1.011967,584
1.013633,578
1.0153,657
1.016967,639
1.018633,687
1.0203,667
1.021967,673
1.023633,679
1.0253,448
1.026967,633
1.028633,688
1.0303,717
1.031967,727
1.033633,599
1.0353,727
1.036967,567
1.038633,637
1.0403,535
1.041967,540
1.043633,620
1.0453,700
1.046967,722
1.048633,789
1.0503,436
1.051967,616
1.053633,625
1.0553,629
1.056967,601
1.058633,572
1.0603,518
1.061967,464
1.063633,524
1.0653,442
1.066967,542
1.068633,681
1.0703,709
1.071967,747
1.073633,720
1.0753,544
1.076967,691
1.078633,548
1.0803,577
1.081967,717
1.083633,618
1.0853,617
1.086967,616
1.088633,607
1.0903,599
1.091967,730
1.093633,749
1.0953,662
1.096967,636
1.098633,681
1.1003,690
1.101967,700
1.103633,547
1.1053,775
1.106967,589
1.108633,615
1.1103,737
1.111967,722
1.113633,567
1.1153,798
1.116967,484
1.118633,664
1.1203,704
1.121967,625
1.123633,586
1.1253,588
1.126967,672
1.128633,647
1.1303,613
1.131967,696
1.133633,670
1.1353,610
1.136967,497
1.138633,572
1.1403,648
1.141967,579
1.143633,648
1.1453,687
1.146967,676
1.148633,672
1.1503,613
1.151967,667
1.153633,653
1.1553,638
1.156967,662
1.158633,681
1.1603,700
1.161967,674
1.163633,752
1.1653,792
1.166967,737
1.168633,702
1.1703,762
1.171967,809
1.173633,664
1.1753,711
1.176967,758
1.178633,756
1.1803,755
1.181967,793
1.183633,799
1.1853,809
1.186967,820
1.188633,736
1.1903,738
1.191967,701
1.193633,665
1.1953,706
1.196967,617
1.198633,527
