"SampleName","A2Rd2_02-57"
"Target Mass 1",
"Column Name","IA-3 (3um, 4.6X100)"
"Channel","QDa 1: SIR Ch2"
0.00195,528
0.003616667,791
0.005283333,658
0.00695,746
0.008616666,784
0.01028333,821
0.01195,958
0.01361667,921
0.01528333,884
0.01695,1272
0.01861667,1312
0.02028333,929
0.02195,968
0.02361667,1029
0.02528333,1060
0.02695,1031
0.02861667,1075
0.03028333,1076
0.03195,1077
0.03361667,1026
0.03528333,966
0.03695,930
0.03861667,1125
0.04028333,1146
0.04195,1229
0.04361667,1172
0.04528333,868
0.04695,950
0.04861667,965
0.05028334,858
0.05195,828
0.05361667,1231
0.05528333,1120
0.05695,1265
0.05861667,927
0.06028333,1038
0.06195,1037
0.06361666,1065
0.06528334,1052
0.06695,1040
0.06861667,938
0.07028333,842
0.07195,940
0.07361667,950
0.07528333,960
0.07695,1060
0.07861666,1050
0.08028334,885
0.08195,1098
0.08361667,1165
0.08528333,954
0.08695,895
0.08861667,1170
0.09028333,996
0.09195,908
0.09361666,1137
0.09528334,1067
0.09695,962
0.09861667,1153
0.1002833,1189
0.10195,1142
0.1036167,871
0.1052833,994
0.10695,1052
0.1086167,876
0.1102833,994
0.11195,1107
0.1136167,974
0.1152833,937
0.11695,1051
0.1186167,1050
0.1202833,1049
0.12195,1111
0.1236167,1125
0.1252833,1072
0.12695,1013
0.1286167,949
0.1302833,1002
0.13195,1054
0.1336167,1041
0.1352833,1028
0.13695,1005
0.1386167,849
0.1402833,879
0.14195,1013
0.1436167,831
0.1452833,1011
0.14695,1072
0.1486167,812
0.1502833,908
0.15195,980
0.1536167,919
0.1552833,1051
0.15695,1029
0.1586167,1008
0.1602833,1011
0.16195,855
0.1636167,1107
0.1652833,921
0.16695,927
0.1686167,835
0.1702833,1035
0.17195,940
0.1736167,846
0.1753,1029
0.17695,797
0.1786167,910
0.1802833,996
0.18195,1068
0.1836167,976
0.1852833,920
0.18695,821
0.1886167,890
0.1902833,959
0.1919667,915
0.1936333,918
0.1952833,857
0.19695,974
0.1986167,1090
0.2002833,1170
0.20195,1023
0.2036167,1059
0.2052833,1094
0.20695,1044
0.2086167,1031
0.2103,1063
0.21195,1165
0.2136167,1141
0.2152833,1118
0.21695,926
0.2186167,1199
0.2202833,1136
0.22195,1305
0.2236167,1080
0.2252833,1315
0.22695,1247
0.2286333,1345
0.2302833,1344
0.23195,1309
0.2336167,1274
0.2352833,1371
0.23695,1169
0.2386167,1196
0.2402833,1404
0.2419667,1269
0.2436167,1269
0.2453,1269
0.24695,1455
0.2486167,1508
0.2502833,1340
0.25195,1395
0.2536333,1131
0.2553,1196
0.25695,1455
0.2586167,1266
0.2602833,1415
0.26195,1236
0.2636333,1316
0.2652833,1281
0.2669667,1124
0.2686167,1191
0.2703,1257
0.2719667,1162
0.2736167,1220
0.2752833,788
0.27695,1271
0.2786167,1052
0.2803,1285
0.28195,986
0.2836333,1128
0.2852833,1037
0.2869667,1120
0.2886333,1136
0.2902833,1152
0.2919667,1138
0.2936333,1124
0.2952833,1123
0.29695,1121
0.2986333,1194
0.3003,1255
0.3019667,1313
0.3036333,1245
0.3053,1406
0.3069667,898
0.3086333,1245
0.3103,1046
0.3119667,1182
0.3136333,1263
0.3153,1030
0.3169667,1430
0.3186333,1438
0.3203,1437
0.3219667,1408
0.3236333,1392
0.3253,1420
0.3269667,1396
0.3286333,1371
0.3303,1319
0.3319667,1078
0.3336333,1405
0.3353,1316
0.3369667,1292
0.3386333,1092
0.3403,1449
0.3419667,1125
0.3436333,1435
0.3453,1419
0.3469667,1358
0.3486333,1484
0.3503,1028
0.3519667,1353
0.3536333,1280
0.3553,1448
0.3569667,1299
0.3586333,1274
0.3603,1415
0.3619667,1340
0.3636333,1577
0.3653,2279
0.3669667,3124
0.3686333,3475
0.3703,3994
0.3719667,3563
0.3736333,3172
0.3753,2970
0.3769667,2897
0.3786333,3194
0.3803,2957
0.3819667,3262
0.3836333,2578
0.3853,2262
0.3869667,1668
0.3886333,1352
0.3903,1173
0.3919667,870
0.3936333,696
0.3953,707
0.3969667,589
0.3986333,572
0.4003,563
0.4019667,542
0.4036333,634
0.4053,446
0.4069667,433
0.4086333,469
0.4103,457
0.4119667,672
0.4136333,639
0.4153,743
0.4169667,634
0.4186333,689
0.4203,854
0.4219667,855
0.4236333,842
0.4253,888
0.4269667,874
0.4286333,861
0.4303,784
0.4319667,756
0.4336333,785
0.4353,813
0.4369667,952
0.4386333,999
0.4403,1082
0.4419667,850
0.4436333,1093
0.4453,1198
0.4469667,1194
0.4486333,1188
0.4503,1174
0.4519667,1161
0.4536333,1506
0.4553,1558
0.4569667,1569
0.4586333,1374
0.4603,1423
0.4619667,1597
0.4636333,1557
0.4653,1549
0.4669667,1540
0.4686333,1729
0.4703,1791
0.4719667,1600
0.4736333,1804
0.4753,1704
0.4769667,1624
0.4786333,1505
0.4803,1654
0.4819667,1242
0.4836333,1568
0.4853,1127
0.4869667,1230
0.4886333,1333
0.4903,1102
0.4919667,1163
0.4936333,1353
0.4953,1159
0.4969667,1174
0.4986333,1189
0.5003,1161
0.5019667,1148
0.5036333,1135
0.5053,738
0.5069667,1266
0.5086333,1080
0.5103,1013
0.5119666,960
0.5136333,1016
0.5153,940
0.5169666,946
0.5186333,913
0.5203,900
0.5219667,1152
0.5236334,1059
0.5253,966
0.5269667,864
0.5286334,1007
0.5303,1032
0.5319667,986
0.5336334,964
0.5353,1052
0.5369667,899
0.5386333,949
0.5403,1000
0.5419667,985
0.5436333,1009
0.5453,1013
0.5469667,975
0.5486333,937
0.5503,948
0.5519667,960
0.5536333,1203
0.5553,1180
0.5569667,1013
0.5586333,1154
0.5603,1129
0.5619667,964
0.5636333,1017
0.5653,1016
0.5669667,1069
0.5686333,1122
0.5703,921
0.5719666,1116
0.5736333,1033
0.5753,1202
0.5769666,892
0.5786333,834
0.5803,991
0.5819666,1065
0.5836333,1070
0.5853,1081
0.5869667,935
0.5886334,955
0.5903,938
0.5919667,921
0.5936334,955
0.5953,943
0.5969667,951
0.5986333,958
0.6003,969
0.6019667,980
0.6036333,1018
0.6053,1013
0.6069667,1005
0.6086333,986
0.6103,959
0.6119667,931
0.6136333,1149
0.6153,1137
0.6169667,1126
0.6186333,1088
0.6203,1066
0.6219667,989
0.6236333,851
0.6253,1079
0.6269667,1119
0.6286333,915
0.6303,1228
0.6319667,928
0.6336333,1109
0.6353,1224
0.6369666,988
0.6386333,894
0.6403,1262
0.6419666,1021
0.6436333,1131
0.6453,1022
0.6469667,1069
0.6486334,1137
0.6503,1031
0.6519667,1075
0.6536334,964
0.6553,1116
0.6569667,895
0.6586334,964
0.6603,1101
0.6619667,1045
0.6636333,988
0.6653,947
0.6669667,1128
0.6686333,1123
0.6703,875
0.6719667,1109
0.6736333,1192
0.6753,1438
0.6769667,1489
0.6786333,1420
0.6803,1530
0.6819667,1640
0.6836333,1918
0.6853,2968
0.6869667,3293
0.6886333,3814
0.6903,3749
0.6919667,4438
0.6936333,5083
0.6953,5013
0.6969666,5410
0.6986333,6190
0.7003,6298
0.7019666,5820
0.7036333,5964
0.7053,6134
0.7069666,5973
0.7086333,5683
0.7103,5778
0.7119667,5651
0.7136334,5691
0.7153,5156
0.7169667,5465
0.7186334,5612
0.7203,5497
0.7219667,5188
0.7236333,5319
0.7253,5405
0.7269667,4567
0.7286333,4747
0.7303,4826
0.7319667,4120
0.7336333,3526
0.7353,3165
0.7369667,3344
0.7386333,3183
0.7403,2704
0.7419667,2617
0.7436333,1734
0.7453,1990
0.7469667,1640
0.7486333,1762
0.7503,1700
0.7519667,1589
0.7536333,1553
0.7553,1374
0.7569667,1523
0.7586333,1019
0.7603,1160
0.7619666,1152
0.7636333,1173
0.7653,1305
0.7669666,1197
0.7686333,1088
0.7703,1130
0.7719667,1170
0.7736334,1211
0.7753,1419
0.7769667,1355
0.7786334,1698
0.7803,1822
0.7819667,1985
0.7836334,2594
0.7853,3423
0.7869667,3895
0.7886333,4618
0.7903,5589
0.7919667,6280
0.7936333,7097
0.7953,8172
0.7969667,8684
0.7986333,9552
0.8003,10472
0.8019667,11004
0.8036333,11120
0.8053,11740
0.8069667,11344
0.8086333,11420
0.8103,11488
0.8119667,11196
0.8136333,10360
0.8153,10660
0.8169667,10440
0.8186333,9920
0.8203,9688
0.8219666,10116
0.8236333,9468
0.8253,10444
0.8269666,10384
0.8286333,9704
0.8303,8616
0.8319666,9364
0.8336333,8876
0.8353,8660
0.8369667,7906
0.8386334,7760
0.8403,6856
0.8419667,6219
0.8436334,5993
0.8453,5097
0.8469667,4737
0.8486333,4021
0.8503,3898
0.8519667,3746
0.8536333,3430
0.8553,3112
0.8569667,2868
0.8586333,2349
0.8603,2423
0.8619667,2584
0.8636333,2090
0.8653,2116
0.8669667,1803
0.8686333,1810
0.8703,1504
0.8719667,1909
0.8736333,1398
0.8753,1299
0.8769667,1399
0.8786333,1472
0.8803,1550
0.8819667,1637
0.8836333,1676
0.8853,1716
0.8869666,1810
0.8886333,1760
0.8903,1711
0.8919666,1816
0.8936333,1763
0.8953,1841
0.8969667,1838
0.8986334,1820
0.9003,1755
0.9019667,1867
0.9036334,1514
0.9053,1479
0.9069667,1915
0.9086334,1588
0.9103,1842
0.9119667,1893
0.9136333,1654
0.9153,1507
0.9169667,1693
0.9186333,1893
0.9203,1789
0.9219667,1723
0.9236333,1586
0.9253,1650
0.9269667,1847
0.9286333,1822
0.9303,1614
0.9319667,1380
0.9336333,1636
0.9353,1526
0.9369667,1522
0.9386333,1388
0.9403,1628
0.9419667,1637
0.9436333,1748
0.9453,1624
0.9469666,1527
0.9486333,1562
0.9503,1334
0.9519666,1638
0.9536333,1586
0.9553,1598
0.9569666,1903
0.9586333,2204
0.9603,1999
0.9619667,2032
0.9636334,2418
0.9653,3266
0.9669667,2915
0.9686334,3554
0.9703,4237
0.9719667,4549
0.9736333,5413
0.9753,6180
0.9769667,5933
0.9786333,6767
0.9803,7113
0.9819667,8376
0.9836333,8584
0.9853,8932
0.9869667,9068
0.9886333,9100
0.9903,9136
0.9919667,9188
0.9936333,9244
0.9953,9960
0.9969667,9824
0.9986333,9864
1.0003,9552
1.001967,9628
1.003633,9276
1.0053,9468
1.006967,8440
1.008633,8956
1.0103,8944
1.011967,8904
1.013633,9084
1.0153,8288
1.016967,9128
1.018633,9228
1.0203,9324
1.021967,8880
1.023633,8552
1.0253,8660
1.026967,8010
1.028633,7949
1.0303,7399
1.031967,7333
1.033633,7471
1.0353,6990
1.036967,6356
1.038633,6130
1.0403,5460
1.041967,5028
1.043633,4689
1.0453,4798
1.046967,4569
1.048633,3925
1.0503,4119
1.051967,3955
1.053633,3672
1.0553,3847
1.056967,3633
1.058633,3606
1.0603,3579
1.061967,3814
1.063633,3792
1.0653,3891
1.066967,4205
1.068633,4324
1.0703,4407
1.071967,4124
1.073633,4826
1.0753,4953
1.076967,4567
1.078633,4627
1.0803,4640
1.081967,4687
1.083633,4735
1.0853,4688
1.086967,4641
1.088633,4555
1.0903,4470
1.091967,4739
1.093633,4712
1.0953,4685
1.096967,4536
1.098633,4795
1.1003,4768
1.101967,4608
1.103633,4191
1.1053,4463
1.106967,4243
1.108633,4298
1.1103,4369
1.111967,4246
1.113633,4108
1.1153,3970
1.116967,4349
1.118633,3665
1.1203,4480
1.121967,3804
1.123633,3879
1.1253,3428
1.126967,3807
1.128633,3183
1.1303,3198
1.131967,2963
1.133633,2837
1.1353,2610
1.136967,2747
1.138633,2600
1.1403,2180
1.141967,2182
1.143633,2630
1.1453,2033
1.146967,1953
1.148633,1884
1.1503,2099
1.151967,1761
1.153633,1938
1.1553,1772
1.156967,1387
1.158633,1390
1.1603,1678
1.161967,1439
1.163633,1637
1.1653,1525
1.166967,1315
1.168633,1160
1.1703,1311
1.171967,1121
1.173633,1429
1.1753,1350
1.176967,1317
1.178633,1302
1.1803,1147
1.181967,1249
1.183633,1351
1.1853,1287
1.186967,1109
1.188633,1271
1.1903,1020
1.191967,1382
1.193633,1328
1.1953,1638
1.196967,1393
1.198633,1184
