"SampleName","A2Rd2_02-87"
"Target Mass 1",
"Column Name","IA-3 (3um, 4.6X100)"
"Channel","QDa 1: SIR Ch2"
0.00195,604
0.003616667,822
0.005283333,574
0.00695,703
0.008616666,776
0.01028333,795
0.01195,883
0.01361667,890
0.01528333,912
0.01695,1053
0.01861667,1132
0.02028333,1065
0.02195,949
0.02361667,938
0.02528333,1005
0.02695,981
0.02861667,1037
0.03028333,992
0.03195,768
0.03361667,1160
0.03528333,1189
0.03695,1124
0.03861667,959
0.04028333,986
0.04195,1203
0.04361667,1142
0.04528333,1073
0.04695,1067
0.04861667,946
0.05028334,932
0.05195,1017
0.05361667,1065
0.05528333,1072
0.05695,917
0.05861667,995
0.06028333,994
0.06195,923
0.06361666,820
0.06528334,943
0.06695,1175
0.06861667,1148
0.07028333,1030
0.07195,985
0.07361667,1045
0.07528333,1106
0.07695,926
0.07861666,984
0.08028334,804
0.08195,992
0.08361667,916
0.08528333,1036
0.08695,858
0.08861667,887
0.09028333,916
0.09195,790
0.09361666,894
0.09528334,960
0.09695,930
0.09861667,973
0.1002833,970
0.10195,891
0.1036167,887
0.1052833,882
0.10695,891
0.1086167,929
0.1102833,930
0.11195,931
0.1136167,925
0.1152833,965
0.11695,862
0.1186167,748
0.1202833,900
0.12195,913
0.1236167,917
0.1252833,901
0.12695,762
0.1286167,1077
0.1302833,1101
0.13195,957
0.1336167,816
0.1352833,903
0.13695,853
0.1386167,897
0.1402833,941
0.14195,942
0.1436167,942
0.1452833,890
0.14695,990
0.1486167,915
0.1502833,840
0.15195,1072
0.1536167,1072
0.1552833,977
0.15695,723
0.1586167,899
0.1602833,849
0.16195,800
0.1636167,757
0.1652833,714
0.16695,985
0.1686167,1012
0.1702833,896
0.17195,873
0.1736167,792
0.1752833,986
0.17695,699
0.1786167,978
0.1802833,869
0.18195,969
0.1836167,579
0.1852833,1110
0.18695,929
0.1886167,849
0.1902833,951
0.19195,934
0.1936167,939
0.1952833,927
0.19695,892
0.1986167,858
0.2002833,1115
0.20195,1127
0.2036167,941
0.2052833,995
0.20695,978
0.2086167,1052
0.2102833,1077
0.21195,863
0.2136167,939
0.2152833,991
0.21695,996
0.2186167,1001
0.2202833,896
0.22195,1135
0.2236167,1084
0.2252833,1095
0.22695,1162
0.2286167,905
0.2302833,1214
0.23195,1264
0.2336167,1043
0.2352833,1259
0.23695,1287
0.2386167,1340
0.2402833,1333
0.24195,1327
0.2436167,1247
0.2452833,1116
0.24695,1237
0.2486167,1163
0.2502833,1185
0.25195,1268
0.2536167,937
0.2552833,1118
0.25695,1135
0.2586167,1061
0.2602833,1118
0.26195,1175
0.2636167,1242
0.2652833,966
0.26695,1120
0.2686167,1132
0.2702833,829
0.27195,1131
0.2736167,1242
0.2752833,1218
0.27695,1070
0.2786167,1081
0.2802833,1093
0.28195,883
0.2836167,1249
0.2852833,1119
0.28695,1028
0.2886167,1239
0.2902833,976
0.29195,850
0.2936167,1029
0.2952833,1286
0.29695,1284
0.2986333,924
0.3002833,1082
0.30195,1121
0.3036167,999
0.3052833,1079
0.30695,1159
0.3086167,1261
0.3102833,1152
0.31195,1043
0.3136167,1097
0.3153,1150
0.31695,1365
0.3186167,1321
0.3202833,1277
0.32195,1280
0.3236167,1404
0.3252833,1393
0.32695,1474
0.3286167,1233
0.3302833,1186
0.33195,1250
0.3336333,1315
0.3352833,1386
0.33695,1349
0.3386333,1262
0.3402833,1231
0.34195,1327
0.3436167,1428
0.3453,1358
0.34695,1288
0.3486167,1396
0.3503,1258
0.35195,1234
0.3536333,1473
0.3553,1376
0.35695,1279
0.3586167,1448
0.3602833,1166
0.3619667,1250
0.3636167,1421
0.3653,2366
0.36695,2968
0.3686333,3323
0.3703,3172
0.3719667,3381
0.3736167,3267
0.3752833,3434
0.37695,2820
0.3786333,3001
0.3802833,2815
0.38195,2681
0.3836167,2199
0.3853,2333
0.3869667,1939
0.3886333,1681
0.3902833,1234
0.3919667,827
0.3936333,841
0.3953,726
0.39695,551
0.3986167,408
0.4002833,640
0.40195,524
0.4036333,362
0.4052833,573
0.4069667,460
0.4086167,480
0.4103,505
0.4119667,572
0.4136167,556
0.4153,696
0.41695,693
0.4186167,676
0.4203,578
0.4219667,612
0.4236333,646
0.4253,690
0.4269667,755
0.4286333,707
0.4303,659
0.4319667,704
0.4336333,708
0.4353,739
0.4369667,835
0.4386333,981
0.4403,1029
0.4419667,947
0.4436333,989
0.4453,1040
0.4469667,1047
0.4486333,1104
0.4503,1161
0.4519667,1204
0.4536333,1247
0.4553,1028
0.4569667,1163
0.4586333,1121
0.4603,1145
0.4619667,1169
0.4636333,1194
0.4653,1219
0.4669667,1183
0.4686333,1160
0.4703,1137
0.4719667,1313
0.4736333,1284
0.4753,1254
0.4769667,1143
0.4786333,1277
0.4803,1263
0.4819667,1383
0.4836333,1079
0.4853,1199
0.4869667,1051
0.4886333,1037
0.4903,1022
0.4919667,1094
0.4936333,1165
0.4953,1215
0.4969667,1203
0.4986333,1141
0.5003,1070
0.5019667,1058
0.5036333,1047
0.5053,932
0.5069667,998
0.5086333,1009
0.5103,858
0.5119666,798
0.5136333,873
0.5153,832
0.5169666,762
0.5186333,798
0.5203,835
0.5219667,870
0.5236334,906
0.5253,974
0.5269667,1019
0.5286334,993
0.5303,1187
0.5319667,1139
0.5336334,1178
0.5353,954
0.5369667,914
0.5386333,980
0.5403,1060
0.5419667,1048
0.5436333,1037
0.5453,999
0.5469667,980
0.5486333,1098
0.5503,1123
0.5519667,1048
0.5536333,972
0.5553,1099
0.5569667,935
0.5586333,937
0.5603,944
0.5619667,954
0.5636333,994
0.5653,963
0.5669667,932
0.5686333,1005
0.5703,969
0.5719666,975
0.5736333,981
0.5753,1018
0.5769666,920
0.5786333,941
0.5803,1014
0.5819666,1055
0.5836333,885
0.5853,1141
0.5869667,900
0.5886334,1108
0.5903,891
0.5919667,1028
0.5936334,1024
0.5953,994
0.5969667,963
0.5986333,956
0.6003,949
0.6019667,942
0.6036333,935
0.6053,887
0.6069667,832
0.6086333,888
0.6103,862
0.6119667,927
0.6136333,1051
0.6153,1069
0.6169667,1094
0.6186333,1107
0.6203,1046
0.6219667,1133
0.6236333,1176
0.6253,1182
0.6269667,1178
0.6286333,869
0.6303,1260
0.6319667,1069
0.6336333,1357
0.6353,1049
0.6369666,1171
0.6386333,1351
0.6403,1033
0.6419666,1245
0.6436333,1233
0.6453,1072
0.6469667,1152
0.6486334,1068
0.6503,1222
0.6519667,1206
0.6536334,919
0.6553,1209
0.6569667,1056
0.6586334,1038
0.6603,1132
0.6619667,1043
0.6636333,1104
0.6653,1229
0.6669667,952
0.6686333,1312
0.6703,1408
0.6719667,1550
0.6736333,1861
0.6753,2171
0.6769667,3050
0.6786333,3604
0.6803,3955
0.6819667,5175
0.6836333,6617
0.6853,7874
0.6869667,9484
0.6886333,10876
0.6903,11812
0.6919667,14052
0.6936333,15640
0.6953,16352
0.6969666,16824
0.6986333,17576
0.7003,17672
0.7019666,17436
0.7036333,17736
0.7053,15880
0.7069666,15684
0.7086333,16328
0.7103,15136
0.7119667,14928
0.7136334,14084
0.7153,14104
0.7169667,13136
0.7186334,13420
0.7203,13348
0.7219667,13292
0.7236333,13240
0.7253,13544
0.7269667,12372
0.7286333,11680
0.7303,10780
0.7319667,10476
0.7336333,9428
0.7353,8182
0.7369667,8212
0.7386333,6698
0.7403,6103
0.7419667,5742
0.7436333,5318
0.7453,4667
0.7469667,4119
0.7486333,3648
0.7503,3497
0.7519667,3061
0.7536333,2749
0.7553,2786
0.7569667,2540
0.7586333,2461
0.7603,2216
0.7619666,2284
0.7636333,1552
0.7653,1980
0.7669666,1882
0.7686333,2100
0.7703,1757
0.7719667,2082
0.7736334,1873
0.7753,2724
0.7769667,2496
0.7786334,3269
0.7803,5017
0.7819667,5442
0.7836334,7360
0.7853,8400
0.7869667,10472
0.7886333,12324
0.7903,14972
0.7919667,16900
0.7936333,18188
0.7953,20656
0.7969667,22688
0.7986333,24164
0.8003,24916
0.8019667,25208
0.8036333,25500
0.8053,25360
0.8069667,25220
0.8086333,25128
0.8103,24592
0.8119667,23084
0.8136333,22916
0.8153,21276
0.8169667,19612
0.8186333,19104
0.8203,19336
0.8219666,18384
0.8236333,19196
0.8253,18984
0.8269666,19524
0.8286333,18668
0.8303,19536
0.8319666,18604
0.8336333,17820
0.8353,16788
0.8369667,15608
0.8386334,15040
0.8403,13432
0.8419667,12048
0.8436334,11984
0.8453,10280
0.8469667,10500
0.8486333,8788
0.8503,8252
0.8519667,6766
0.8536333,6414
0.8553,5745
0.8569667,5705
0.8586333,4493
0.8603,4689
0.8619667,3934
0.8636333,3845
0.8653,3313
0.8669667,3378
0.8686333,3089
0.8703,2420
0.8719667,2399
0.8736333,2184
0.8753,2247
0.8769667,2184
0.8786333,2525
0.8803,2555
0.8819667,2530
0.8836333,2923
0.8853,2857
0.8869666,2493
0.8886333,2401
0.8903,2454
0.8919666,2490
0.8936333,2457
0.8953,2425
0.8969667,2383
0.8986334,2169
0.9003,1992
0.9019667,2488
0.9036334,2164
0.9053,2470
0.9069667,2177
0.9086334,2013
0.9103,1963
0.9119667,2003
0.9136333,1963
0.9153,2062
0.9169667,2068
0.9186333,2073
0.9203,1890
0.9219667,1738
0.9236333,1948
0.9253,1882
0.9269667,1917
0.9286333,1740
0.9303,1566
0.9319667,1867
0.9336333,1965
0.9353,1921
0.9369667,1878
0.9386333,1858
0.9403,1965
0.9419667,2001
0.9436333,2037
0.9453,1963
0.9469666,2154
0.9486333,2462
0.9503,2407
0.9519666,2842
0.9536333,3398
0.9553,3803
0.9569666,4796
0.9586333,5595
0.9603,6440
0.9619667,7470
0.9636334,9000
0.9653,10412
0.9669667,12160
0.9686334,15044
0.9703,17412
0.9719667,18324
0.9736333,21568
0.9753,23324
0.9769667,25232
0.9786333,27392
0.9803,28616
0.9819667,30744
0.9836333,31492
0.9853,32480
0.9869667,33536
0.9886333,32816
0.9903,32124
0.9919667,33424
0.9936333,31660
0.9953,30808
0.9969667,32100
0.9986333,28284
1.0003,27136
1.001967,27984
1.003633,26496
1.0053,27080
1.006967,25908
1.008633,24868
1.0103,26172
1.011967,25528
1.013633,26040
1.0153,26064
1.016967,26272
1.018633,24644
1.0203,24516
1.021967,26104
1.023633,25464
1.0253,24484
1.026967,24708
1.028633,22812
1.0303,22328
1.031967,21728
1.033633,20164
1.0353,19412
1.036967,17936
1.038633,17184
1.0403,17508
1.041967,15404
1.043633,14808
1.0453,14308
1.046967,12528
1.048633,10984
1.0503,11048
1.051967,10364
1.053633,10848
1.0553,10592
1.056967,10888
1.058633,11580
1.0603,11496
1.061967,12196
1.063633,12200
1.0653,12208
1.066967,12584
1.068633,12656
1.0703,13256
1.071967,13208
1.073633,13108
1.0753,12904
1.076967,12704
1.078633,13572
1.0803,13544
1.081967,13144
1.083633,12888
1.0853,12424
1.086967,12372
1.088633,12360
1.0903,11972
1.091967,12020
1.093633,12028
1.0953,12052
1.096967,10308
1.098633,11108
1.1003,10844
1.101967,10932
1.103633,9792
1.1053,10744
1.106967,10316
1.108633,10436
1.1103,9908
1.111967,9344
1.113633,10112
1.1153,9708
1.116967,9528
1.118633,9120
1.1203,8596
1.121967,8992
1.123633,8264
1.1253,8320
1.126967,7876
1.128633,8000
1.1303,7300
1.131967,6464
1.133633,6111
1.1353,6370
1.136967,5628
1.138633,5583
1.1403,4978
1.141967,4933
1.143633,4559
1.1453,4027
1.146967,3999
1.148633,4088
1.1503,3765
1.151967,3393
1.153633,3505
1.1553,2923
1.156967,2905
1.158633,2372
1.1603,2641
1.161967,2413
1.163633,2448
1.1653,2171
1.166967,2359
1.168633,2443
1.1703,1974
1.171967,1911
1.173633,2060
1.1753,2108
1.176967,1992
1.178633,1961
1.1803,1958
1.181967,1955
1.183633,1915
1.1853,2203
1.186967,2174
1.188633,1889
1.1903,2401
1.191967,2122
1.193633,2199
1.1953,2479
1.196967,2530
1.198633,2990
