"SampleName","A2Rd2_02-38"
"Target Mass 1",
"Column Name","IA-3 (3um, 4.6X100)"
"Channel","QDa 1: SIR Ch1"
0.00195,397
0.003616667,529
0.005283333,564
0.00695,578
0.008616666,718
0.01028333,655
0.01195,592
0.01361667,669
0.01528333,616
0.01695,625
0.01861667,550
0.02028333,470
0.02195,532
0.02361667,583
0.02528333,588
0.02695,554
0.02861667,519
0.03028333,505
0.03195,492
0.03361667,578
0.03528333,688
0.03695,727
0.03861667,528
0.04028333,671
0.04195,492
0.04361667,398
0.04528333,605
0.04695,515
0.04861667,453
0.05028334,520
0.05195,502
0.05361667,564
0.05528333,599
0.05695,586
0.05861667,585
0.06028333,486
0.06195,600
0.06361666,529
0.06528334,543
0.06695,567
0.06861667,554
0.07028333,540
0.07195,539
0.07361667,538
0.07528333,536
0.07695,532
0.07861666,519
0.08028334,505
0.08195,473
0.08361667,649
0.08528333,625
0.08695,568
0.08861667,577
0.09028333,636
0.09195,608
0.09361666,532
0.09528334,537
0.09695,503
0.09861667,469
0.1002833,472
0.10195,474
0.1036167,512
0.1052833,521
0.10695,530
0.1086167,517
0.1102833,505
0.11195,546
0.1136167,479
0.1152833,458
0.11695,437
0.1186167,536
0.1202833,603
0.12195,599
0.1236167,529
0.1252833,501
0.12695,533
0.1286167,548
0.1302833,563
0.13195,399
0.1336167,568
0.1352833,454
0.13695,487
0.1386167,452
0.1402833,511
0.14195,483
0.1436167,455
0.1452833,480
0.14695,565
0.1486167,556
0.1502833,564
0.15195,487
0.1536167,377
0.1552833,541
0.15695,620
0.1586167,573
0.1602833,495
0.16195,513
0.1636167,449
0.1652833,442
0.16695,533
0.1686167,446
0.1702833,649
0.17195,587
0.1736167,612
0.1752833,447
0.17695,513
0.1786167,525
0.1802833,517
0.18195,414
0.1836167,574
0.1852833,560
0.18695,606
0.1886167,535
0.1902833,525
0.19195,514
0.1936167,537
0.1952833,427
0.19695,551
0.1986167,646
0.2002833,645
0.20195,528
0.2036167,436
0.2052833,509
0.20695,528
0.2086167,508
0.2102833,502
0.21195,495
0.2136167,505
0.2152833,516
0.21695,514
0.2186167,512
0.2202833,499
0.22195,486
0.2236167,523
0.2252833,512
0.22695,501
0.2286333,527
0.2302833,521
0.23195,514
0.2336167,468
0.2352833,528
0.23695,524
0.2386167,519
0.2402833,495
0.24195,666
0.2436167,673
0.2453,565
0.24695,508
0.2486167,546
0.2502833,569
0.25195,615
0.2536167,470
0.2552833,511
0.25695,545
0.2586167,500
0.2602833,510
0.26195,520
0.2636333,524
0.2652833,529
0.26695,512
0.2686167,556
0.2703,557
0.27195,566
0.2736333,537
0.2752833,524
0.27695,513
0.2786333,488
0.2803,438
0.28195,388
0.2836167,439
0.2852833,490
0.2869667,545
0.2886167,524
0.2903,510
0.29195,629
0.2936167,682
0.2952833,625
0.29695,521
0.2986333,696
0.3002833,727
0.30195,588
0.3036333,592
0.3052833,440
0.30695,645
0.3086167,672
0.3103,479
0.31195,632
0.3136167,594
0.3153,460
0.3169667,578
0.3186167,561
0.3202833,558
0.32195,555
0.3236333,525
0.3252833,446
0.3269667,412
0.3286333,437
0.3303,462
0.33195,419
0.3336333,375
0.3353,444
0.3369667,438
0.3386167,432
0.3403,462
0.3419667,491
0.3436333,600
0.3452833,621
0.3469667,641
0.3486167,527
0.3503,658
0.35195,603
0.3536333,549
0.3552833,363
0.3569667,532
0.3586167,740
0.3603,699
0.36195,682
0.3636333,805
0.3652833,1206
0.3669667,1690
0.3686333,2538
0.3703,3592
0.3719667,4253
0.3736333,4339
0.3753,4943
0.3769667,4557
0.3786333,5156
0.3803,5058
0.3819667,5553
0.3836333,5268
0.3853,4559
0.3869667,4176
0.3886333,3810
0.3903,3158
0.3919667,2552
0.3936333,2324
0.3953,1472
0.3969667,1677
0.3986333,1344
0.4003,1259
0.4019667,1258
0.4036333,999
0.4053,1173
0.4069667,998
0.4086333,1106
0.4103,1080
0.4119667,1101
0.4136333,1123
0.4153,1295
0.4169667,1224
0.4186333,1153
0.4203,1258
0.4219667,1247
0.4236333,1237
0.4253,1368
0.4269667,1411
0.4286333,1325
0.4303,1428
0.4319667,1587
0.4336333,2378
0.4353,2937
0.4369667,4173
0.4386333,6607
0.4403,10048
0.4419667,15552
0.4436333,24164
0.4453,32832
0.4469667,47056
0.4486333,61056
0.4503,77408
0.4519667,91680
0.4536333,107088
0.4553,124496
0.4569667,134336
0.4586333,143296
0.4603,148736
0.4619667,158464
0.4636333,159744
0.4653,164608
0.4669667,168256
0.4686333,174080
0.4703,182592
0.4719667,192896
0.4736333,197760
0.4753,210048
0.4769667,210496
0.4786333,217152
0.4803,206656
0.4819667,198784
0.4836333,185344
0.4853,168192
0.4869667,148672
0.4886333,128400
0.4903,106480
0.4919667,91184
0.4936333,75968
0.4953,61952
0.4969667,49728
0.4986333,40064
0.5003,31740
0.5019667,25388
0.5036333,21456
0.5053,16232
0.5069667,13444
0.5086333,11088
0.5103,9680
0.5119666,8280
0.5136333,6740
0.5153,5836
0.5169666,5041
0.5186333,4839
0.5203,4295
0.5219667,4252
0.5236334,4270
0.5253,3854
0.5269667,3584
0.5286334,3239
0.5303,3274
0.5319667,3299
0.5336334,2966
0.5353,2733
0.5369667,2981
0.5386333,2325
0.5403,2427
0.5419667,2244
0.5436333,2416
0.5453,2428
0.5469667,2361
0.5486333,2287
0.5503,2267
0.5519667,2140
0.5536333,2131
0.5553,2032
0.5569667,1993
0.5586333,1754
0.5603,1516
0.5619667,1804
0.5636333,1525
0.5653,1462
0.5669667,1601
0.5686333,1586
0.5703,1571
0.5719666,1348
0.5736333,1248
0.5753,1554
0.5769666,1404
0.5786333,1323
0.5803,1366
0.5819666,1173
0.5836333,1419
0.5853,1514
0.5869667,1244
0.5886334,1207
0.5903,1376
0.5919667,1311
0.5936334,1141
0.5953,1288
0.5969667,1489
0.5986333,1011
0.6003,1624
0.6019667,1415
0.6036333,1344
0.6053,1418
0.6069667,1353
0.6086333,1289
0.6103,1356
0.6119667,1423
0.6136333,1042
0.6153,1206
0.6169667,1302
0.6186333,1178
0.6203,1199
0.6219667,1097
0.6236333,1196
0.6253,990
0.6269667,954
0.6286333,1018
0.6303,1163
0.6319667,1134
0.6336333,1084
0.6353,1075
0.6369666,1095
0.6386333,886
0.6403,816
0.6419666,933
0.6436333,947
0.6453,963
0.6469667,717
0.6486334,900
0.6503,906
0.6519667,955
0.6536334,778
0.6553,830
0.6569667,883
0.6586334,799
0.6603,932
0.6619667,895
0.6636333,924
0.6653,818
0.6669667,801
0.6686333,930
0.6703,767
0.6719667,787
0.6736333,691
0.6753,691
0.6769667,656
0.6786333,694
0.6803,694
0.6819667,694
0.6836333,754
0.6853,797
0.6869667,896
0.6886333,573
0.6903,756
0.6919667,748
0.6936333,731
0.6953,657
0.6969666,753
0.6986333,909
0.7003,907
0.7019666,730
0.7036333,646
0.7053,748
0.7069666,687
0.7086333,679
0.7103,677
0.7119667,756
0.7136334,792
0.7153,827
0.7169667,653
0.7186334,732
0.7203,729
0.7219667,670
0.7236333,636
0.7253,522
0.7269667,722
0.7286333,587
0.7303,636
0.7319667,686
0.7336333,688
0.7353,691
0.7369667,693
0.7386333,551
0.7403,658
0.7419667,695
0.7436333,458
0.7453,658
0.7469667,745
0.7486333,706
0.7503,656
0.7519667,768
0.7536333,661
0.7553,669
0.7569667,693
0.7586333,649
0.7603,667
0.7619666,685
0.7636333,680
0.7653,674
0.7669666,679
0.7686333,684
0.7703,621
0.7719667,797
0.7736334,503
0.7753,603
0.7769667,736
0.7786334,662
0.7803,592
0.7819667,512
0.7836334,548
0.7853,585
0.7869667,566
0.7886333,547
0.7903,568
0.7919667,576
0.7936333,585
0.7953,571
0.7969667,557
0.7986333,669
0.8003,668
0.8019667,648
0.8036333,658
0.8053,554
0.8069667,570
0.8086333,468
0.8103,681
0.8119667,636
0.8136333,670
0.8153,667
0.8169667,560
0.8186333,642
0.8203,697
0.8219666,568
0.8236333,615
0.8253,542
0.8269666,617
0.8286333,577
0.8303,540
0.8319666,503
0.8336333,578
0.8353,622
0.8369667,604
0.8386334,599
0.8403,594
0.8419667,594
0.8436334,565
0.8453,537
0.8469667,553
0.8486333,547
0.8503,582
0.8519667,616
0.8536333,403
0.8553,521
0.8569667,533
0.8586333,634
0.8603,581
0.8619667,548
0.8636333,401
0.8653,691
0.8669667,757
0.8686333,543
0.8703,738
0.8719667,521
0.8736333,549
0.8753,604
0.8769667,551
0.8786333,683
0.8803,895
0.8819667,1137
0.8836333,1367
0.8853,1438
0.8869666,1523
0.8886333,1843
0.8903,1719
0.8919666,1779
0.8936333,1825
0.8953,1939
0.8969667,1501
0.8986334,1600
0.9003,2015
0.9019667,1835
0.9036334,1466
0.9053,2057
0.9069667,2075
0.9086334,2212
0.9103,2051
0.9119667,2165
0.9136333,2150
0.9153,2016
0.9169667,2243
0.9186333,1846
0.9203,2004
0.9219667,1745
0.9236333,1651
0.9253,2073
0.9269667,1926
0.9286333,1919
0.9303,1517
0.9319667,2152
0.9336333,1674
0.9353,2075
0.9369667,1657
0.9386333,1716
0.9403,1738
0.9419667,1709
0.9436333,1737
0.9453,1833
0.9469666,1433
0.9486333,1592
0.9503,1508
0.9519666,1464
0.9536333,1567
0.9553,1515
0.9569666,1498
0.9586333,1319
0.9603,1274
0.9619667,1284
0.9636334,1110
0.9653,1102
0.9669667,1174
0.9686334,965
0.9703,1016
0.9719667,857
0.9736333,1015
0.9753,833
0.9769667,778
0.9786333,790
0.9803,705
0.9819667,811
0.9836333,685
0.9853,591
0.9869667,521
0.9886333,583
0.9903,570
0.9919667,533
0.9936333,497
0.9953,477
0.9969667,506
0.9986333,520
1.0003,535
1.001967,517
1.003633,499
1.0053,529
1.006967,417
1.008633,453
1.0103,489
1.011967,452
1.013633,458
1.0153,463
1.016967,482
1.018633,552
1.0203,583
1.021967,426
1.023633,427
1.0253,512
1.026967,345
1.028633,420
1.0303,495
1.031967,328
1.033633,514
1.0353,423
1.036967,476
1.038633,455
1.0403,469
1.041967,445
1.043633,472
1.0453,564
1.046967,555
1.048633,462
1.0503,463
1.051967,473
1.053633,413
1.0553,420
1.056967,427
1.058633,453
1.0603,478
1.061967,461
1.063633,443
1.0653,490
1.066967,481
1.068633,473
1.0703,494
1.071967,514
1.073633,422
1.0753,472
1.076967,522
1.078633,594
1.0803,539
1.081967,559
1.083633,485
1.0853,558
1.086967,485
1.088633,412
1.0903,543
1.091967,424
1.093633,521
1.0953,604
1.096967,615
1.098633,519
1.1003,578
1.101967,639
1.103633,457
1.1053,463
1.106967,599
1.108633,536
1.1103,444
1.111967,443
1.113633,438
1.1153,433
1.116967,451
1.118633,469
1.1203,522
1.121967,508
1.123633,466
1.1253,533
1.126967,528
1.128633,523
1.1303,582
1.131967,598
1.133633,528
1.1353,535
1.136967,543
1.138633,459
1.1403,500
1.141967,541
1.143633,516
1.1453,564
1.146967,451
1.148633,565
1.1503,548
1.151967,490
1.153633,532
1.1553,439
1.156967,476
1.158633,512
1.1603,555
1.161967,541
1.163633,528
1.1653,550
1.166967,573
1.168633,597
1.1703,431
1.171967,682
1.173633,445
1.1753,655
1.176967,480
1.178633,470
1.1803,563
1.181967,483
1.183633,483
1.1853,483
1.186967,532
1.188633,539
1.1903,547
1.191967,535
1.193633,574
1.1953,564
1.196967,554
1.198633,546
