"SampleName","A2Rd2_02-19"
"Target Mass 1",
"Column Name","IA-3 (3um, 4.6X100)"
"Channel","QDa 1: SIR Ch1"
0.00195,379
0.003616667,715
0.005283333,489
0.00695,494
0.008616666,529
0.01028333,553
0.01195,530
0.01361667,501
0.01528333,497
0.01695,492
0.01861667,644
0.02028333,612
0.02195,649
0.02361667,605
0.02528333,569
0.02695,519
0.02861667,548
0.03028333,553
0.03195,557
0.03361667,546
0.03528333,502
0.03695,557
0.03861667,484
0.04028333,440
0.04195,443
0.04361667,470
0.04528333,496
0.04695,600
0.04861667,653
0.05028334,643
0.05195,659
0.05361667,471
0.05528333,588
0.05695,616
0.05861667,655
0.06028333,534
0.06195,666
0.06361666,549
0.06528334,524
0.06695,341
0.06861667,638
0.07028333,541
0.07195,775
0.07361667,627
0.07528333,580
0.07695,464
0.07861666,683
0.08028334,440
0.08195,660
0.08361667,471
0.08528333,399
0.08695,557
0.08861667,612
0.09028333,510
0.09195,517
0.09361666,662
0.09528334,767
0.09695,693
0.09861667,526
0.1002833,640
0.10195,611
0.1036167,392
0.1052833,548
0.10695,530
0.1086167,525
0.1102833,547
0.11195,569
0.1136167,494
0.1152833,455
0.11695,540
0.1186167,577
0.1202833,555
0.12195,528
0.1236167,472
0.1252833,596
0.12695,629
0.1286167,680
0.1302833,558
0.13195,550
0.1336167,549
0.1352833,485
0.13695,664
0.1386167,616
0.1402833,344
0.14195,625
0.1436167,483
0.1452833,450
0.14695,575
0.1486167,508
0.1502833,506
0.15195,503
0.1536167,505
0.1552833,494
0.15695,484
0.1586167,350
0.1602833,476
0.16195,575
0.1636167,584
0.1652833,421
0.16695,560
0.1686167,489
0.1702833,515
0.17195,523
0.1736167,519
0.1752833,515
0.17695,573
0.1786167,451
0.1802833,532
0.18195,554
0.1836167,560
0.1852833,538
0.18695,545
0.1886167,496
0.1902833,475
0.19195,509
0.1936167,453
0.1952833,520
0.19695,549
0.1986167,521
0.2002833,492
0.20195,562
0.2036167,382
0.2052833,560
0.20695,511
0.2086167,629
0.2102833,550
0.21195,455
0.2136167,545
0.2152833,605
0.21695,434
0.2186167,544
0.2202833,437
0.22195,484
0.2236167,557
0.2252833,503
0.22695,438
0.2286167,525
0.2302833,559
0.23195,586
0.2336167,460
0.2352833,569
0.23695,504
0.2386167,515
0.2402833,404
0.24195,393
0.2436167,381
0.2453,437
0.24695,493
0.2486167,469
0.2502833,445
0.25195,607
0.2536167,590
0.2552833,706
0.25695,552
0.2586167,646
0.2602833,503
0.26195,601
0.2636333,518
0.2652833,641
0.26695,588
0.2686167,535
0.2702833,608
0.27195,442
0.2736167,483
0.2753,631
0.2769667,574
0.2786167,562
0.2803,508
0.28195,536
0.2836167,563
0.2852833,580
0.28695,486
0.2886167,547
0.2902833,556
0.29195,545
0.2936167,534
0.2952833,539
0.29695,545
0.2986333,473
0.3002833,479
0.30195,474
0.3036167,571
0.3052833,588
0.30695,446
0.3086167,617
0.3102833,430
0.31195,422
0.3136167,538
0.3153,579
0.31695,582
0.3186167,576
0.3203,584
0.32195,591
0.3236167,521
0.3252833,535
0.3269667,570
0.3286167,545
0.3302833,519
0.33195,470
0.3336333,539
0.3352833,476
0.3369667,448
0.3386167,534
0.3402833,573
0.34195,612
0.3436333,415
0.3453,560
0.34695,371
0.3486167,381
0.3503,525
0.35195,421
0.3536333,624
0.3552833,664
0.3569667,550
0.3586333,619
0.3603,690
0.3619667,665
0.3636167,816
0.3652833,1331
0.36695,1668
0.3686333,2640
0.3703,3923
0.3719667,4326
0.3736333,4195
0.3753,4578
0.3769667,4942
0.3786333,5115
0.3802833,5722
0.3819667,5931
0.3836167,5196
0.3853,4209
0.3869667,3787
0.3886333,3051
0.3903,2675
0.3919667,1989
0.3936333,1690
0.3953,1662
0.3969667,1555
0.3986333,1353
0.4003,1366
0.4019667,1247
0.4036333,1209
0.4053,986
0.4069667,1000
0.4086333,1141
0.4103,1154
0.4119667,1155
0.4136333,1190
0.4153,1226
0.4169667,1396
0.4186333,1448
0.4203,1460
0.4219667,1486
0.4236333,1427
0.4253,1368
0.4269667,1484
0.4286333,1426
0.4303,1367
0.4319667,1772
0.4336333,2071
0.4353,2861
0.4369667,4480
0.4386333,6863
0.4403,10264
0.4419667,15080
0.4436333,23880
0.4453,33824
0.4469667,46912
0.4486333,60832
0.4503,78304
0.4519667,94112
0.4536333,109520
0.4553,124704
0.4569667,137600
0.4586333,146176
0.4603,160256
0.4619667,169024
0.4636333,177792
0.4653,187328
0.4669667,190592
0.4686333,206976
0.4703,217728
0.4719667,229760
0.4736333,242496
0.4753,248960
0.4769667,260352
0.4786333,254400
0.4803,247296
0.4819667,235712
0.4836333,218112
0.4853,195456
0.4869667,176128
0.4886333,152128
0.4903,126384
0.4919667,106240
0.4936333,87168
0.4953,69744
0.4969667,56304
0.4986333,47760
0.5003,34304
0.5019667,27812
0.5036333,22468
0.5053,18908
0.5069667,14548
0.5086333,11692
0.5103,9432
0.5119666,8140
0.5136333,7301
0.5153,6616
0.5169666,5978
0.5186333,4557
0.5203,4772
0.5219667,4693
0.5236334,3985
0.5253,4295
0.5269667,3872
0.5286334,3842
0.5303,3262
0.5319667,3201
0.5336334,3206
0.5353,3170
0.5369667,2790
0.5386333,2991
0.5403,2562
0.5419667,2688
0.5436333,2373
0.5453,2528
0.5469667,2438
0.5486333,2551
0.5503,2322
0.5519667,2174
0.5536333,1928
0.5553,2045
0.5569667,1843
0.5586333,2001
0.5603,1849
0.5619667,1737
0.5636333,1758
0.5653,1642
0.5669667,1755
0.5686333,1494
0.5703,1523
0.5719666,1478
0.5736333,1492
0.5753,1507
0.5769666,1508
0.5786333,1509
0.5803,1214
0.5819666,1424
0.5836333,1222
0.5853,1438
0.5869667,1340
0.5886334,1242
0.5903,1409
0.5919667,1337
0.5936334,1400
0.5953,1336
0.5969667,1352
0.5986333,1368
0.6003,1335
0.6019667,1401
0.6036333,1192
0.6053,1745
0.6069667,1596
0.6086333,1297
0.6103,1519
0.6119667,1193
0.6136333,1129
0.6153,1533
0.6169667,1246
0.6186333,1268
0.6203,1351
0.6219667,1390
0.6236333,1417
0.6253,1173
0.6269667,1229
0.6286333,1361
0.6303,1212
0.6319667,1382
0.6336333,1201
0.6353,1146
0.6369666,1284
0.6386333,1045
0.6403,964
0.6419666,1039
0.6436333,991
0.6453,1186
0.6469667,1213
0.6486334,1048
0.6503,814
0.6519667,881
0.6536334,1005
0.6553,935
0.6569667,1028
0.6586334,1095
0.6603,734
0.6619667,791
0.6636333,870
0.6653,807
0.6669667,846
0.6686333,854
0.6703,875
0.6719667,897
0.6736333,785
0.6753,859
0.6769667,1019
0.6786333,954
0.6803,986
0.6819667,1010
0.6836333,1001
0.6853,821
0.6869667,900
0.6886333,795
0.6903,956
0.6919667,972
0.6936333,841
0.6953,855
0.6969666,861
0.6986333,726
0.7003,748
0.7019666,880
0.7036333,821
0.7053,817
0.7069666,692
0.7086333,645
0.7103,660
0.7119667,676
0.7136334,767
0.7153,777
0.7169667,767
0.7186334,758
0.7203,779
0.7219667,865
0.7236333,864
0.7253,687
0.7269667,958
0.7286333,811
0.7303,889
0.7319667,924
0.7336333,860
0.7353,810
0.7369667,823
0.7386333,795
0.7403,704
0.7419667,703
0.7436333,673
0.7453,642
0.7469667,810
0.7486333,888
0.7503,793
0.7519667,711
0.7536333,897
0.7553,842
0.7569667,787
0.7586333,777
0.7603,875
0.7619666,854
0.7636333,833
0.7653,892
0.7669666,885
0.7686333,884
0.7703,840
0.7719667,807
0.7736334,829
0.7753,806
0.7769667,809
0.7786334,773
0.7803,729
0.7819667,821
0.7836334,778
0.7853,775
0.7869667,772
0.7886333,752
0.7903,732
0.7919667,726
0.7936333,861
0.7953,812
0.7969667,762
0.7986333,811
0.8003,810
0.8019667,809
0.8036333,679
0.8053,730
0.8069667,741
0.8086333,641
0.8103,775
0.8119667,795
0.8136333,700
0.8153,873
0.8169667,620
0.8186333,804
0.8203,771
0.8219666,853
0.8236333,834
0.8253,937
0.8269666,955
0.8286333,853
0.8303,917
0.8319666,867
0.8336333,831
0.8353,724
0.8369667,943
0.8386334,740
0.8403,863
0.8419667,925
0.8436334,801
0.8453,783
0.8469667,776
0.8486333,876
0.8503,860
0.8519667,858
0.8536333,856
0.8553,669
0.8569667,753
0.8586333,727
0.8603,747
0.8619667,690
0.8636333,692
0.8653,694
0.8669667,693
0.8686333,615
0.8703,637
0.8719667,634
0.8736333,772
0.8753,757
0.8769667,693
0.8786333,885
0.8803,1092
0.8819667,1472
0.8836333,1772
0.8853,1983
0.8869666,2493
0.8886333,2790
0.8903,2719
0.8919666,3017
0.8936333,3226
0.8953,3271
0.8969667,3316
0.8986334,3529
0.9003,3743
0.9019667,3578
0.9036334,3853
0.9053,4046
0.9069667,3871
0.9086334,3696
0.9103,3879
0.9119667,3619
0.9136333,3643
0.9153,3668
0.9169667,3889
0.9186333,3892
0.9203,3895
0.9219667,3788
0.9236333,3681
0.9253,3812
0.9269667,3755
0.9286333,3698
0.9303,3349
0.9319667,3367
0.9336333,3691
0.9353,3391
0.9369667,3219
0.9386333,3249
0.9403,3154
0.9419667,3280
0.9436333,3201
0.9453,2821
0.9469666,2928
0.9486333,2509
0.9503,2341
0.9519666,2674
0.9536333,2284
0.9553,2265
0.9569666,2158
0.9586333,1952
0.9603,1677
0.9619667,1829
0.9636334,1563
0.9653,1676
0.9669667,1518
0.9686334,1575
0.9703,996
0.9719667,1383
0.9736333,1152
0.9753,925
0.9769667,1141
0.9786333,1105
0.9803,849
0.9819667,988
0.9836333,922
0.9853,1008
0.9869667,911
0.9886333,758
0.9903,664
0.9919667,790
0.9936333,703
0.9953,627
0.9969667,739
0.9986333,586
1.0003,615
1.001967,651
1.003633,619
1.0053,640
1.006967,515
1.008633,589
1.0103,464
1.011967,483
1.013633,502
1.0153,620
1.016967,620
1.018633,601
1.0203,620
1.021967,640
1.023633,773
1.0253,758
1.026967,587
1.028633,601
1.0303,633
1.031967,650
1.033633,667
1.0353,683
1.036967,679
1.038633,589
1.0403,609
1.041967,647
1.043633,455
1.0453,676
1.046967,489
1.048633,690
1.0503,681
1.051967,602
1.053633,609
1.0553,724
1.056967,635
1.058633,546
1.0603,664
1.061967,694
1.063633,628
1.0653,671
1.066967,715
1.068633,698
1.0703,682
1.071967,645
1.073633,607
1.0753,611
1.076967,643
1.078633,432
1.0803,600
1.081967,684
1.083633,641
1.0853,639
1.086967,749
1.088633,768
1.0903,543
1.091967,741
1.093633,708
1.0953,645
1.096967,784
1.098633,633
1.1003,667
1.101967,724
1.103633,664
1.1053,692
1.106967,673
1.108633,543
1.1103,609
1.111967,676
1.113633,510
1.1153,651
1.116967,764
1.118633,651
1.1203,603
1.121967,647
1.123633,582
1.1253,636
1.126967,547
1.128633,615
1.1303,632
1.131967,650
1.133633,627
1.1353,604
1.136967,788
1.138633,764
1.1403,719
1.141967,678
1.143633,609
1.1453,624
1.146967,739
1.148633,699
1.1503,741
1.151967,647
1.153633,666
1.1553,685
1.156967,681
1.158633,676
1.1603,716
1.161967,571
1.163633,710
1.1653,696
1.166967,670
1.168633,528
1.1703,605
1.171967,682
1.173633,578
1.1753,714
1.176967,706
1.178633,760
1.1803,662
1.181967,752
1.183633,699
1.1853,737
1.186967,828
1.188633,763
1.1903,698
1.191967,662
1.193633,607
1.1953,649
1.196967,684
1.198633,668
