"SampleName","A2Rd2_02-49"
"Target Mass 1",
"Column Name","IA-3 (3um, 4.6X100)"
"Channel","QDa 1: SIR Ch2"
0.00195,543
0.003616667,621
0.005283333,834
0.00695,768
0.008616666,947
0.01028333,969
0.01195,797
0.01361667,969
0.01528333,978
0.01695,916
0.01861667,945
0.02028333,965
0.02195,884
0.02361667,804
0.02528333,896
0.02695,849
0.02861667,913
0.03028333,941
0.03195,968
0.03361667,799
0.03528333,955
0.03695,953
0.03861667,950
0.04028333,883
0.04195,946
0.04361667,936
0.04528333,926
0.04695,1061
0.04861667,1043
0.05028334,920
0.05195,814
0.05361667,803
0.05528333,831
0.05695,968
0.05861667,980
0.06028333,901
0.06195,931
0.06361666,962
0.06528334,788
0.06695,1034
0.06861667,1008
0.07028333,889
0.07195,870
0.07361667,825
0.07528333,921
0.07695,883
0.07861666,887
0.08028334,892
0.08195,830
0.08361667,907
0.08528333,985
0.08695,898
0.08861667,811
0.09028333,759
0.09195,836
0.09361666,812
0.09528334,824
0.09695,836
0.09861667,845
0.1002833,862
0.10195,880
0.1036167,945
0.1052833,950
0.10695,842
0.1086167,852
0.1102833,863
0.11195,711
0.1136167,950
0.1152833,1091
0.11695,994
0.1186167,712
0.1202833,899
0.12195,826
0.1236167,767
0.1252833,865
0.12695,844
0.1286167,870
0.1302833,927
0.13195,985
0.1336167,735
0.1352833,927
0.13695,773
0.1386167,918
0.1402833,928
0.14195,1034
0.1436167,727
0.1452833,1134
0.14695,817
0.1486167,799
0.1502833,996
0.15195,905
0.1536167,996
0.1552833,1003
0.15695,1055
0.1586167,778
0.1602833,1012
0.16195,880
0.1636167,858
0.1652833,850
0.16695,754
0.1686167,692
0.1702833,985
0.17195,1029
0.1736167,873
0.1752833,819
0.17695,936
0.1786167,780
0.1802833,904
0.18195,815
0.1836167,943
0.1852833,872
0.18695,964
0.1886167,989
0.1902833,936
0.19195,791
0.1936167,941
0.1952833,937
0.19695,850
0.1986167,816
0.2002833,887
0.20195,757
0.2036167,938
0.2052833,933
0.20695,975
0.2086167,984
0.2103,994
0.21195,896
0.2136167,798
0.2152833,974
0.21695,920
0.2186167,910
0.2202833,1109
0.22195,1089
0.2236167,1052
0.2252833,1075
0.22695,1247
0.2286333,1225
0.2302833,1203
0.23195,1055
0.2336167,1053
0.2352833,1217
0.2369667,1273
0.2386167,1151
0.2402833,1252
0.2419667,1128
0.2436167,1179
0.2453,1227
0.24695,910
0.2486167,1190
0.2502833,1046
0.25195,1273
0.2536167,1155
0.2552833,1037
0.25695,1144
0.2586167,1002
0.2602833,1184
0.26195,1117
0.2636333,1319
0.2652833,1205
0.26695,1064
0.2686333,1236
0.2702833,1013
0.27195,1312
0.2736167,1002
0.2752833,1326
0.27695,883
0.2786167,1138
0.2803,1162
0.2819667,1117
0.2836333,1058
0.2853,979
0.2869667,1028
0.2886333,1039
0.2903,1049
0.2919667,1085
0.2936333,1092
0.2953,1079
0.2969667,1086
0.2986333,1093
0.3003,959
0.3019667,1165
0.3036333,1134
0.3053,1142
0.3069667,1054
0.3086333,1066
0.3103,1079
0.3119667,1034
0.3136333,988
0.3153,1207
0.3169667,1197
0.3186333,1289
0.3203,1142
0.3219667,996
0.3236333,1106
0.3253,1131
0.3269667,1156
0.3286333,1013
0.3303,1383
0.3319667,1351
0.3336333,1165
0.3353,1005
0.3369667,1250
0.3386333,1285
0.3403,1319
0.3419667,1250
0.3436333,1295
0.3453,1332
0.3469667,1369
0.3486333,1437
0.3503,1396
0.3519667,1309
0.3536333,1316
0.3553,1323
0.3569667,1390
0.3586333,1428
0.3603,1467
0.3619667,1284
0.3636333,1582
0.3653,2109
0.3669667,3093
0.3686333,3579
0.3703,4150
0.3719667,4163
0.3736333,3831
0.3753,3519
0.3769667,3505
0.3786333,3664
0.3803,3717
0.3819667,3115
0.3836333,2990
0.3853,2293
0.3869667,1923
0.3886333,1642
0.3903,968
0.3919667,972
0.3936333,849
0.3953,488
0.3969667,404
0.3986333,475
0.4003,406
0.4019667,467
0.4036333,499
0.4053,543
0.4069667,491
0.4086333,573
0.4103,439
0.4119667,526
0.4136333,460
0.4153,501
0.4169667,543
0.4186333,579
0.4203,542
0.4219667,506
0.4236333,738
0.4253,698
0.4269667,613
0.4286333,565
0.4303,663
0.4319667,768
0.4336333,745
0.4353,765
0.4369667,785
0.4386333,807
0.4403,830
0.4419667,946
0.4436333,928
0.4453,1063
0.4469667,1032
0.4486333,885
0.4503,951
0.4519667,1206
0.4536333,1273
0.4553,1165
0.4569667,1227
0.4586333,1055
0.4603,957
0.4619667,1090
0.4636333,1091
0.4653,1092
0.4669667,1187
0.4686333,1203
0.4703,1145
0.4719667,1085
0.4736333,1268
0.4753,1153
0.4769667,1039
0.4786333,1070
0.4803,1110
0.4819667,1179
0.4836333,1238
0.4853,1208
0.4869667,1177
0.4886333,1220
0.4903,1133
0.4919667,957
0.4936333,1219
0.4953,954
0.4969667,894
0.4986333,1021
0.5003,934
0.5019667,1058
0.5036333,1126
0.5053,749
0.5069667,975
0.5086333,762
0.5103,921
0.5119666,998
0.5136333,976
0.5153,987
0.5169666,907
0.5186333,933
0.5203,892
0.5219667,851
0.5236334,772
0.5253,885
0.5269667,907
0.5286334,928
0.5303,871
0.5319667,884
0.5336334,867
0.5353,783
0.5369667,829
0.5386333,835
0.5403,842
0.5419667,860
0.5436333,1051
0.5453,1047
0.5469667,1053
0.5486333,793
0.5503,1016
0.5519667,1032
0.5536333,975
0.5553,971
0.5569667,928
0.5586333,789
0.5603,802
0.5619667,815
0.5636333,1014
0.5653,1058
0.5669667,855
0.5686333,1022
0.5703,955
0.5719666,948
0.5736333,879
0.5753,899
0.5769666,920
0.5786333,898
0.5803,1007
0.5819666,782
0.5836333,1091
0.5853,841
0.5869667,864
0.5886334,886
0.5903,902
0.5919667,1035
0.5936334,1064
0.5953,796
0.5969667,893
0.5986333,884
0.6003,774
0.6019667,937
0.6036333,916
0.6053,793
0.6069667,787
0.6086333,897
0.6103,857
0.6119667,995
0.6136333,694
0.6153,869
0.6169667,927
0.6186333,1081
0.6203,1015
0.6219667,998
0.6236333,981
0.6253,1031
0.6269667,941
0.6286333,997
0.6303,1053
0.6319667,904
0.6336333,1012
0.6353,900
0.6369666,971
0.6386333,1048
0.6403,1008
0.6419666,967
0.6436333,962
0.6453,914
0.6469667,1008
0.6486334,993
0.6503,977
0.6519667,1024
0.6536334,817
0.6553,1072
0.6569667,1105
0.6586334,1051
0.6603,761
0.6619667,934
0.6636333,1021
0.6653,1071
0.6669667,1082
0.6686333,1241
0.6703,1191
0.6719667,1655
0.6736333,1767
0.6753,1951
0.6769667,2912
0.6786333,2770
0.6803,4001
0.6819667,4864
0.6836333,6204
0.6853,8074
0.6869667,9460
0.6886333,11516
0.6903,12904
0.6919667,15360
0.6936333,17656
0.6953,20056
0.6969666,20848
0.6986333,21572
0.7003,22116
0.7019666,22540
0.7036333,22672
0.7053,23064
0.7069666,20896
0.7086333,21728
0.7103,19676
0.7119667,19964
0.7136334,20344
0.7153,20116
0.7169667,19836
0.7186334,19556
0.7203,19844
0.7219667,19860
0.7236333,19880
0.7253,18120
0.7269667,17700
0.7286333,16304
0.7303,14548
0.7319667,13336
0.7336333,12820
0.7353,10352
0.7369667,9320
0.7386333,7626
0.7403,7345
0.7419667,6578
0.7436333,5607
0.7453,4822
0.7469667,4051
0.7486333,3725
0.7503,3739
0.7519667,2908
0.7536333,2687
0.7553,2394
0.7569667,2499
0.7586333,2080
0.7603,1893
0.7619666,1771
0.7636333,1937
0.7653,1777
0.7669666,1617
0.7686333,1560
0.7703,1823
0.7719667,1879
0.7736334,2426
0.7753,2380
0.7769667,2971
0.7786334,3417
0.7803,4605
0.7819667,5218
0.7836334,6119
0.7853,8832
0.7869667,10368
0.7886333,13852
0.7903,15768
0.7919667,18776
0.7936333,21940
0.7953,24308
0.7969667,28228
0.7986333,31064
0.8003,31392
0.8019667,32704
0.8036333,35120
0.8053,35744
0.8069667,35296
0.8086333,35248
0.8103,34816
0.8119667,33616
0.8136333,33088
0.8153,32992
0.8169667,31384
0.8186333,31168
0.8203,32632
0.8219666,31484
0.8236333,31572
0.8253,29976
0.8269666,31220
0.8286333,29352
0.8303,29304
0.8319666,27728
0.8336333,26752
0.8353,26408
0.8369667,23868
0.8386334,21444
0.8403,19432
0.8419667,17432
0.8436334,15412
0.8453,15088
0.8469667,13108
0.8486333,11560
0.8503,10424
0.8519667,9136
0.8536333,8102
0.8553,7150
0.8569667,6187
0.8586333,5749
0.8603,5362
0.8619667,4576
0.8636333,4747
0.8653,3820
0.8669667,3445
0.8686333,3082
0.8703,2926
0.8719667,2503
0.8736333,2124
0.8753,2464
0.8769667,2349
0.8786333,2611
0.8803,2428
0.8819667,2787
0.8836333,2690
0.8853,2678
0.8869666,2802
0.8886333,2617
0.8903,2602
0.8919666,2408
0.8936333,2313
0.8953,2178
0.8969667,2127
0.8986334,2373
0.9003,2001
0.9019667,1623
0.9036334,1934
0.9053,1865
0.9069667,2026
0.9086334,1828
0.9103,1463
0.9119667,1732
0.9136333,1602
0.9153,1596
0.9169667,1816
0.9186333,1797
0.9203,1843
0.9219667,1474
0.9236333,1577
0.9253,1528
0.9269667,1757
0.9286333,1704
0.9303,1552
0.9319667,1458
0.9336333,1827
0.9353,1874
0.9369667,1560
0.9386333,1676
0.9403,1807
0.9419667,1641
0.9436333,1696
0.9453,1865
0.9469666,1860
0.9486333,1884
0.9503,2335
0.9519666,2579
0.9536333,3002
0.9553,3356
0.9569666,4486
0.9586333,5143
0.9603,5533
0.9619667,7494
0.9636334,8688
0.9653,10064
0.9669667,12192
0.9686334,14776
0.9703,18064
0.9719667,21320
0.9736333,23748
0.9753,26780
0.9769667,30220
0.9786333,33792
0.9803,37824
0.9819667,39280
0.9836333,40816
0.9853,42480
0.9869667,44144
0.9886333,44672
0.9903,44800
0.9919667,47280
0.9936333,47360
0.9953,45472
0.9969667,45824
0.9986333,46240
1.0003,45632
1.001967,46208
1.003633,45072
1.0053,43392
1.006967,44064
1.008633,43952
1.0103,43456
1.011967,44288
1.013633,45280
1.0153,41728
1.016967,44464
1.018633,46672
1.0203,43664
1.021967,44224
1.023633,42016
1.0253,41344
1.026967,39024
1.028633,38992
1.0303,39072
1.031967,35616
1.033633,32620
1.0353,29504
1.036967,26452
1.038633,26540
1.0403,24620
1.041967,22808
1.043633,20592
1.0453,19304
1.046967,18048
1.048633,16412
1.0503,15268
1.051967,14296
1.053633,13372
1.0553,12080
1.056967,13456
1.058633,12748
1.0603,12172
1.061967,11840
1.063633,11992
1.0653,12192
1.066967,12324
1.068633,12452
1.0703,13864
1.071967,13844
1.073633,12264
1.0753,13048
1.076967,12936
1.078633,12952
1.0803,12968
1.081967,13040
1.083633,14008
1.0853,13924
1.086967,13160
1.088633,12664
1.0903,12440
1.091967,12092
1.093633,12476
1.0953,12500
1.096967,11172
1.098633,12256
1.1003,12340
1.101967,12320
1.103633,11316
1.1053,12068
1.106967,11860
1.108633,11956
1.1103,11664
1.111967,11628
1.113633,10156
1.1153,10240
1.116967,10452
1.118633,9676
1.1203,9508
1.121967,9136
1.123633,8684
1.1253,7874
1.126967,8127
1.128633,7657
1.1303,7470
1.131967,6902
1.133633,6181
1.1353,5691
1.136967,5213
1.138633,5275
1.1403,4615
1.141967,4473
1.143633,4442
1.1453,4092
1.146967,4072
1.148633,3808
1.1503,3685
1.151967,3237
1.153633,3056
1.1553,2838
1.156967,2950
1.158633,2969
1.1603,2548
1.161967,2341
1.163633,2283
1.1653,2519
1.166967,2189
1.168633,2342
1.1703,1962
1.171967,1983
1.173633,1855
1.1753,1658
1.176967,1975
1.178633,1728
1.1803,2061
1.181967,1997
1.183633,2002
1.1853,1701
1.186967,1793
1.188633,1922
1.1903,1960
1.191967,2132
1.193633,2098
1.1953,2363
1.196967,2264
1.198633,2518
