"SampleName","A2Rd2_02-95"
"Target Mass 1",
"Column Name","IA-3 (3um, 4.6X100)"
"Channel","QDa 1: SIR Ch2"
0.00195,507
0.003616667,665
0.005283333,697
0.00695,628
0.008616666,750
0.01028333,873
0.01195,970
0.01361667,876
0.01528333,839
0.01695,850
0.01861667,969
0.02028333,952
0.02195,968
0.02361667,930
0.02528333,901
0.02695,964
0.02861667,935
0.03028333,805
0.03195,980
0.03361667,951
0.03528333,1044
0.03695,875
0.03861667,869
0.04028333,991
0.04195,1066
0.04361667,980
0.04528333,893
0.04695,978
0.04861667,933
0.05028334,888
0.05195,1065
0.05361667,1095
0.05528333,946
0.05695,792
0.05861667,933
0.06028333,867
0.06195,935
0.06361666,917
0.06528334,898
0.06695,831
0.06861667,914
0.07028333,936
0.07195,929
0.07361667,921
0.07528333,969
0.07695,949
0.07861666,929
0.08028334,930
0.08195,904
0.08361667,878
0.08528333,947
0.08695,886
0.08861667,746
0.09028333,962
0.09195,1119
0.09361666,983
0.09528334,938
0.09695,909
0.09861667,952
0.1002833,873
0.10195,847
0.1036167,929
0.1052833,895
0.10695,692
0.1086167,909
0.1102833,863
0.11195,922
0.1136167,917
0.1152833,916
0.11695,915
0.1186167,846
0.1202833,852
0.12195,857
0.1236167,817
0.1252833,777
0.12695,820
0.1286167,864
0.1302833,903
0.13195,970
0.1336167,927
0.1352833,992
0.13695,1086
0.1386167,826
0.1402833,895
0.14195,1048
0.1436167,956
0.1452833,1080
0.14695,876
0.1486167,857
0.1502833,824
0.15195,799
0.1536167,775
0.1552833,761
0.15695,747
0.1586167,764
0.1602833,780
0.16195,868
0.1636167,846
0.1652833,823
0.16695,969
0.1686167,847
0.1702833,726
0.17195,738
0.1736167,751
0.1752833,938
0.17695,993
0.1786167,1043
0.1802833,813
0.18195,1018
0.1836167,743
0.1852833,943
0.18695,875
0.1886167,861
0.1902833,930
0.19195,890
0.1936167,850
0.1952833,957
0.19695,894
0.1986167,831
0.2002833,863
0.20195,819
0.2036167,950
0.2052833,840
0.20695,730
0.2086167,977
0.2102833,880
0.21195,1086
0.2136167,1017
0.2152833,871
0.21695,1072
0.2186167,936
0.2202833,881
0.22195,1096
0.2236167,1088
0.2252833,1116
0.22695,1044
0.2286167,1064
0.2302833,1125
0.23195,1207
0.2336167,1160
0.2352833,1197
0.23695,1097
0.2386167,1092
0.2402833,1264
0.24195,1205
0.2436167,1129
0.2452833,1198
0.24695,1082
0.2486167,1044
0.2502833,1106
0.25195,1211
0.2536167,1082
0.2552833,954
0.25695,1106
0.2586167,1108
0.2602833,1110
0.26195,1107
0.2636333,1103
0.2653,1109
0.26695,1019
0.2686167,1140
0.2702833,1080
0.27195,989
0.2736167,1025
0.2752833,1030
0.27695,1036
0.2786167,1086
0.2803,1073
0.28195,1060
0.2836167,1044
0.2852833,1032
0.28695,888
0.2886167,905
0.2902833,1012
0.29195,1159
0.2936167,1123
0.2952833,1082
0.29695,866
0.2986333,1146
0.3002833,1048
0.30195,1110
0.3036167,955
0.3052833,965
0.30695,1000
0.3086167,1095
0.3102833,1175
0.31195,1213
0.3136167,1501
0.3153,1478
0.31695,1411
0.3186167,1292
0.3202833,1462
0.3219667,1243
0.3236167,1200
0.3252833,1239
0.32695,1279
0.3286167,1394
0.3302833,1402
0.33195,1277
0.3336333,1302
0.3353,1360
0.33695,1269
0.3386333,1178
0.3402833,1406
0.34195,1321
0.3436167,1359
0.3452833,1205
0.34695,1244
0.3486333,1257
0.3503,1345
0.3519667,1312
0.3536333,1280
0.3553,1311
0.35695,1343
0.3586167,1231
0.3602833,1290
0.3619667,1349
0.3636167,1379
0.3653,2155
0.36695,2757
0.3686333,2949
0.3702833,3313
0.3719667,2984
0.3736167,2792
0.3752833,2736
0.37695,2461
0.3786167,2739
0.3803,2838
0.38195,2476
0.3836333,2315
0.3853,2081
0.3869667,1983
0.3886333,1410
0.3903,1279
0.3919667,1020
0.3936333,840
0.3953,948
0.3969667,601
0.3986333,598
0.4003,580
0.4019667,562
0.4036333,603
0.4053,520
0.4069667,590
0.4086333,674
0.4103,622
0.4119667,489
0.4136333,645
0.4153,677
0.4169667,490
0.4186333,741
0.4203,738
0.4219667,756
0.4236333,712
0.4253,682
0.4269667,653
0.4286333,785
0.4303,736
0.4319667,686
0.4336333,723
0.4353,848
0.4369667,1025
0.4386333,1021
0.4403,831
0.4419667,1095
0.4436333,1105
0.4453,1263
0.4469667,1101
0.4486333,1182
0.4503,1061
0.4519667,1036
0.4536333,1074
0.4553,1113
0.4569667,1225
0.4586333,1363
0.4603,1290
0.4619667,1240
0.4636333,1590
0.4653,1575
0.4669667,1423
0.4686333,1483
0.4703,1533
0.4719667,1331
0.4736333,1566
0.4753,1374
0.4769667,1501
0.4786333,1552
0.4803,1427
0.4819667,1297
0.4836333,1299
0.4853,1377
0.4869667,1264
0.4886333,1151
0.4903,1307
0.4919667,1327
0.4936333,1129
0.4953,1270
0.4969667,1105
0.4986333,1124
0.5003,1104
0.5019667,1031
0.5036333,1065
0.5053,971
0.5069667,1015
0.5086333,970
0.5103,999
0.5119666,1028
0.5136333,923
0.5153,905
0.5169666,1010
0.5186333,985
0.5203,1068
0.5219667,1032
0.5236334,913
0.5253,1003
0.5269667,965
0.5286334,1059
0.5303,1033
0.5319667,1008
0.5336334,952
0.5353,897
0.5369667,756
0.5386333,1225
0.5403,1277
0.5419667,884
0.5436333,1048
0.5453,1075
0.5469667,1152
0.5486333,998
0.5503,939
0.5519667,1023
0.5536333,991
0.5553,1009
0.5569667,912
0.5586333,955
0.5603,950
0.5619667,935
0.5636333,919
0.5653,974
0.5669667,1028
0.5686333,918
0.5703,807
0.5719666,986
0.5736333,899
0.5753,1026
0.5769666,919
0.5786333,1091
0.5803,833
0.5819666,1056
0.5836333,860
0.5853,968
0.5869667,1095
0.5886334,935
0.5903,1127
0.5919667,1144
0.5936334,800
0.5953,984
0.5969667,938
0.5986333,626
0.6003,952
0.6019667,1030
0.6036333,896
0.6053,946
0.6069667,996
0.6086333,937
0.6103,817
0.6119667,843
0.6136333,894
0.6153,945
0.6169667,1005
0.6186333,1064
0.6203,827
0.6219667,820
0.6236333,998
0.6253,956
0.6269667,914
0.6286333,1001
0.6303,925
0.6319667,849
0.6336333,991
0.6353,921
0.6369666,979
0.6386333,1037
0.6403,979
0.6419666,922
0.6436333,1007
0.6453,928
0.6469667,850
0.6486334,999
0.6503,1041
0.6519667,1113
0.6536334,1039
0.6553,965
0.6569667,959
0.6586334,926
0.6603,971
0.6619667,1016
0.6636333,987
0.6653,939
0.6669667,900
0.6686333,936
0.6703,972
0.6719667,834
0.6736333,831
0.6753,829
0.6769667,955
0.6786333,986
0.6803,1017
0.6819667,739
0.6836333,879
0.6853,815
0.6869667,858
0.6886333,863
0.6903,1020
0.6919667,1024
0.6936333,867
0.6953,765
0.6969666,847
0.6986333,847
0.7003,853
0.7019666,796
0.7036333,835
0.7053,886
0.7069666,937
0.7086333,936
0.7103,936
0.7119667,914
0.7136334,908
0.7153,903
0.7169667,801
0.7186334,909
0.7203,894
0.7219667,896
0.7236333,960
0.7253,755
0.7269667,831
0.7286333,885
0.7303,919
0.7319667,952
0.7336333,986
0.7353,808
0.7369667,1131
0.7386333,1012
0.7403,1110
0.7419667,917
0.7436333,829
0.7453,666
0.7469667,882
0.7486333,883
0.7503,846
0.7519667,819
0.7536333,843
0.7553,827
0.7569667,752
0.7586333,787
0.7603,821
0.7619666,806
0.7636333,880
0.7653,974
0.7669666,926
0.7686333,902
0.7703,834
0.7719667,854
0.7736334,875
0.7753,867
0.7769667,860
0.7786334,783
0.7803,829
0.7819667,851
0.7836334,873
0.7853,810
0.7869667,746
0.7886333,848
0.7903,878
0.7919667,907
0.7936333,919
0.7953,931
0.7969667,1044
0.7986333,1132
0.8003,804
0.8019667,748
0.8036333,914
0.8053,954
0.8069667,1017
0.8086333,923
0.8103,933
0.8119667,955
0.8136333,977
0.8153,1096
0.8169667,1081
0.8186333,1093
0.8203,761
0.8219666,893
0.8236333,995
0.8253,935
0.8269666,993
0.8286333,945
0.8303,896
0.8319666,909
0.8336333,856
0.8353,797
0.8369667,995
0.8386334,718
0.8403,996
0.8419667,898
0.8436334,882
0.8453,748
0.8469667,891
0.8486333,827
0.8503,936
0.8519667,739
0.8536333,765
0.8553,931
0.8569667,874
0.8586333,1026
0.8603,971
0.8619667,880
0.8636333,776
0.8653,858
0.8669667,850
0.8686333,841
0.8703,816
0.8719667,867
0.8736333,833
0.8753,798
0.8769667,901
0.8786333,957
0.8803,889
0.8819667,1193
0.8836333,1163
0.8853,1347
0.8869666,1408
0.8886333,1396
0.8903,1069
0.8919666,1400
0.8936333,1456
0.8953,1213
0.8969667,1357
0.8986334,1313
0.9003,1271
0.9019667,1230
0.9036334,1283
0.9053,1187
0.9069667,1329
0.9086334,1358
0.9103,1388
0.9119667,1288
0.9136333,1362
0.9153,1367
0.9169667,1373
0.9186333,1067
0.9203,1363
0.9219667,1136
0.9236333,1403
0.9253,1340
0.9269667,1179
0.9286333,1429
0.9303,1427
0.9319667,1370
0.9336333,1314
0.9353,1245
0.9369667,1067
0.9386333,1143
0.9403,1312
0.9419667,1225
0.9436333,1231
0.9453,1195
0.9469666,1233
0.9486333,1271
0.9503,1119
0.9519666,1112
0.9536333,993
0.9553,1017
0.9569666,1041
0.9586333,1132
0.9603,1093
0.9619667,1054
0.9636334,1140
0.9653,1190
0.9669667,993
0.9686334,956
0.9703,934
0.9719667,962
0.9736333,1120
0.9753,1040
0.9769667,960
0.9786333,998
0.9803,942
0.9819667,800
0.9836333,919
0.9853,944
0.9869667,1024
0.9886333,971
0.9903,998
0.9919667,1026
0.9936333,923
0.9953,953
0.9969667,733
0.9986333,927
1.0003,828
1.001967,787
1.003633,747
1.0053,784
1.006967,822
1.008633,945
1.0103,889
1.011967,833
1.013633,778
1.0153,871
1.016967,824
1.018633,729
1.0203,810
1.021967,1070
1.023633,1009
1.0253,738
1.026967,646
1.028633,921
1.0303,922
1.031967,843
1.033633,764
1.0353,975
1.036967,860
1.038633,863
1.0403,935
1.041967,830
1.043633,959
1.0453,1033
1.046967,987
1.048633,1092
1.0503,741
1.051967,745
1.053633,845
1.0553,852
1.056967,860
1.058633,749
1.0603,801
1.061967,778
1.063633,763
1.0653,749
1.066967,732
1.068633,714
1.0703,716
1.071967,717
1.073633,757
1.0753,796
1.076967,890
1.078633,900
1.0803,831
1.081967,762
1.083633,886
1.0853,947
1.086967,1007
1.088633,912
1.0903,770
1.091967,617
1.093633,716
1.0953,815
1.096967,798
1.098633,907
1.1003,850
1.101967,793
1.103633,841
1.1053,809
1.106967,766
1.108633,723
1.1103,866
1.111967,851
1.113633,836
1.1153,636
1.116967,751
1.118633,773
1.1203,930
1.121967,1001
1.123633,935
1.1253,736
1.126967,870
1.128633,830
1.1303,919
1.131967,917
1.133633,915
1.1353,934
1.136967,850
1.138633,955
1.1403,947
1.141967,930
1.143633,922
1.1453,915
1.146967,959
1.148633,804
1.1503,1026
1.151967,787
1.153633,918
1.1553,850
1.156967,930
1.158633,922
1.1603,835
1.161967,1055
1.163633,1042
1.1653,814
1.166967,768
1.168633,955
1.1703,810
1.171967,907
1.173633,969
1.1753,888
1.176967,823
1.178633,921
1.1803,860
1.181967,891
1.183633,960
1.1853,713
1.186967,667
1.188633,727
1.1903,842
1.191967,812
1.193633,796
1.1953,779
1.196967,739
1.198633,700
