"SampleName","A2Rd2_02-26"
"Target Mass 1",
"Column Name","IA-3 (3um, 4.6X100)"
"Channel","QDa 1: SIR Ch1"
0.00195,321
0.003616667,490
0.005283333,502
0.00695,513
0.008616666,498
0.01028333,482
0.01195,566
0.01361667,594
0.01528333,587
0.01695,621
0.01861667,670
0.02028333,437
0.02195,596
0.02361667,429
0.02528333,545
0.02695,546
0.02861667,616
0.03028333,583
0.03195,550
0.03361667,493
0.03528333,513
0.03695,534
0.03861667,647
0.04028333,650
0.04195,557
0.04361667,575
0.04528333,593
0.04695,539
0.04861667,607
0.05028334,586
0.05195,595
0.05361667,514
0.05528333,558
0.05695,602
0.05861667,419
0.06028333,554
0.06195,460
0.06361666,528
0.06528334,542
0.06695,636
0.06861667,594
0.07028333,707
0.07195,691
0.07361667,578
0.07528333,579
0.07695,513
0.07861666,625
0.08028334,641
0.08195,481
0.08361667,492
0.08528333,549
0.08695,598
0.08861667,575
0.09028333,572
0.09195,388
0.09361666,611
0.09528334,663
0.09695,466
0.09861667,548
0.1002833,586
0.10195,508
0.1036167,557
0.1052833,474
0.10695,402
0.1086167,546
0.1102833,556
0.11195,567
0.1136167,534
0.1152833,502
0.11695,471
0.1186167,441
0.1202833,577
0.12195,628
0.1236167,514
0.1252833,456
0.12695,651
0.1286167,513
0.1302833,538
0.13195,628
0.1336167,524
0.1352833,501
0.13695,589
0.1386167,618
0.1402833,547
0.14195,477
0.1436167,608
0.1452833,554
0.14695,455
0.1486167,469
0.1502833,479
0.15195,619
0.1536167,565
0.1552833,512
0.15695,513
0.1586167,513
0.1602833,508
0.16195,502
0.1636167,510
0.1652833,518
0.16695,494
0.1686167,487
0.1702833,481
0.17195,588
0.1736167,580
0.1752833,448
0.17695,534
0.1786167,520
0.1802833,537
0.18195,525
0.1836167,468
0.1852833,491
0.18695,513
0.1886167,554
0.1902833,524
0.19195,493
0.1936167,502
0.1952833,512
0.19695,434
0.1986167,465
0.2002833,492
0.20195,456
0.2036167,421
0.2052833,541
0.2069667,551
0.2086167,492
0.2103,523
0.21195,553
0.2136167,531
0.2152833,481
0.21695,505
0.2186167,541
0.2202833,576
0.22195,538
0.2236167,478
0.2252833,513
0.22695,485
0.2286167,468
0.2302833,462
0.23195,456
0.2336167,494
0.2352833,495
0.23695,496
0.2386167,406
0.2402833,315
0.24195,442
0.2436333,501
0.2452833,559
0.24695,532
0.2486167,541
0.2502833,514
0.2519667,532
0.2536167,568
0.2552833,604
0.25695,436
0.2586167,548
0.2603,552
0.2619667,556
0.2636333,544
0.2652833,532
0.26695,538
0.2686333,545
0.2702833,449
0.27195,447
0.2736167,446
0.2752833,508
0.27695,482
0.2786167,456
0.2803,495
0.28195,442
0.2836167,406
0.2852833,483
0.2869667,440
0.2886167,534
0.2903,555
0.29195,477
0.2936333,587
0.2952833,539
0.29695,611
0.2986333,588
0.3002833,564
0.30195,524
0.3036167,484
0.3052833,484
0.30695,455
0.3086167,427
0.3102833,453
0.31195,438
0.3136167,422
0.3153,485
0.31695,547
0.3186167,540
0.3203,532
0.32195,533
0.3236167,552
0.3253,462
0.32695,567
0.3286333,538
0.3302833,631
0.33195,594
0.3336333,557
0.3353,616
0.3369667,438
0.3386167,338
0.3403,630
0.3419667,633
0.3436333,516
0.3453,464
0.34695,521
0.3486333,531
0.3503,551
0.3519667,570
0.3536333,589
0.3553,577
0.3569667,565
0.3586333,526
0.3602833,538
0.3619667,672
0.3636167,806
0.3653,1035
0.36695,1598
0.3686333,2400
0.3703,3491
0.3719667,3682
0.3736333,4136
0.3753,4792
0.3769667,4952
0.3786333,5572
0.3803,5397
0.3819667,5530
0.3836167,5171
0.3853,5082
0.3869667,3986
0.3886333,3333
0.3903,3589
0.3919667,2548
0.3936333,2221
0.3953,1623
0.3969667,1477
0.3986333,1144
0.4003,1146
0.4019667,1090
0.4036333,1090
0.4053,1163
0.4069667,806
0.4086333,1018
0.4103,1106
0.4119667,990
0.4136333,1084
0.4153,1035
0.4169667,990
0.4186333,1099
0.4203,1080
0.4219667,1068
0.4236333,1223
0.4253,1191
0.4269667,1196
0.4286333,1200
0.4303,1257
0.4319667,1313
0.4336333,1838
0.4353,2344
0.4369667,4119
0.4386333,6274
0.4403,10164
0.4419667,15708
0.4436333,24380
0.4453,33712
0.4469667,48304
0.4486333,62624
0.4503,80384
0.4519667,95616
0.4536333,112528
0.4553,125136
0.4569667,137216
0.4586333,149952
0.4603,154944
0.4619667,160960
0.4636333,168384
0.4653,173632
0.4669667,181696
0.4686333,187520
0.4703,200832
0.4719667,210432
0.4736333,224064
0.4753,226432
0.4769667,234944
0.4786333,226944
0.4803,216192
0.4819667,202880
0.4836333,187776
0.4853,162752
0.4869667,145792
0.4886333,126384
0.4903,106112
0.4919667,87520
0.4936333,71040
0.4953,57424
0.4969667,45744
0.4986333,36800
0.5003,28204
0.5019667,22856
0.5036333,17888
0.5053,15356
0.5069667,12072
0.5086333,10108
0.5103,8137
0.5119666,7521
0.5136333,6734
0.5153,5805
0.5169666,5102
0.5186333,4958
0.5203,4301
0.5219667,4215
0.5236334,4576
0.5253,3256
0.5269667,3518
0.5286334,3463
0.5303,2883
0.5319667,2898
0.5336334,2556
0.5353,3012
0.5369667,2377
0.5386333,2488
0.5403,2651
0.5419667,2356
0.5436333,2384
0.5453,1972
0.5469667,2131
0.5486333,2161
0.5503,2208
0.5519667,1854
0.5536333,1881
0.5553,1706
0.5569667,1771
0.5586333,1836
0.5603,1617
0.5619667,1722
0.5636333,1635
0.5653,1632
0.5669667,1521
0.5686333,1427
0.5703,1438
0.5719666,1323
0.5736333,1388
0.5753,1409
0.5769666,1431
0.5786333,1393
0.5803,1480
0.5819666,1317
0.5836333,1483
0.5853,1236
0.5869667,1242
0.5886334,1288
0.5903,1333
0.5919667,1296
0.5936334,1223
0.5953,1270
0.5969667,1270
0.5986333,1079
0.6003,1474
0.6019667,1358
0.6036333,1091
0.6053,1151
0.6069667,1255
0.6086333,1082
0.6103,1263
0.6119667,1345
0.6136333,1140
0.6153,1311
0.6169667,1067
0.6186333,1305
0.6203,1144
0.6219667,1348
0.6236333,1092
0.6253,1168
0.6269667,991
0.6286333,1103
0.6303,1014
0.6319667,984
0.6336333,976
0.6353,944
0.6369666,796
0.6386333,879
0.6403,799
0.6419666,721
0.6436333,730
0.6453,752
0.6469667,773
0.6486334,795
0.6503,817
0.6519667,700
0.6536334,627
0.6553,706
0.6569667,785
0.6586334,923
0.6603,895
0.6619667,809
0.6636333,869
0.6653,848
0.6669667,791
0.6686333,796
0.6703,834
0.6719667,828
0.6736333,826
0.6753,825
0.6769667,762
0.6786333,865
0.6803,625
0.6819667,797
0.6836333,879
0.6853,724
0.6869667,721
0.6886333,879
0.6903,793
0.6919667,707
0.6936333,1018
0.6953,909
0.6969666,814
0.6986333,924
0.7003,692
0.7019666,765
0.7036333,893
0.7053,705
0.7069666,763
0.7086333,897
0.7103,807
0.7119667,752
0.7136334,876
0.7153,920
0.7169667,956
0.7186334,943
0.7203,721
0.7219667,734
0.7236333,838
0.7253,846
0.7269667,744
0.7286333,720
0.7303,636
0.7319667,713
0.7336333,701
0.7353,715
0.7369667,713
0.7386333,711
0.7403,717
0.7419667,703
0.7436333,689
0.7453,764
0.7469667,764
0.7486333,778
0.7503,865
0.7519667,811
0.7536333,757
0.7553,766
0.7569667,755
0.7586333,754
0.7603,752
0.7619666,756
0.7636333,764
0.7653,772
0.7669666,813
0.7686333,816
0.7703,764
0.7719667,756
0.7736334,498
0.7753,991
0.7769667,933
0.7786334,760
0.7803,793
0.7819667,815
0.7836334,686
0.7853,709
0.7869667,762
0.7886333,736
0.7903,710
0.7919667,788
0.7936333,797
0.7953,844
0.7969667,899
0.7986333,638
0.8003,843
0.8019667,963
0.8036333,743
0.8053,770
0.8069667,743
0.8086333,653
0.8103,743
0.8119667,621
0.8136333,691
0.8153,760
0.8169667,915
0.8186333,871
0.8203,663
0.8219666,774
0.8236333,746
0.8253,840
0.8269666,831
0.8286333,823
0.8303,799
0.8319666,775
0.8336333,825
0.8353,820
0.8369667,816
0.8386334,767
0.8403,775
0.8419667,784
0.8436334,796
0.8453,809
0.8469667,714
0.8486333,835
0.8503,805
0.8519667,774
0.8536333,826
0.8553,878
0.8569667,896
0.8586333,763
0.8603,1037
0.8619667,1060
0.8636333,708
0.8653,888
0.8669667,925
0.8686333,655
0.8703,796
0.8719667,804
0.8736333,626
0.8753,791
0.8769667,948
0.8786333,1393
0.8803,1656
0.8819667,1821
0.8836333,2249
0.8853,2840
0.8869666,3035
0.8886333,2832
0.8903,3336
0.8919666,3562
0.8936333,3358
0.8953,3366
0.8969667,3114
0.8986334,3629
0.9003,3848
0.9019667,3579
0.9036334,3636
0.9053,3433
0.9069667,3665
0.9086334,3350
0.9103,3334
0.9119667,3456
0.9136333,3578
0.9153,3706
0.9169667,3620
0.9186333,3796
0.9203,3388
0.9219667,3376
0.9236333,3212
0.9253,3471
0.9269667,2998
0.9286333,2848
0.9303,3683
0.9319667,3361
0.9336333,3375
0.9353,3520
0.9369667,3159
0.9386333,2876
0.9403,2759
0.9419667,3135
0.9436333,2931
0.9453,3084
0.9469666,2751
0.9486333,2660
0.9503,2302
0.9519666,2476
0.9536333,2169
0.9553,2077
0.9569666,2206
0.9586333,1857
0.9603,2103
0.9619667,2038
0.9636334,1721
0.9653,1870
0.9669667,1853
0.9686334,1428
0.9703,1492
0.9719667,1324
0.9736333,1557
0.9753,1312
0.9769667,1232
0.9786333,1182
0.9803,790
0.9819667,900
0.9836333,1116
0.9853,732
0.9869667,913
0.9886333,715
0.9903,781
0.9919667,707
0.9936333,822
0.9953,557
0.9969667,525
0.9986333,624
1.0003,603
1.001967,582
1.003633,627
1.0053,589
1.006967,550
1.008633,596
1.0103,675
1.011967,721
1.013633,641
1.0153,726
1.016967,666
1.018633,664
1.0203,594
1.021967,499
1.023633,720
1.0253,590
1.026967,752
1.028633,657
1.0303,713
1.031967,551
1.033633,543
1.0353,660
1.036967,670
1.038633,680
1.0403,606
1.041967,626
1.043633,500
1.0453,536
1.046967,571
1.048633,651
1.0503,732
1.051967,679
1.053633,626
1.0553,761
1.056967,691
1.058633,676
1.0603,637
1.061967,599
1.063633,600
1.0653,684
1.066967,657
1.068633,656
1.0703,655
1.071967,609
1.073633,649
1.0753,649
1.076967,540
1.078633,618
1.0803,695
1.081967,558
1.083633,768
1.0853,714
1.086967,545
1.088633,765
1.0903,853
1.091967,764
1.093633,568
1.0953,737
1.096967,716
1.098633,748
1.1003,732
1.101967,715
1.103633,714
1.1053,740
1.106967,752
1.108633,764
1.1103,647
1.111967,572
1.113633,693
1.1153,707
1.116967,695
1.118633,697
1.1203,523
1.121967,653
1.123633,539
1.1253,605
1.126967,671
1.128633,591
1.1303,610
1.131967,665
1.133633,561
1.1353,780
1.136967,849
1.138633,713
1.1403,553
1.141967,726
1.143633,505
1.1453,611
1.146967,725
1.148633,696
1.1503,668
1.151967,637
1.153633,575
1.1553,717
1.156967,725
1.158633,691
1.1603,636
1.161967,581
1.163633,668
1.1653,671
1.166967,681
1.168633,691
1.1703,637
1.171967,832
1.173633,833
1.1753,694
1.176967,641
1.178633,625
1.1803,610
1.181967,658
1.183633,706
1.1853,926
1.186967,870
1.188633,829
1.1903,796
1.191967,889
1.193633,855
1.1953,734
1.196967,740
1.198633,703
