"SampleName","A2Rd2_02-51"
"Target Mass 1",
"Column Name","IA-3 (3um, 4.6X100)"
"Channel","QDa 1: SIR Ch2"
0.00195,518
0.003616667,747
0.005283333,816
0.00695,848
0.008616666,1083
0.01028333,1094
0.01195,952
0.01361667,1003
0.01528333,859
0.01695,1063
0.01861667,1040
0.02028333,1071
0.02195,874
0.02361667,979
0.02528333,834
0.02695,1086
0.02861667,1139
0.03028333,941
0.03195,1070
0.03361667,974
0.03528333,1003
0.03695,966
0.03861667,943
0.04028333,1199
0.04195,1272
0.04361667,796
0.04528333,960
0.04695,1277
0.04861667,1100
0.05028334,909
0.05195,1030
0.05361667,1137
0.05528333,998
0.05695,1024
0.05861667,1006
0.06028333,989
0.06195,939
0.06361666,999
0.06528334,911
0.06695,823
0.06861667,1126
0.07028333,1049
0.07195,1062
0.07361667,1022
0.07528333,944
0.07695,945
0.07861666,933
0.08028334,921
0.08195,924
0.08361667,928
0.08528333,932
0.08695,976
0.08861667,958
0.09028333,940
0.09195,1079
0.09361666,1072
0.09528334,1112
0.09695,955
0.09861667,1183
0.1002833,884
0.10195,976
0.1036167,791
0.1052833,1049
0.10695,1042
0.1086167,917
0.1102833,977
0.11195,953
0.1136167,805
0.1152833,928
0.11695,1093
0.1186167,1001
0.1202833,781
0.12195,818
0.1236167,923
0.1252833,956
0.12695,846
0.1286167,975
0.1302833,930
0.13195,940
0.1336167,787
0.1352833,878
0.13695,973
0.1386167,1011
0.1402833,966
0.14195,955
0.1436167,944
0.1452833,979
0.14695,1015
0.1486167,811
0.1502833,838
0.15195,982
0.1536167,978
0.1552833,847
0.15695,840
0.1586167,821
0.1602833,792
0.16195,764
0.1636167,703
0.1652833,958
0.16695,981
0.1686167,1005
0.1702833,764
0.17195,1037
0.1736167,957
0.1752833,927
0.17695,1007
0.1786167,926
0.1802833,940
0.18195,954
0.1836167,915
0.1852833,891
0.18695,868
0.1886167,917
0.1902833,937
0.19195,957
0.1936167,950
0.1952833,857
0.19695,891
0.1986167,946
0.2002833,779
0.20195,902
0.2036167,1025
0.2052833,960
0.20695,943
0.2086167,1032
0.2102833,1099
0.21195,1008
0.2136167,918
0.2152833,1168
0.21695,1083
0.2186167,1160
0.2202833,1211
0.22195,1263
0.2236167,1465
0.2252833,1466
0.22695,1223
0.2286167,1208
0.2302833,1242
0.23195,1250
0.2336167,1259
0.2352833,1283
0.23695,1280
0.2386167,1278
0.2402833,1326
0.24195,1375
0.2436167,1201
0.2453,1238
0.24695,1386
0.2486167,1413
0.2502833,1349
0.25195,1305
0.2536167,1141
0.2552833,1274
0.25695,1285
0.2586167,1288
0.2602833,1228
0.26195,1186
0.2636333,1366
0.2652833,1339
0.26695,1205
0.2686167,1194
0.2702833,1046
0.27195,1278
0.2736167,1277
0.2752833,1421
0.27695,1022
0.2786167,1056
0.2803,1181
0.28195,1272
0.2836167,1337
0.2852833,1041
0.28695,1000
0.2886167,1122
0.2902833,1147
0.29195,1172
0.2936167,1171
0.2952833,1188
0.29695,1191
0.2986333,1194
0.3002833,1225
0.30195,1219
0.3036167,1212
0.3052833,1197
0.30695,1250
0.3086167,1102
0.3102833,1284
0.31195,1248
0.3136167,1327
0.3153,1284
0.31695,1379
0.3186167,1165
0.3203,1196
0.32195,1226
0.3236167,1208
0.3252833,1189
0.32695,1210
0.3286167,1232
0.3302833,1269
0.33195,1257
0.3336333,1245
0.3352833,1233
0.3369667,1259
0.3386167,1284
0.3402833,1298
0.34195,1312
0.3436167,1560
0.3452833,1450
0.34695,1340
0.3486167,1242
0.3503,1342
0.3519667,1267
0.3536333,1192
0.3553,1396
0.3569667,1567
0.3586333,1502
0.3602833,1436
0.3619667,1369
0.3636167,1676
0.3653,1797
0.36695,3034
0.3686333,3222
0.3703,3785
0.3719667,3657
0.3736333,3175
0.3753,3180
0.3769667,2756
0.3786333,3306
0.3802833,3305
0.3819667,3282
0.3836167,2834
0.3853,2202
0.3869667,1644
0.3886333,1510
0.3903,1254
0.3919667,1066
0.3936333,938
0.3952833,777
0.39695,562
0.3986333,584
0.4003,449
0.4019667,591
0.4036333,484
0.4053,447
0.4069667,558
0.4086333,513
0.4103,510
0.4119667,542
0.4136333,575
0.4153,603
0.4169667,584
0.4186333,566
0.4203,703
0.4219667,681
0.4236333,695
0.4253,612
0.4269667,627
0.4286333,642
0.4303,621
0.4319667,679
0.4336333,806
0.4353,934
0.4369667,929
0.4386333,982
0.4403,698
0.4419667,839
0.4436333,1004
0.4453,1033
0.4469667,1213
0.4486333,1121
0.4503,1032
0.4519667,1145
0.4536333,1331
0.4553,1326
0.4569667,1268
0.4586333,1061
0.4603,1454
0.4619667,1173
0.4636333,1548
0.4653,1263
0.4669667,1070
0.4686333,1289
0.4703,1187
0.4719667,1443
0.4736333,1419
0.4753,1448
0.4769667,1423
0.4786333,1345
0.4803,1040
0.4819667,1432
0.4836333,1485
0.4853,1184
0.4869667,1145
0.4886333,1070
0.4903,1114
0.4919667,1150
0.4936333,1128
0.4953,1106
0.4969667,1118
0.4986333,1093
0.5003,1069
0.5019667,977
0.5036333,1040
0.5053,918
0.5069667,1072
0.5086333,1049
0.5103,1045
0.5119666,969
0.5136333,992
0.5153,1014
0.5169666,965
0.5186333,917
0.5203,869
0.5219667,902
0.5236334,935
0.5253,1093
0.5269667,1060
0.5286334,942
0.5303,997
0.5319667,1038
0.5336334,1050
0.5353,1061
0.5369667,954
0.5386333,911
0.5403,895
0.5419667,915
0.5436333,946
0.5453,921
0.5469667,896
0.5486333,765
0.5503,974
0.5519667,959
0.5536333,999
0.5553,1015
0.5569667,974
0.5586333,932
0.5603,1196
0.5619667,1225
0.5636333,1087
0.5653,1009
0.5669667,1036
0.5686333,932
0.5703,846
0.5719666,1067
0.5736333,918
0.5753,891
0.5769666,1015
0.5786333,762
0.5803,810
0.5819666,993
0.5836333,950
0.5853,994
0.5869667,968
0.5886334,942
0.5903,946
0.5919667,995
0.5936334,994
0.5953,994
0.5969667,858
0.5986333,1041
0.6003,1017
0.6019667,1001
0.6036333,856
0.6053,1007
0.6069667,924
0.6086333,1043
0.6103,812
0.6119667,918
0.6136333,1079
0.6153,1020
0.6169667,960
0.6186333,1045
0.6203,1134
0.6219667,1090
0.6236333,1045
0.6253,1002
0.6269667,1073
0.6286333,995
0.6303,1045
0.6319667,1023
0.6336333,975
0.6353,928
0.6369666,1022
0.6386333,1061
0.6403,1051
0.6419666,1040
0.6436333,1010
0.6453,979
0.6469667,1039
0.6486334,1045
0.6503,1050
0.6519667,958
0.6536334,1026
0.6553,1089
0.6569667,982
0.6586334,1011
0.6603,1015
0.6619667,1020
0.6636333,1039
0.6653,1058
0.6669667,1077
0.6686333,1088
0.6703,1005
0.6719667,1138
0.6736333,1270
0.6753,1449
0.6769667,1782
0.6786333,2177
0.6803,2572
0.6819667,3312
0.6836333,4075
0.6853,5269
0.6869667,5697
0.6886333,7536
0.6903,8312
0.6919667,10000
0.6936333,10576
0.6953,12972
0.6969666,12208
0.6986333,12880
0.7003,13360
0.7019666,12916
0.7036333,12784
0.7053,12652
0.7069666,12900
0.7086333,13144
0.7103,13092
0.7119667,13016
0.7136334,12712
0.7153,12548
0.7169667,12256
0.7186334,12548
0.7203,11604
0.7219667,12224
0.7236333,11824
0.7253,11532
0.7269667,11260
0.7286333,9704
0.7303,9372
0.7319667,8560
0.7336333,7449
0.7353,6630
0.7369667,5779
0.7386333,5547
0.7403,5053
0.7419667,4828
0.7436333,3725
0.7453,4080
0.7469667,2895
0.7486333,2994
0.7503,2628
0.7519667,2177
0.7536333,1986
0.7553,2090
0.7569667,1800
0.7586333,1865
0.7603,1853
0.7619666,1723
0.7636333,1481
0.7653,1565
0.7669666,1246
0.7686333,1518
0.7703,1403
0.7719667,1484
0.7736334,1574
0.7753,1884
0.7769667,1977
0.7786334,2571
0.7803,3071
0.7819667,3874
0.7836334,4638
0.7853,5633
0.7869667,7457
0.7886333,8408
0.7903,10308
0.7919667,11696
0.7936333,13964
0.7953,15592
0.7969667,17400
0.7986333,19560
0.8003,21988
0.8019667,21356
0.8036333,22640
0.8053,22892
0.8069667,22236
0.8086333,22196
0.8103,22092
0.8119667,21992
0.8136333,22204
0.8153,21092
0.8169667,20384
0.8186333,20000
0.8203,19660
0.8219666,19324
0.8236333,19476
0.8253,19836
0.8269666,19620
0.8286333,19060
0.8303,18240
0.8319666,17516
0.8336333,16448
0.8353,16324
0.8369667,14660
0.8386334,13800
0.8403,12736
0.8419667,11512
0.8436334,10156
0.8453,9492
0.8469667,8304
0.8486333,8224
0.8503,6526
0.8519667,5960
0.8536333,5193
0.8553,4714
0.8569667,4067
0.8586333,4042
0.8603,3780
0.8619667,3292
0.8636333,3054
0.8653,2962
0.8669667,2789
0.8686333,2477
0.8703,2264
0.8719667,1989
0.8736333,1824
0.8753,1839
0.8769667,1895
0.8786333,1884
0.8803,1924
0.8819667,1963
0.8836333,2218
0.8853,2429
0.8869666,2472
0.8886333,2272
0.8903,2466
0.8919666,1920
0.8936333,2328
0.8953,1829
0.8969667,2304
0.8986334,2205
0.9003,2133
0.9019667,1862
0.9036334,1747
0.9053,1931
0.9069667,1650
0.9086334,1674
0.9103,1974
0.9119667,1797
0.9136333,1750
0.9153,1704
0.9169667,1762
0.9186333,1768
0.9203,1774
0.9219667,1808
0.9236333,1842
0.9253,1832
0.9269667,1688
0.9286333,1674
0.9303,1720
0.9319667,1624
0.9336333,1689
0.9353,1753
0.9369667,1794
0.9386333,1578
0.9403,1637
0.9419667,1634
0.9436333,1733
0.9453,1727
0.9469666,1706
0.9486333,1715
0.9503,1686
0.9519666,2040
0.9536333,2541
0.9553,2368
0.9569666,2715
0.9586333,3070
0.9603,3665
0.9619667,4467
0.9636334,4723
0.9653,5921
0.9669667,6841
0.9686334,7145
0.9703,9912
0.9719667,10308
0.9736333,11356
0.9753,13940
0.9769667,15472
0.9786333,15968
0.9803,17448
0.9819667,18028
0.9836333,20372
0.9853,21068
0.9869667,22720
0.9886333,22704
0.9903,24160
0.9919667,23308
0.9936333,24144
0.9953,23688
0.9969667,22744
0.9986333,23716
1.0003,21828
1.001967,22876
1.003633,21648
1.0053,21336
1.006967,22064
1.008633,21628
1.0103,21196
1.011967,21528
1.013633,21328
1.0153,21316
1.016967,21304
1.018633,21436
1.0203,21228
1.021967,21024
1.023633,20592
1.0253,20956
1.026967,20432
1.028633,18320
1.0303,17108
1.031967,17736
1.033633,16260
1.0353,14884
1.036967,14196
1.038633,12480
1.0403,11684
1.041967,11712
1.043633,10100
1.0453,10376
1.046967,8888
1.048633,9172
1.0503,8312
1.051967,7946
1.053633,7848
1.0553,7633
1.056967,7734
1.058633,7834
1.0603,8408
1.061967,8292
1.063633,8220
1.0653,8472
1.066967,8728
1.068633,9132
1.0703,8892
1.071967,10132
1.073633,10044
1.0753,10544
1.076967,10032
1.078633,10992
1.0803,10936
1.081967,10948
1.083633,10732
1.0853,10516
1.086967,10708
1.088633,10576
1.0903,10528
1.091967,10476
1.093633,10284
1.0953,9892
1.096967,10088
1.098633,10288
1.1003,9508
1.101967,10084
1.103633,10164
1.1053,9920
1.106967,9680
1.108633,9304
1.1103,9512
1.111967,9172
1.113633,9644
1.1153,9728
1.116967,8892
1.118633,8824
1.1203,8236
1.121967,7904
1.123633,7939
1.1253,7125
1.126967,7294
1.128633,6217
1.1303,6423
1.131967,5923
1.133633,5761
1.1353,5279
1.136967,5119
1.138633,4870
1.1403,4909
1.141967,4096
1.143633,4444
1.1453,3816
1.146967,3282
1.148633,3531
1.1503,3040
1.151967,3214
1.153633,2568
1.1553,2831
1.156967,2503
1.158633,2448
1.1603,2716
1.161967,2201
1.163633,2061
1.1653,1987
1.166967,2256
1.168633,2125
1.1703,1682
1.171967,1672
1.173633,1539
1.1753,1780
1.176967,1488
1.178633,1549
1.1803,1611
1.181967,1484
1.183633,1497
1.1853,1509
1.186967,1654
1.188633,1645
1.1903,1635
1.191967,1784
1.193633,1886
1.1953,1987
1.196967,1967
1.198633,2010
