"SampleName","A2Rd2_02-61"
"Target Mass 1",
"Column Name","IA-3 (3um, 4.6X100)"
"Channel","QDa 1: SIR Ch1"
0.00195,401
0.003616667,422
0.005283333,458
0.00695,541
0.008616666,542
0.01028333,591
0.01195,541
0.01361667,421
0.01528333,465
0.01695,334
0.01861667,386
0.02028333,448
0.02195,464
0.02361667,452
0.02528333,469
0.02695,497
0.02861667,471
0.03028333,445
0.03195,426
0.03361667,407
0.03528333,321
0.03695,595
0.03861667,601
0.04028333,372
0.04195,413
0.04361667,444
0.04528333,323
0.04695,400
0.04861667,423
0.05028334,503
0.05195,532
0.05361667,451
0.05528333,403
0.05695,404
0.05861667,330
0.06028333,400
0.06195,471
0.06361666,439
0.06528334,313
0.06695,383
0.06861667,453
0.07028333,381
0.07195,487
0.07361667,465
0.07528333,380
0.07695,479
0.07861666,580
0.08028334,532
0.08195,322
0.08361667,550
0.08528333,440
0.08695,495
0.08861667,396
0.09028333,323
0.09195,471
0.09361666,520
0.09528334,415
0.09695,547
0.09861667,436
0.1002833,442
0.10195,366
0.1036167,306
0.1052833,388
0.10695,466
0.1086167,567
0.1102833,524
0.11195,465
0.1136167,428
0.1152833,506
0.11695,419
0.1186167,476
0.1202833,526
0.12195,472
0.1236167,423
0.1252833,493
0.12695,412
0.1286167,404
0.1302833,429
0.13195,451
0.1336167,473
0.1352833,231
0.13695,339
0.1386167,533
0.1402833,478
0.14195,434
0.1436167,523
0.1452833,496
0.14695,549
0.1486167,540
0.1502833,318
0.15195,491
0.1536167,440
0.1552833,334
0.15695,412
0.1586167,415
0.1602833,471
0.16195,317
0.1636167,396
0.1652833,427
0.16695,395
0.1686167,410
0.1702833,419
0.17195,461
0.1736167,503
0.1752833,612
0.17695,572
0.1786167,462
0.1802833,515
0.18195,444
0.1836167,433
0.1852833,339
0.18695,459
0.1886167,503
0.1902833,362
0.19195,509
0.1936167,401
0.1952833,320
0.19695,584
0.1986167,473
0.2002833,471
0.20195,412
0.2036167,374
0.2052833,377
0.20695,511
0.2086167,508
0.2102833,412
0.21195,393
0.2136167,373
0.2152833,464
0.21695,476
0.2186167,389
0.2202833,431
0.22195,418
0.2236167,372
0.2252833,330
0.22695,425
0.2286167,463
0.2302833,534
0.23195,560
0.2336167,560
0.2352833,484
0.23695,488
0.2386167,467
0.2402833,410
0.24195,478
0.2436167,451
0.2452833,445
0.24695,444
0.2486167,403
0.2502833,495
0.25195,328
0.2536167,442
0.2552833,458
0.25695,548
0.2586167,315
0.2602833,329
0.26195,367
0.2636333,338
0.2652833,308
0.26695,331
0.2686333,353
0.2702833,273
0.27195,463
0.2736167,492
0.2752833,478
0.27695,478
0.2786167,348
0.2803,476
0.28195,454
0.2836167,437
0.2852833,409
0.2869667,401
0.2886167,433
0.2902833,430
0.29195,427
0.2936167,385
0.2952833,386
0.29695,387
0.2986333,420
0.3002833,473
0.3019667,465
0.3036167,457
0.3052833,455
0.3069667,467
0.3086333,478
0.3103,446
0.3119667,414
0.3136333,509
0.3153,471
0.31695,555
0.3186333,397
0.3203,331
0.32195,516
0.3236167,614
0.3252833,511
0.3269667,460
0.3286167,395
0.3302833,629
0.33195,555
0.3336333,427
0.3353,562
0.3369667,493
0.3386167,533
0.3402833,556
0.34195,517
0.3436333,479
0.3452833,543
0.34695,500
0.3486167,403
0.3503,397
0.3519667,444
0.3536333,492
0.3553,548
0.3569667,483
0.3586333,272
0.3603,539
0.3619667,746
0.3636167,772
0.3653,914
0.36695,1542
0.3686333,2814
0.3703,3286
0.3719667,3987
0.3736167,3611
0.3753,3732
0.3769667,4232
0.3786167,4899
0.3802833,4725
0.38195,4798
0.3836167,4765
0.3853,4285
0.3869667,4297
0.3886333,3830
0.3903,2867
0.3919667,2283
0.3936333,2053
0.3953,1628
0.3969667,1163
0.3986333,1297
0.4003,1041
0.4019667,1165
0.4036333,1009
0.4053,1063
0.4069667,1108
0.4086333,1201
0.4103,1182
0.4119667,1164
0.4136333,1302
0.4153,1356
0.4169667,1492
0.4186333,1482
0.4203,1484
0.4219667,1447
0.4236333,1410
0.4253,1645
0.4269667,1627
0.4286333,1609
0.4303,1590
0.4319667,2022
0.4336333,2231
0.4353,2857
0.4369667,4159
0.4386333,6615
0.4403,10512
0.4419667,16640
0.4436333,24144
0.4453,34976
0.4469667,47664
0.4486333,61264
0.4503,77776
0.4519667,94064
0.4536333,107056
0.4553,119872
0.4569667,127408
0.4586333,138560
0.4603,142528
0.4619667,148864
0.4636333,149440
0.4653,150592
0.4669667,153024
0.4686333,158528
0.4703,159808
0.4719667,164480
0.4736333,174144
0.4753,181952
0.4769667,190976
0.4786333,189696
0.4803,185664
0.4819667,186240
0.4836333,177024
0.4853,162816
0.4869667,147392
0.4886333,134464
0.4903,113888
0.4919667,98464
0.4936333,80560
0.4953,70512
0.4969667,58576
0.4986333,46784
0.5003,38208
0.5019667,30948
0.5036333,25264
0.5053,19780
0.5069667,15660
0.5086333,14264
0.5103,11608
0.5119666,10004
0.5136333,8488
0.5153,7144
0.5169666,6116
0.5186333,5722
0.5203,5679
0.5219667,4570
0.5236334,3974
0.5253,4268
0.5269667,3750
0.5286334,3463
0.5303,3139
0.5319667,3207
0.5336334,2862
0.5353,2687
0.5369667,2723
0.5386333,2551
0.5403,2535
0.5419667,2393
0.5436333,2290
0.5453,2582
0.5469667,2320
0.5486333,1844
0.5503,2410
0.5519667,2108
0.5536333,1659
0.5553,1909
0.5569667,1624
0.5586333,1721
0.5603,1570
0.5619667,1764
0.5636333,1568
0.5653,1470
0.5669667,1351
0.5686333,1235
0.5703,1226
0.5719666,1271
0.5736333,1316
0.5753,1350
0.5769666,1383
0.5786333,1314
0.5803,1244
0.5819666,1500
0.5836333,1564
0.5853,1513
0.5869667,1063
0.5886334,1311
0.5903,1071
0.5919667,1191
0.5936334,1416
0.5953,1384
0.5969667,1173
0.5986333,1399
0.6003,1330
0.6019667,1222
0.6036333,1243
0.6053,1378
0.6069667,1321
0.6086333,1264
0.6103,1231
0.6119667,1250
0.6136333,1116
0.6153,1061
0.6169667,1299
0.6186333,1314
0.6203,968
0.6219667,1528
0.6236333,1203
0.6253,1140
0.6269667,1122
0.6286333,891
0.6303,1043
0.6319667,954
0.6336333,1153
0.6353,1200
0.6369666,1148
0.6386333,1088
0.6403,1090
0.6419666,1030
0.6436333,776
0.6453,925
0.6469667,770
0.6486334,998
0.6503,988
0.6519667,645
0.6536334,726
0.6553,814
0.6569667,842
0.6586334,841
0.6603,864
0.6619667,885
0.6636333,746
0.6653,836
0.6669667,825
0.6686333,756
0.6703,862
0.6719667,677
0.6736333,772
0.6753,728
0.6769667,781
0.6786333,806
0.6803,791
0.6819667,687
0.6836333,763
0.6853,773
0.6869667,702
0.6886333,719
0.6903,715
0.6919667,763
0.6936333,770
0.6953,707
0.6969666,729
0.6986333,687
0.7003,644
0.7019666,694
0.7036333,700
0.7053,783
0.7069666,804
0.7086333,551
0.7103,720
0.7119667,507
0.7136334,693
0.7153,712
0.7169667,643
0.7186334,646
0.7203,671
0.7219667,696
0.7236333,597
0.7253,701
0.7269667,751
0.7286333,712
0.7303,740
0.7319667,629
0.7336333,741
0.7353,635
0.7369667,680
0.7386333,790
0.7403,710
0.7419667,615
0.7436333,726
0.7453,734
0.7469667,634
0.7486333,721
0.7503,809
0.7519667,789
0.7536333,527
0.7553,671
0.7569667,738
0.7586333,709
0.7603,706
0.7619666,673
0.7636333,722
0.7653,670
0.7669666,691
0.7686333,713
0.7703,632
0.7719667,696
0.7736334,728
0.7753,717
0.7769667,711
0.7786334,437
0.7803,707
0.7819667,694
0.7836334,550
0.7853,766
0.7869667,683
0.7886333,627
0.7903,819
0.7919667,737
0.7936333,502
0.7953,595
0.7969667,550
0.7986333,650
0.8003,608
0.8019667,569
0.8036333,530
0.8053,536
0.8069667,542
0.8086333,697
0.8103,735
0.8119667,671
0.8136333,521
0.8153,634
0.8169667,678
0.8186333,599
0.8203,616
0.8219666,678
0.8236333,647
0.8253,511
0.8269666,732
0.8286333,572
0.8303,557
0.8319666,727
0.8336333,559
0.8353,621
0.8369667,569
0.8386334,489
0.8403,532
0.8419667,450
0.8436334,532
0.8453,547
0.8469667,616
0.8486333,645
0.8503,510
0.8519667,533
0.8536333,452
0.8553,446
0.8569667,506
0.8586333,590
0.8603,666
0.8619667,608
0.8636333,690
0.8653,539
0.8669667,564
0.8686333,615
0.8703,516
0.8719667,418
0.8736333,500
0.8753,611
0.8769667,630
0.8786333,761
0.8803,762
0.8819667,1060
0.8836333,1079
0.8853,1253
0.8869666,1226
0.8886333,1058
0.8903,1253
0.8919666,1404
0.8936333,1520
0.8953,1514
0.8969667,1540
0.8986334,1564
0.9003,1472
0.9019667,1616
0.9036334,1449
0.9053,1261
0.9069667,1261
0.9086334,1505
0.9103,1517
0.9119667,1632
0.9136333,1504
0.9153,1506
0.9169667,1389
0.9186333,1493
0.9203,1460
0.9219667,1427
0.9236333,1519
0.9253,1482
0.9269667,1445
0.9286333,1417
0.9303,1502
0.9319667,1478
0.9336333,1454
0.9353,1357
0.9369667,1481
0.9386333,1454
0.9403,1322
0.9419667,1544
0.9436333,1216
0.9453,1194
0.9469666,1281
0.9486333,1423
0.9503,1440
0.9519666,1280
0.9536333,1248
0.9553,1169
0.9569666,1017
0.9586333,1179
0.9603,940
0.9619667,935
0.9636334,1060
0.9653,949
0.9669667,837
0.9686334,956
0.9703,968
0.9719667,842
0.9736333,797
0.9753,825
0.9769667,792
0.9786333,686
0.9803,634
0.9819667,709
0.9836333,521
0.9853,732
0.9869667,622
0.9886333,680
0.9903,613
0.9919667,475
0.9936333,576
0.9953,608
0.9969667,513
0.9986333,586
1.0003,518
1.001967,511
1.003633,441
1.0053,499
1.006967,507
1.008633,550
1.0103,543
1.011967,595
1.013633,425
1.0153,331
1.016967,622
1.018633,399
1.0203,406
1.021967,620
1.023633,586
1.0253,479
1.026967,481
1.028633,488
1.0303,491
1.031967,493
1.033633,447
1.0353,402
1.036967,358
1.038633,437
1.0403,447
1.041967,458
1.043633,403
1.0453,352
1.046967,521
1.048633,447
1.0503,524
1.051967,525
1.053633,530
1.0553,488
1.056967,516
1.058633,491
1.0603,465
1.061967,532
1.063633,523
1.0653,513
1.066967,409
1.068633,465
1.0703,409
1.071967,440
1.073633,470
1.0753,454
1.076967,466
1.078633,477
1.0803,517
1.081967,405
1.083633,538
1.0853,585
1.086967,525
1.088633,550
1.0903,453
1.091967,519
1.093633,418
1.0953,433
1.096967,479
1.098633,433
1.1003,386
1.101967,488
1.103633,548
1.1053,520
1.106967,493
1.108633,603
1.1103,588
1.111967,426
1.113633,529
1.1153,417
1.116967,460
1.118633,519
1.1203,513
1.121967,525
1.123633,563
1.1253,559
1.126967,323
1.128633,487
1.1303,467
1.131967,595
1.133633,507
1.1353,591
1.136967,576
1.138633,449
1.1403,490
1.141967,532
1.143633,515
1.1453,442
1.146967,518
1.148633,575
1.1503,392
1.151967,473
1.153633,543
1.1553,508
1.156967,472
1.158633,488
1.1603,450
1.161967,484
1.163633,525
1.1653,487
1.166967,448
1.168633,531
1.1703,483
1.171967,509
1.173633,463
1.1753,485
1.176967,508
1.178633,503
1.1803,518
1.181967,532
1.183633,491
1.1853,450
1.186967,542
1.188633,540
1.1903,548
1.191967,371
1.193633,549
1.1953,477
1.196967,494
1.198633,548
