"SampleName","A2Rd2_02-92"
"Target Mass 1",
"Column Name","IA-3 (3um, 4.6X100)"
"Channel","QDa 1: SIR Ch2"
0.00195,833
0.003616667,679
0.005283333,611
0.00695,751
0.008616666,843
0.01028333,912
0.01195,1041
0.01361667,951
0.01528333,1014
0.01695,1071
0.01861667,1002
0.02028333,973
0.02195,876
0.02361667,887
0.02528333,999
0.02695,878
0.02861667,863
0.03028333,941
0.03195,963
0.03361667,807
0.03528333,999
0.03695,943
0.03861667,1078
0.04028333,912
0.04195,1073
0.04361667,1150
0.04528333,1116
0.04695,1054
0.04861667,927
0.05028334,906
0.05195,1093
0.05361667,1099
0.05528333,1025
0.05695,1050
0.05861667,1052
0.06028333,951
0.06195,1045
0.06361666,1043
0.06528334,840
0.06695,1106
0.06861667,987
0.07028333,992
0.07195,904
0.07361667,816
0.07528333,986
0.07695,996
0.07861666,840
0.08028334,1062
0.08195,976
0.08361667,712
0.08528333,942
0.08695,761
0.08861667,889
0.09028333,872
0.09195,879
0.09361666,886
0.09528334,969
0.09695,860
0.09861667,751
0.1002833,945
0.10195,1037
0.1036167,892
0.1052833,847
0.10695,928
0.1086167,841
0.1102833,910
0.11195,926
0.1136167,941
0.1152833,898
0.11695,878
0.1186167,788
0.1202833,775
0.12195,763
0.1236167,998
0.1252833,1113
0.12695,940
0.1286167,870
0.1302833,919
0.13195,834
0.1336167,1022
0.1352833,986
0.13695,1066
0.1386167,1098
0.1402833,864
0.14195,815
0.1436167,821
0.1452833,939
0.14695,903
0.1486167,867
0.1502833,1005
0.15195,1197
0.1536167,1110
0.1552833,953
0.15695,1061
0.1586167,1029
0.1602833,983
0.16195,1015
0.1636167,879
0.1652833,638
0.16695,834
0.1686167,618
0.1702833,889
0.17195,766
0.1736167,880
0.1752833,973
0.17695,887
0.1786167,998
0.1802833,991
0.18195,846
0.1836167,1070
0.1852833,955
0.18695,924
0.1886167,1020
0.1902833,979
0.19195,847
0.1936167,979
0.1952833,835
0.19695,803
0.1986167,846
0.2002833,889
0.20195,901
0.2036167,912
0.2052833,999
0.20695,1019
0.2086167,966
0.2102833,949
0.21195,1075
0.2136167,1071
0.2152833,887
0.21695,1044
0.2186167,1091
0.2202833,971
0.22195,1114
0.2236167,960
0.2252833,1120
0.22695,1213
0.2286333,1243
0.2302833,1166
0.23195,1155
0.2336167,1196
0.2352833,1102
0.23695,1181
0.2386167,1260
0.2402833,902
0.24195,1086
0.2436167,1245
0.2452833,1205
0.24695,1241
0.2486167,1064
0.2502833,1156
0.25195,1219
0.2536167,1283
0.2552833,1232
0.25695,1028
0.2586167,1140
0.2602833,1132
0.26195,1256
0.2636333,1238
0.2652833,1083
0.26695,1024
0.2686167,961
0.2703,987
0.27195,1013
0.2736167,991
0.2752833,969
0.2769667,959
0.2786167,950
0.2803,941
0.28195,1065
0.2836167,1100
0.2852833,1039
0.28695,836
0.2886167,973
0.2902833,1110
0.29195,1036
0.2936167,882
0.2952833,1098
0.29695,1023
0.2986333,909
0.3002833,822
0.30195,1030
0.3036167,1174
0.3052833,1101
0.30695,1118
0.3086167,1135
0.3102833,1181
0.31195,965
0.3136167,1298
0.3153,1129
0.31695,1352
0.3186167,948
0.3203,1259
0.32195,1435
0.3236167,1341
0.3252833,1281
0.32695,1278
0.3286167,1252
0.3302833,1319
0.33195,1344
0.3336333,1315
0.3352833,1142
0.33695,1213
0.3386333,1211
0.3402833,1277
0.34195,1277
0.3436167,1093
0.3452833,1245
0.34695,1385
0.3486333,1286
0.3503,1130
0.35195,1178
0.3536333,1276
0.3553,1347
0.3569667,1359
0.3586167,1372
0.3603,1417
0.36195,1461
0.3636167,1605
0.3652833,2396
0.3669667,3354
0.3686333,3207
0.3703,3167
0.3719667,2846
0.3736167,2651
0.3753,2555
0.37695,2502
0.3786167,2429
0.3802833,2492
0.3819667,2529
0.3836333,2111
0.3853,2142
0.3869667,1665
0.3886333,1267
0.3903,1216
0.3919667,746
0.3936167,638
0.3952833,737
0.3969667,659
0.3986167,482
0.4003,574
0.4019667,450
0.4036333,514
0.4053,521
0.4069667,413
0.4086333,550
0.4103,637
0.4119667,623
0.4136333,701
0.4153,660
0.4169667,653
0.4186333,666
0.4203,686
0.4219667,707
0.4236333,772
0.4253,800
0.4269667,775
0.4286333,794
0.4303,770
0.4319667,744
0.4336333,806
0.4353,824
0.4369667,852
0.4386333,879
0.4403,867
0.4419667,995
0.4436333,992
0.4453,1087
0.4469667,1000
0.4486333,914
0.4503,1171
0.4519667,1099
0.4536333,1161
0.4553,1195
0.4569667,1229
0.4586333,1134
0.4603,1228
0.4619667,1262
0.4636333,1217
0.4653,1197
0.4669667,1265
0.4686333,1101
0.4703,1253
0.4719667,1185
0.4736333,1260
0.4753,1258
0.4769667,1063
0.4786333,1180
0.4803,1307
0.4819667,1079
0.4836333,1090
0.4853,1311
0.4869667,1242
0.4886333,1089
0.4903,1053
0.4919667,1066
0.4936333,1312
0.4953,1375
0.4969667,1174
0.4986333,1193
0.5003,970
0.5019667,1061
0.5036333,1049
0.5053,970
0.5069667,995
0.5086333,1019
0.5103,815
0.5119666,982
0.5136333,951
0.5153,991
0.5169666,1031
0.5186333,904
0.5203,1009
0.5219667,939
0.5236334,845
0.5253,856
0.5269667,860
0.5286334,929
0.5303,931
0.5319667,849
0.5336334,1023
0.5353,1074
0.5369667,889
0.5386333,1124
0.5403,995
0.5419667,1001
0.5436333,970
0.5453,1121
0.5469667,825
0.5486333,824
0.5503,870
0.5519667,889
0.5536333,909
0.5553,866
0.5569667,916
0.5586333,905
0.5603,886
0.5619667,827
0.5636333,768
0.5653,814
0.5669667,860
0.5686333,959
0.5703,959
0.5719666,859
0.5736333,1018
0.5753,850
0.5769666,1086
0.5786333,985
0.5803,912
0.5819666,888
0.5836333,897
0.5853,955
0.5869667,930
0.5886334,904
0.5903,777
0.5919667,890
0.5936334,896
0.5953,903
0.5969667,903
0.5986333,904
0.6003,822
0.6019667,1016
0.6036333,957
0.6053,1035
0.6069667,937
0.6086333,1035
0.6103,1023
0.6119667,1011
0.6136333,920
0.6153,931
0.6169667,955
0.6186333,1220
0.6203,1181
0.6219667,900
0.6236333,1103
0.6253,1088
0.6269667,1147
0.6286333,1117
0.6303,1125
0.6319667,1117
0.6336333,1109
0.6353,1093
0.6369666,1165
0.6386333,1139
0.6403,1113
0.6419666,1083
0.6436333,1047
0.6453,1010
0.6469667,983
0.6486334,1194
0.6503,1194
0.6519667,1177
0.6536334,1075
0.6553,1075
0.6569667,1051
0.6586334,1065
0.6603,838
0.6619667,1089
0.6636333,1057
0.6653,1005
0.6669667,1117
0.6686333,1190
0.6703,1264
0.6719667,1966
0.6736333,1993
0.6753,2390
0.6769667,3408
0.6786333,4874
0.6803,5914
0.6819667,7674
0.6836333,9804
0.6853,12488
0.6869667,14980
0.6886333,17732
0.6903,20288
0.6919667,23452
0.6936333,26536
0.6953,28344
0.6969666,30068
0.6986333,31740
0.7003,31444
0.7019666,32516
0.7036333,30244
0.7053,29980
0.7069666,29928
0.7086333,27928
0.7103,26928
0.7119667,25440
0.7136334,24924
0.7153,24364
0.7169667,23360
0.7186334,24240
0.7203,23336
0.7219667,23584
0.7236333,22836
0.7253,21980
0.7269667,21652
0.7286333,20440
0.7303,19868
0.7319667,18432
0.7336333,16668
0.7353,15252
0.7369667,13536
0.7386333,12284
0.7403,11088
0.7419667,9604
0.7436333,8788
0.7453,7744
0.7469667,6505
0.7486333,6156
0.7503,5506
0.7519667,5261
0.7536333,4222
0.7553,4099
0.7569667,3775
0.7586333,3583
0.7603,2663
0.7619666,3045
0.7636333,2639
0.7653,2253
0.7669666,2465
0.7686333,2392
0.7703,2283
0.7719667,2385
0.7736334,2631
0.7753,2839
0.7769667,3418
0.7786334,4276
0.7803,5750
0.7819667,6132
0.7836334,8528
0.7853,10268
0.7869667,11892
0.7886333,14980
0.7903,18020
0.7919667,21696
0.7936333,25084
0.7953,26144
0.7969667,29180
0.7986333,32408
0.8003,33360
0.8019667,34688
0.8036333,35488
0.8053,33424
0.8069667,35248
0.8086333,33392
0.8103,33152
0.8119667,30940
0.8136333,29096
0.8153,29524
0.8169667,28456
0.8186333,26764
0.8203,25128
0.8219666,25072
0.8236333,24408
0.8253,23960
0.8269666,24692
0.8286333,24304
0.8303,24600
0.8319666,23400
0.8336333,23304
0.8353,22248
0.8369667,20976
0.8386334,20252
0.8403,19076
0.8419667,17188
0.8436334,15536
0.8453,14160
0.8469667,13180
0.8486333,11996
0.8503,10372
0.8519667,10372
0.8536333,8584
0.8553,7990
0.8569667,6844
0.8586333,6142
0.8603,5785
0.8619667,5130
0.8636333,4702
0.8653,4097
0.8669667,3825
0.8686333,3676
0.8703,3259
0.8719667,2893
0.8736333,3064
0.8753,2578
0.8769667,2538
0.8786333,2715
0.8803,2754
0.8819667,2788
0.8836333,3170
0.8853,3230
0.8869666,3086
0.8886333,3220
0.8903,2439
0.8919666,2722
0.8936333,2205
0.8953,2445
0.8969667,2349
0.8986334,2318
0.9003,2136
0.9019667,2023
0.9036334,1996
0.9053,1969
0.9069667,1942
0.9086334,1976
0.9103,1898
0.9119667,1973
0.9136333,1742
0.9153,1916
0.9169667,1836
0.9186333,1816
0.9203,1633
0.9219667,1618
0.9236333,1637
0.9253,1624
0.9269667,1611
0.9286333,1573
0.9303,1535
0.9319667,1658
0.9336333,1574
0.9353,1490
0.9369667,1686
0.9386333,1743
0.9403,1858
0.9419667,1628
0.9436333,1753
0.9453,1877
0.9469666,1882
0.9486333,2109
0.9503,2775
0.9519666,3521
0.9536333,4377
0.9553,5393
0.9569666,7136
0.9586333,8848
0.9603,10772
0.9619667,13268
0.9636334,16248
0.9653,20256
0.9669667,24720
0.9686334,28692
0.9703,34144
0.9719667,38704
0.9736333,43024
0.9753,49376
0.9769667,54624
0.9786333,58704
0.9803,61792
0.9819667,67968
0.9836333,68096
0.9853,69088
0.9869667,69936
0.9886333,73424
0.9903,74048
0.9919667,73952
0.9936333,73328
0.9953,70800
0.9969667,67808
0.9986333,67808
1.0003,63056
1.001967,62464
1.003633,61088
1.0053,57392
1.006967,58448
1.008633,57136
1.0103,54768
1.011967,56704
1.013633,56560
1.0153,53216
1.016967,57728
1.018633,55536
1.0203,55824
1.021967,57200
1.023633,54896
1.0253,55584
1.026967,57952
1.028633,55600
1.0303,52080
1.031967,51472
1.033633,47168
1.0353,47392
1.036967,44944
1.038633,42656
1.0403,38976
1.041967,36336
1.043633,32628
1.0453,32172
1.046967,31488
1.048633,27844
1.0503,26376
1.051967,25220
1.053633,24892
1.0553,23872
1.056967,23400
1.058633,22548
1.0603,21872
1.061967,22480
1.063633,22508
1.0653,23032
1.066967,23396
1.068633,23504
1.0703,23724
1.071967,23492
1.073633,24052
1.0753,23880
1.076967,23508
1.078633,23040
1.0803,23232
1.081967,23184
1.083633,22848
1.0853,23800
1.086967,22240
1.088633,21472
1.0903,21152
1.091967,21148
1.093633,20220
1.0953,20184
1.096967,18732
1.098633,19148
1.1003,18336
1.101967,17608
1.103633,16852
1.1053,17248
1.106967,16216
1.108633,16164
1.1103,16564
1.111967,16664
1.113633,16804
1.1153,16476
1.116967,15416
1.118633,15468
1.1203,15276
1.121967,14376
1.123633,13624
1.1253,13452
1.126967,13320
1.128633,12648
1.1303,11364
1.131967,11044
1.133633,10332
1.1353,9996
1.136967,8932
1.138633,8856
1.1403,8536
1.141967,7456
1.143633,7532
1.1453,7329
1.146967,6498
1.148633,6430
1.1503,6261
1.151967,5721
1.153633,4962
1.1553,5156
1.156967,4496
1.158633,4459
1.1603,3947
1.161967,3393
1.163633,3736
1.1653,3768
1.166967,3321
1.168633,3249
1.1703,2908
1.171967,3084
1.173633,2840
1.1753,2697
1.176967,3022
1.178633,2905
1.1803,2676
1.181967,2672
1.183633,2434
1.1853,2580
1.186967,2641
1.188633,2702
1.1903,3346
1.191967,3164
1.193633,3011
1.1953,3152
1.196967,3694
1.198633,4309
