"SampleName","A2Rd2_02-79"
"Target Mass 1",
"Column Name","IA-3 (3um, 4.6X100)"
"Channel","QDa 1: SIR Ch2"
0.00195,505
0.003616667,512
0.005283333,808
0.00695,711
0.008616666,721
0.01028333,732
0.01195,743
0.01361667,815
0.01528333,820
0.01695,824
0.01861667,900
0.02028333,899
0.02195,937
0.02361667,837
0.02528333,954
0.02695,939
0.02861667,789
0.03028333,904
0.03195,883
0.03361667,862
0.03528333,959
0.03695,996
0.03861667,1032
0.04028333,814
0.04195,1005
0.04361667,1050
0.04528333,853
0.04695,815
0.04861667,912
0.05028334,912
0.05195,1014
0.05361667,1044
0.05528333,1104
0.05695,926
0.05861667,1107
0.06028333,908
0.06195,929
0.06361666,922
0.06528334,856
0.06695,879
0.06861667,1083
0.07028333,1050
0.07195,1033
0.07361667,891
0.07528333,1124
0.07695,923
0.07861666,796
0.08028334,853
0.08195,910
0.08361667,896
0.08528333,977
0.08695,1001
0.08861667,880
0.09028333,884
0.09195,1013
0.09361666,994
0.09528334,874
0.09695,933
0.09861667,919
0.1002833,915
0.10195,911
0.1036167,850
0.1052833,790
0.10695,1013
0.1086167,944
0.1102833,997
0.11195,959
0.1136167,920
0.1152833,851
0.11695,921
0.1186167,834
0.1202833,892
0.12195,956
0.1236167,1006
0.1252833,817
0.12695,782
0.1286167,878
0.1302833,824
0.13195,771
0.1336167,824
0.1352833,878
0.13695,904
0.1386167,767
0.1402833,907
0.14195,1065
0.1436167,996
0.1452833,889
0.14695,1075
0.1486167,908
0.1502833,916
0.15195,876
0.1536167,855
0.1552833,850
0.15695,803
0.1586167,812
0.1602833,804
0.16195,772
0.1636167,740
0.1652833,814
0.16695,900
0.1686167,910
0.1702833,869
0.17195,914
0.1736167,941
0.1752833,870
0.17695,882
0.1786167,825
0.1802833,726
0.18195,628
0.1836167,711
0.1852833,893
0.18695,860
0.1886167,935
0.1902833,927
0.19195,809
0.1936167,825
0.1952833,866
0.19695,883
0.1986167,899
0.2002833,767
0.20195,932
0.2036167,833
0.2052833,990
0.20695,842
0.2086167,935
0.2102833,882
0.21195,900
0.2136167,919
0.2152833,1115
0.21695,1084
0.2186167,1208
0.2202833,977
0.22195,908
0.2236167,975
0.2252833,1046
0.22695,1117
0.2286167,1156
0.2302833,1114
0.23195,1197
0.2336167,1261
0.2352833,1213
0.23695,1082
0.2386167,1353
0.2402833,1223
0.24195,1092
0.2436167,1168
0.2452833,1279
0.24695,964
0.2486167,1378
0.2502833,1128
0.25195,1033
0.2536167,1202
0.2552833,1087
0.2569667,1202
0.2586167,1017
0.2602833,1193
0.26195,1172
0.2636333,926
0.2652833,1098
0.26695,1035
0.2686167,1049
0.2702833,1121
0.27195,1113
0.2736167,864
0.2752833,1042
0.27695,954
0.2786167,909
0.2803,1190
0.28195,1222
0.2836167,1012
0.2852833,1070
0.28695,1124
0.2886167,993
0.2902833,954
0.29195,923
0.2936167,989
0.2952833,1000
0.29695,987
0.2986333,1071
0.3002833,766
0.30195,1130
0.3036333,1163
0.3052833,1006
0.3069667,1035
0.3086167,1232
0.3102833,1112
0.31195,991
0.3136167,1325
0.3153,1338
0.31695,1144
0.3186167,1199
0.3202833,1175
0.3219667,1190
0.3236167,1205
0.3252833,1139
0.32695,1072
0.3286167,1036
0.3302833,1268
0.33195,1219
0.3336333,1171
0.3352833,1175
0.3369667,1179
0.3386333,1368
0.3403,1348
0.34195,1158
0.3436167,1370
0.3452833,1382
0.34695,1150
0.3486167,1090
0.3503,1377
0.35195,1365
0.3536333,1250
0.3553,1198
0.3569667,1352
0.3586167,1429
0.3603,1484
0.36195,1177
0.3636333,1456
0.3652833,2630
0.3669667,2804
0.3686333,3388
0.3703,3160
0.3719667,2931
0.3736333,2707
0.3753,2913
0.3769667,2572
0.3786167,2814
0.3803,2904
0.38195,2779
0.3836333,2266
0.3853,2004
0.3869667,1670
0.3886333,1412
0.3903,1151
0.3919667,854
0.3936333,617
0.3953,736
0.3969667,614
0.3986333,576
0.4003,550
0.4019667,546
0.4036333,436
0.4053,500
0.4069667,564
0.4086333,635
0.4103,658
0.4119667,721
0.4136333,694
0.4153,667
0.4169667,545
0.4186333,632
0.4203,720
0.4219667,636
0.4236333,906
0.4253,866
0.4269667,644
0.4286333,797
0.4303,954
0.4319667,920
0.4336333,793
0.4353,853
0.4369667,890
0.4386333,1192
0.4403,1158
0.4419667,1323
0.4436333,1021
0.4453,1088
0.4469667,1260
0.4486333,1277
0.4503,1215
0.4519667,1336
0.4536333,1267
0.4553,1199
0.4569667,1723
0.4586333,1638
0.4603,1651
0.4619667,1452
0.4636333,1592
0.4653,1646
0.4669667,1666
0.4686333,1809
0.4703,1404
0.4719667,1554
0.4736333,1518
0.4753,1509
0.4769667,1512
0.4786333,1514
0.4803,1516
0.4819667,1557
0.4836333,1433
0.4853,1376
0.4869667,1159
0.4886333,1411
0.4903,1366
0.4919667,1431
0.4936333,1304
0.4953,1236
0.4969667,1165
0.4986333,1310
0.5003,1256
0.5019667,1239
0.5036333,1264
0.5053,1191
0.5069667,1030
0.5086333,1051
0.5103,1076
0.5119666,1077
0.5136333,1146
0.5153,1174
0.5169666,1226
0.5186333,727
0.5203,880
0.5219667,1355
0.5236334,1166
0.5253,1110
0.5269667,927
0.5286334,1128
0.5303,898
0.5319667,1041
0.5336334,932
0.5353,1048
0.5369667,900
0.5386333,829
0.5403,1098
0.5419667,1094
0.5436333,974
0.5453,862
0.5469667,1018
0.5486333,1068
0.5503,987
0.5519667,923
0.5536333,1006
0.5553,1073
0.5569667,837
0.5586333,891
0.5603,902
0.5619667,881
0.5636333,885
0.5653,955
0.5669667,996
0.5686333,706
0.5703,821
0.5719666,1091
0.5736333,1153
0.5753,1036
0.5769666,902
0.5786333,1042
0.5803,894
0.5819666,974
0.5836333,1053
0.5853,1030
0.5869667,1007
0.5886334,985
0.5903,969
0.5919667,747
0.5936334,1100
0.5953,1125
0.5969667,1089
0.5986333,901
0.6003,1020
0.6019667,1023
0.6036333,1012
0.6053,1000
0.6069667,934
0.6086333,1057
0.6103,842
0.6119667,1093
0.6136333,866
0.6153,1064
0.6169667,966
0.6186333,800
0.6203,1176
0.6219667,1016
0.6236333,969
0.6253,1137
0.6269667,911
0.6286333,1153
0.6303,1064
0.6319667,898
0.6336333,1063
0.6353,703
0.6369666,788
0.6386333,990
0.6403,856
0.6419666,967
0.6436333,947
0.6453,928
0.6469667,940
0.6486334,953
0.6503,791
0.6519667,857
0.6536334,801
0.6553,946
0.6569667,1041
0.6586334,1052
0.6603,1020
0.6619667,892
0.6636333,823
0.6653,985
0.6669667,892
0.6686333,799
0.6703,831
0.6719667,933
0.6736333,940
0.6753,958
0.6769667,682
0.6786333,916
0.6803,946
0.6819667,845
0.6836333,891
0.6853,937
0.6869667,924
0.6886333,912
0.6903,885
0.6919667,846
0.6936333,846
0.6953,864
0.6969666,797
0.6986333,859
0.7003,873
0.7019666,886
0.7036333,789
0.7053,870
0.7069666,793
0.7086333,824
0.7103,861
0.7119667,828
0.7136334,795
0.7153,811
0.7169667,827
0.7186334,865
0.7203,880
0.7219667,895
0.7236333,754
0.7253,751
0.7269667,868
0.7286333,866
0.7303,977
0.7319667,935
0.7336333,775
0.7353,784
0.7369667,744
0.7386333,725
0.7403,706
0.7419667,901
0.7436333,886
0.7453,843
0.7469667,858
0.7486333,850
0.7503,918
0.7519667,906
0.7536333,895
0.7553,905
0.7569667,882
0.7586333,873
0.7603,864
0.7619666,880
0.7636333,743
0.7653,841
0.7669666,772
0.7686333,924
0.7703,921
0.7719667,918
0.7736334,801
0.7753,905
0.7769667,806
0.7786334,893
0.7803,881
0.7819667,869
0.7836334,877
0.7853,885
0.7869667,885
0.7886333,632
0.7903,1021
0.7919667,875
0.7936333,758
0.7953,1033
0.7969667,1056
0.7986333,900
0.8003,872
0.8019667,961
0.8036333,846
0.8053,732
0.8069667,757
0.8086333,782
0.8103,657
0.8119667,852
0.8136333,781
0.8153,953
0.8169667,949
0.8186333,762
0.8203,853
0.8219666,865
0.8236333,914
0.8253,893
0.8269666,873
0.8286333,915
0.8303,958
0.8319666,754
0.8336333,923
0.8353,1014
0.8369667,1012
0.8386334,953
0.8403,777
0.8419667,1027
0.8436334,764
0.8453,830
0.8469667,871
0.8486333,835
0.8503,828
0.8519667,763
0.8536333,655
0.8553,845
0.8569667,758
0.8586333,830
0.8603,911
0.8619667,853
0.8636333,765
0.8653,857
0.8669667,949
0.8686333,902
0.8703,854
0.8719667,727
0.8736333,704
0.8753,935
0.8769667,617
0.8786333,1049
0.8803,1121
0.8819667,1054
0.8836333,1190
0.8853,1236
0.8869666,1311
0.8886333,1215
0.8903,1119
0.8919666,1265
0.8936333,1406
0.8953,1347
0.8969667,1223
0.8986334,1192
0.9003,1348
0.9019667,1305
0.9036334,1164
0.9053,1277
0.9069667,1330
0.9086334,1143
0.9103,1213
0.9119667,1282
0.9136333,1098
0.9153,1098
0.9169667,1205
0.9186333,1246
0.9203,1306
0.9219667,1410
0.9236333,1397
0.9253,1291
0.9269667,1492
0.9286333,1116
0.9303,1180
0.9319667,1044
0.9336333,1164
0.9353,1070
0.9369667,1114
0.9386333,1158
0.9403,1140
0.9419667,1122
0.9436333,1169
0.9453,1139
0.9469666,1109
0.9486333,1142
0.9503,1117
0.9519666,1093
0.9536333,1222
0.9553,1192
0.9569666,1029
0.9586333,1192
0.9603,1106
0.9619667,1265
0.9636334,1175
0.9653,1105
0.9669667,1206
0.9686334,879
0.9703,1122
0.9719667,1065
0.9736333,919
0.9753,1007
0.9769667,1107
0.9786333,801
0.9803,997
0.9819667,1140
0.9836333,1060
0.9853,785
0.9869667,660
0.9886333,842
0.9903,669
0.9919667,877
0.9936333,850
0.9953,866
0.9969667,806
0.9986333,888
1.0003,905
1.001967,841
1.003633,797
1.0053,818
1.006967,752
1.008633,687
1.0103,824
1.011967,783
1.013633,1004
1.0153,915
1.016967,929
1.018633,823
1.0203,844
1.021967,861
1.023633,724
1.0253,710
1.026967,934
1.028633,915
1.0303,887
1.031967,934
1.033633,888
1.0353,752
1.036967,747
1.038633,742
1.0403,897
1.041967,915
1.043633,978
1.0453,787
1.046967,895
1.048633,995
1.0503,975
1.051967,1055
1.053633,1044
1.0553,851
1.056967,946
1.058633,903
1.0603,995
1.061967,807
1.063633,944
1.0653,1049
1.066967,815
1.068633,952
1.0703,915
1.071967,1011
1.073633,1013
1.0753,873
1.076967,903
1.078633,925
1.0803,838
1.081967,938
1.083633,979
1.0853,773
1.086967,962
1.088633,910
1.0903,901
1.091967,762
1.093633,826
1.0953,855
1.096967,885
1.098633,727
1.1003,830
1.101967,892
1.103633,901
1.1053,893
1.106967,700
1.108633,683
1.1103,856
1.111967,832
1.113633,807
1.1153,856
1.116967,840
1.118633,826
1.1203,812
1.121967,776
1.123633,758
1.1253,741
1.126967,743
1.128633,744
1.1303,732
1.131967,719
1.133633,713
1.1353,797
1.136967,824
1.138633,859
1.1403,753
1.141967,840
1.143633,548
1.1453,980
1.146967,913
1.148633,810
1.1503,843
1.151967,798
1.153633,812
1.1553,893
1.156967,846
1.158633,799
1.1603,760
1.161967,708
1.163633,748
1.1653,848
1.166967,853
1.168633,883
1.1703,776
1.171967,735
1.173633,587
1.1753,740
1.176967,905
1.178633,903
1.1803,780
1.181967,788
1.183633,838
1.1853,824
1.186967,810
1.188633,833
1.1903,860
1.191967,861
1.193633,861
1.1953,893
1.196967,744
1.198633,867
