"SampleName","A2Rd2_02-78"
"Target Mass 1",
"Column Name","IA-3 (3um, 4.6X100)"
"Channel","QDa 1: SIR Ch1"
0.00195,395
0.003616667,539
0.005283333,523
0.00695,664
0.008616666,562
0.01028333,531
0.01195,605
0.01361667,619
0.01528333,492
0.01695,361
0.01861667,523
0.02028333,538
0.02195,553
0.02361667,475
0.02528333,485
0.02695,495
0.02861667,382
0.03028333,493
0.03195,574
0.03361667,637
0.03528333,563
0.03695,633
0.03861667,484
0.04028333,586
0.04195,427
0.04361667,342
0.04528333,618
0.04695,390
0.04861667,637
0.05028334,437
0.05195,602
0.05361667,534
0.05528333,573
0.05695,619
0.05861667,582
0.06028333,601
0.06195,596
0.06361666,582
0.06528334,627
0.06695,430
0.06861667,567
0.07028333,499
0.07195,574
0.07361667,540
0.07528333,505
0.07695,567
0.07861666,536
0.08028334,505
0.08195,546
0.08361667,588
0.08528333,560
0.08695,533
0.08861667,467
0.09028333,563
0.09195,466
0.09361666,588
0.09528334,342
0.09695,461
0.09861667,435
0.1002833,466
0.10195,498
0.1036167,505
0.1052833,545
0.10695,425
0.1086167,416
0.1102833,585
0.11195,557
0.1136167,480
0.1152833,532
0.11695,516
0.1186167,542
0.1202833,475
0.12195,504
0.1236167,484
0.1252833,522
0.12695,525
0.1286167,535
0.1302833,545
0.13195,356
0.1336167,435
0.1352833,404
0.13695,523
0.1386167,501
0.1402833,585
0.14195,443
0.1436167,505
0.1452833,545
0.14695,450
0.1486167,577
0.1502833,577
0.15195,467
0.1536167,534
0.1552833,582
0.15695,588
0.1586167,507
0.1602833,540
0.16195,401
0.1636167,507
0.1652833,586
0.16695,489
0.1686167,352
0.1702833,554
0.17195,483
0.1736167,686
0.1752833,699
0.17695,570
0.1786167,482
0.1802833,552
0.18195,508
0.1836167,400
0.1852833,550
0.18695,498
0.1886167,408
0.1902833,543
0.19195,491
0.1936167,580
0.1952833,374
0.19695,368
0.1986167,423
0.2002833,448
0.20195,472
0.2036167,369
0.2052833,526
0.20695,506
0.2086167,533
0.2102833,543
0.21195,518
0.2136167,561
0.2152833,442
0.21695,411
0.2186167,573
0.2202833,581
0.22195,457
0.2236167,533
0.2252833,494
0.22695,386
0.2286167,407
0.2302833,447
0.23195,522
0.2336167,486
0.2352833,466
0.23695,445
0.2386167,424
0.2402833,570
0.24195,576
0.2436167,478
0.2452833,441
0.24695,531
0.2486167,508
0.2502833,504
0.25195,500
0.2536167,550
0.2552833,467
0.25695,383
0.2586167,511
0.2602833,518
0.26195,442
0.2636167,483
0.2652833,482
0.26695,482
0.2686167,453
0.2703,463
0.27195,473
0.2736167,474
0.2752833,476
0.27695,489
0.2786167,438
0.2803,475
0.28195,546
0.2836333,498
0.2852833,450
0.28695,451
0.2886333,452
0.2902833,461
0.29195,503
0.2936167,471
0.2952833,440
0.29695,470
0.2986333,500
0.3002833,656
0.30195,654
0.3036167,451
0.3052833,424
0.30695,516
0.3086167,511
0.3102833,443
0.31195,578
0.3136167,625
0.3153,672
0.31695,558
0.3186167,533
0.3202833,492
0.32195,593
0.3236167,615
0.3252833,658
0.32695,580
0.3286167,512
0.3303,490
0.33195,547
0.3336333,440
0.3352833,496
0.33695,383
0.3386333,394
0.3402833,405
0.34195,499
0.3436333,662
0.3452833,604
0.3469667,551
0.3486167,472
0.3503,538
0.35195,457
0.3536167,477
0.3553,497
0.35695,577
0.3586167,517
0.3603,457
0.36195,743
0.3636333,884
0.3652833,1341
0.3669667,1778
0.3686333,2377
0.3702833,2924
0.3719667,2943
0.3736167,3007
0.3753,2939
0.3769667,3073
0.3786333,3208
0.3803,4046
0.38195,3782
0.3836333,4389
0.3853,3696
0.3869667,3422
0.3886333,3201
0.3903,2900
0.3919667,2189
0.3936333,1927
0.3953,1483
0.3969667,1439
0.3986167,1535
0.4003,1338
0.40195,1244
0.4036333,1229
0.4053,1289
0.4069667,1349
0.4086333,1324
0.4103,1358
0.4119667,1188
0.4136333,1389
0.4152833,1282
0.4169667,1456
0.4186167,1453
0.4203,1450
0.4219667,1350
0.4236333,1419
0.4253,1488
0.4269667,1517
0.4286333,1646
0.4303,1682
0.4319667,1840
0.4336333,2377
0.4353,3242
0.4369667,5376
0.4386333,7078
0.4403,12916
0.4419667,19424
0.4436333,29484
0.4453,43152
0.4469667,57440
0.4486333,75488
0.4503,92432
0.4519667,109232
0.4536333,125168
0.4553,136512
0.4569667,146048
0.4586333,152576
0.4603,155776
0.4619667,160000
0.4636333,160384
0.4653,158976
0.4669667,157568
0.4686333,160960
0.4703,166720
0.4719667,169728
0.4736333,176448
0.4753,182848
0.4769667,187712
0.4786333,193152
0.4803,188992
0.4819667,188288
0.4836333,179456
0.4853,168960
0.4869667,151872
0.4886333,139520
0.4903,121552
0.4919667,101984
0.4936333,86416
0.4953,72800
0.4969667,62352
0.4986333,51104
0.5003,43072
0.5019667,34768
0.5036333,26948
0.5053,22236
0.5069667,18932
0.5086333,14644
0.5103,12508
0.5119666,10320
0.5136333,9080
0.5153,7443
0.5169666,6856
0.5186333,5890
0.5203,5444
0.5219667,4804
0.5236334,4267
0.5253,3820
0.5269667,3915
0.5286334,3460
0.5303,3309
0.5319667,2949
0.5336334,2891
0.5353,2884
0.5369667,2925
0.5386333,2877
0.5403,2758
0.5419667,2370
0.5436333,2405
0.5453,2492
0.5469667,2306
0.5486333,2303
0.5503,1983
0.5519667,1981
0.5536333,1811
0.5553,1767
0.5569667,1963
0.5586333,1576
0.5603,1861
0.5619667,1883
0.5636333,1700
0.5653,1559
0.5669667,1454
0.5686333,1755
0.5703,1443
0.5719666,1351
0.5736333,1581
0.5753,1500
0.5769666,1351
0.5786333,1429
0.5803,1415
0.5819666,1421
0.5836333,1426
0.5853,1458
0.5869667,1263
0.5886334,1402
0.5903,1366
0.5919667,1350
0.5936334,1320
0.5953,1257
0.5969667,1451
0.5986333,1497
0.6003,1414
0.6019667,1214
0.6036333,1428
0.6053,1576
0.6069667,1188
0.6086333,1290
0.6103,1451
0.6119667,1469
0.6136333,1248
0.6153,1371
0.6169667,1445
0.6186333,1337
0.6203,1368
0.6219667,1069
0.6236333,1277
0.6253,1332
0.6269667,1398
0.6286333,1212
0.6303,1251
0.6319667,1155
0.6336333,1105
0.6353,1090
0.6369666,1081
0.6386333,1073
0.6403,997
0.6419666,1007
0.6436333,1017
0.6453,1044
0.6469667,1072
0.6486334,1094
0.6503,879
0.6519667,1010
0.6536334,963
0.6553,888
0.6569667,1002
0.6586334,1031
0.6603,757
0.6619667,805
0.6636333,797
0.6653,837
0.6669667,1019
0.6686333,1034
0.6703,945
0.6719667,757
0.6736333,1034
0.6753,1043
0.6769667,758
0.6786333,939
0.6803,966
0.6819667,1021
0.6836333,896
0.6853,895
0.6869667,814
0.6886333,999
0.6903,938
0.6919667,855
0.6936333,854
0.6953,938
0.6969666,834
0.6986333,935
0.7003,922
0.7019666,975
0.7036333,681
0.7053,872
0.7069666,799
0.7086333,765
0.7103,696
0.7119667,771
0.7136334,714
0.7153,768
0.7169667,739
0.7186334,758
0.7203,777
0.7219667,641
0.7236333,768
0.7253,604
0.7269667,745
0.7286333,720
0.7303,705
0.7319667,587
0.7336333,872
0.7353,888
0.7369667,689
0.7386333,720
0.7403,704
0.7419667,778
0.7436333,852
0.7453,918
0.7469667,883
0.7486333,849
0.7503,985
0.7519667,673
0.7536333,958
0.7553,768
0.7569667,767
0.7586333,613
0.7603,893
0.7619666,791
0.7636333,879
0.7653,894
0.7669666,903
0.7686333,747
0.7703,890
0.7719667,788
0.7736334,683
0.7753,813
0.7769667,919
0.7786334,895
0.7803,782
0.7819667,951
0.7836334,795
0.7853,843
0.7869667,767
0.7886333,625
0.7903,761
0.7919667,790
0.7936333,680
0.7953,588
0.7969667,663
0.7986333,739
0.8003,745
0.8019667,772
0.8036333,813
0.8053,774
0.8069667,735
0.8086333,729
0.8103,741
0.8119667,753
0.8136333,609
0.8153,794
0.8169667,705
0.8186333,778
0.8203,729
0.8219666,569
0.8236333,796
0.8253,875
0.8269666,769
0.8286333,774
0.8303,760
0.8319666,733
0.8336333,696
0.8353,812
0.8369667,929
0.8386334,876
0.8403,808
0.8419667,740
0.8436334,847
0.8453,736
0.8469667,764
0.8486333,745
0.8503,762
0.8519667,760
0.8536333,758
0.8553,753
0.8569667,761
0.8586333,757
0.8603,754
0.8619667,751
0.8636333,748
0.8653,745
0.8669667,693
0.8686333,718
0.8703,725
0.8719667,733
0.8736333,771
0.8753,594
0.8769667,743
0.8786333,1033
0.8803,1483
0.8819667,1583
0.8836333,2066
0.8853,2452
0.8869666,2721
0.8886333,2640
0.8903,3021
0.8919666,2934
0.8936333,2847
0.8953,3129
0.8969667,3421
0.8986334,3520
0.9003,3199
0.9019667,3145
0.9036334,3494
0.9053,3324
0.9069667,3371
0.9086334,3297
0.9103,3223
0.9119667,3308
0.9136333,3296
0.9153,3284
0.9169667,3214
0.9186333,3289
0.9203,3171
0.9219667,3054
0.9236333,3234
0.9253,3414
0.9269667,3551
0.9286333,3373
0.9303,3268
0.9319667,3013
0.9336333,3434
0.9353,3259
0.9369667,3066
0.9386333,3014
0.9403,3182
0.9419667,2859
0.9436333,2676
0.9453,2619
0.9469666,2157
0.9486333,2669
0.9503,2302
0.9519666,2204
0.9536333,2257
0.9553,2374
0.9569666,2096
0.9586333,1649
0.9603,1786
0.9619667,1850
0.9636334,1720
0.9653,1591
0.9669667,1597
0.9686334,1552
0.9703,1205
0.9719667,1115
0.9736333,972
0.9753,1083
0.9769667,1011
0.9786333,1095
0.9803,1190
0.9819667,933
0.9836333,829
0.9853,884
0.9869667,908
0.9886333,765
0.9903,591
0.9919667,696
0.9936333,778
0.9953,847
0.9969667,630
0.9986333,711
1.0003,621
1.001967,662
1.003633,472
1.0053,501
1.006967,640
1.008633,617
1.0103,650
1.011967,634
1.013633,618
1.0153,627
1.016967,635
1.018633,625
1.0203,637
1.021967,534
1.023633,661
1.0253,511
1.026967,627
1.028633,645
1.0303,729
1.031967,641
1.033633,555
1.0353,690
1.036967,721
1.038633,599
1.0403,663
1.041967,652
1.043633,575
1.0453,596
1.046967,601
1.048633,596
1.0503,558
1.051967,535
1.053633,512
1.0553,558
1.056967,471
1.058633,525
1.0603,645
1.061967,590
1.063633,536
1.0653,664
1.066967,663
1.068633,661
1.0703,668
1.071967,617
1.073633,667
1.0753,614
1.076967,625
1.078633,636
1.0803,673
1.081967,560
1.083633,620
1.0853,681
1.086967,706
1.088633,691
1.0903,635
1.091967,647
1.093633,660
1.0953,622
1.096967,666
1.098633,711
1.1003,577
1.101967,536
1.103633,560
1.1053,584
1.106967,548
1.108633,511
1.1103,632
1.111967,787
1.113633,762
1.1153,752
1.116967,635
1.118633,732
1.1203,559
1.121967,640
1.123633,615
1.1253,586
1.126967,578
1.128633,570
1.1303,555
1.131967,598
1.133633,642
1.1353,680
1.136967,663
1.138633,646
1.1403,672
1.141967,687
1.143633,635
1.1453,685
1.146967,680
1.148633,674
1.1503,599
1.151967,616
1.153633,648
1.1553,766
1.156967,673
1.158633,580
1.1603,658
1.161967,670
1.163633,640
1.1653,611
1.166967,757
1.168633,751
1.1703,697
1.171967,678
1.173633,672
1.1753,667
1.176967,672
1.178633,708
1.1803,743
1.181967,612
1.183633,662
1.1853,646
1.186967,569
1.188633,603
1.1903,737
1.191967,793
1.193633,695
1.1953,590
1.196967,811
1.198633,461
