"SampleName","A2Rd2_02-14"
"Target Mass 1",
"Column Name","IA-3 (3um, 4.6X100)"
"Channel","QDa 1: SIR Ch1"
0.00195,400
0.003616667,578
0.005283333,624
0.00695,567
0.008616666,621
0.01028333,574
0.01195,630
0.01361667,551
0.01528333,590
0.01695,628
0.01861667,600
0.02028333,572
0.02195,631
0.02361667,491
0.02528333,512
0.02695,674
0.02861667,562
0.03028333,441
0.03195,553
0.03361667,617
0.03528333,750
0.03695,686
0.03861667,509
0.04028333,499
0.04195,474
0.04361667,475
0.04528333,477
0.04695,441
0.04861667,450
0.05028334,459
0.05195,491
0.05361667,523
0.05528333,583
0.05695,658
0.05861667,622
0.06028333,556
0.06195,565
0.06361666,620
0.06528334,443
0.06695,596
0.06861667,519
0.07028333,577
0.07195,566
0.07361667,554
0.07528333,623
0.07695,437
0.07861666,460
0.08028334,611
0.08195,556
0.08361667,660
0.08528333,488
0.08695,509
0.08861667,571
0.09028333,544
0.09195,517
0.09361666,492
0.09528334,499
0.09695,506
0.09861667,504
0.1002833,553
0.10195,504
0.1036167,455
0.1052833,544
0.10695,491
0.1086167,581
0.1102833,530
0.11195,514
0.1136167,497
0.1152833,532
0.11695,524
0.1186167,516
0.1202833,453
0.12195,513
0.1236167,509
0.1252833,505
0.12695,555
0.1286167,498
0.1302833,441
0.13195,614
0.1336167,614
0.1352833,486
0.13695,592
0.1386167,329
0.1402833,385
0.14195,546
0.1436167,515
0.1452833,480
0.14695,577
0.1486167,555
0.1502833,713
0.15195,646
0.1536167,405
0.1552833,532
0.15695,512
0.1586167,534
0.1602833,480
0.16195,426
0.1636167,472
0.1652833,465
0.16695,459
0.1686167,445
0.1702833,430
0.17195,599
0.1736167,654
0.1752833,587
0.17695,652
0.1786167,509
0.1802833,599
0.18195,571
0.1836167,526
0.1852833,622
0.18695,425
0.1886167,645
0.1902833,588
0.19195,462
0.1936167,601
0.1952833,508
0.19695,517
0.1986167,577
0.2002833,587
0.20195,544
0.2036167,455
0.2052833,416
0.20695,377
0.2086167,414
0.2102833,451
0.21195,477
0.2136167,591
0.2152833,564
0.21695,556
0.2186167,540
0.2202833,408
0.22195,641
0.2236167,628
0.2252833,521
0.22695,498
0.2286167,652
0.2302833,569
0.23195,603
0.2336167,576
0.2352833,452
0.23695,497
0.2386167,527
0.2402833,541
0.24195,466
0.2436167,684
0.2452833,727
0.24695,614
0.2486167,632
0.2502833,531
0.25195,519
0.2536167,544
0.2552833,519
0.25695,664
0.2586167,672
0.2602833,481
0.26195,575
0.2636167,439
0.2652833,572
0.26695,570
0.2686167,483
0.2702833,537
0.27195,542
0.2736167,444
0.2752833,535
0.27695,497
0.2786167,425
0.2803,434
0.28195,422
0.2836167,410
0.2852833,416
0.28695,582
0.2886167,692
0.2902833,729
0.29195,503
0.2936167,653
0.2952833,684
0.29695,572
0.2986333,796
0.3002833,474
0.30195,403
0.3036167,687
0.3052833,493
0.30695,627
0.3086167,698
0.3102833,438
0.31195,628
0.3136167,526
0.3153,562
0.31695,645
0.3186167,563
0.3202833,654
0.32195,622
0.3236167,596
0.3252833,604
0.32695,596
0.3286167,689
0.3302833,466
0.33195,532
0.3336333,596
0.3352833,503
0.33695,447
0.3386333,618
0.3402833,606
0.34195,679
0.3436167,664
0.3452833,493
0.34695,527
0.3486167,632
0.3503,471
0.35195,637
0.3536167,481
0.3553,518
0.3569667,647
0.3586167,700
0.3603,574
0.36195,694
0.3636333,1055
0.3652833,1480
0.3669667,2672
0.3686333,3475
0.3703,4220
0.3719667,5033
0.3736333,5500
0.3752833,5721
0.3769667,5829
0.3786333,5841
0.3803,5854
0.38195,5886
0.3836333,5113
0.3853,4069
0.3869667,3706
0.3886333,3208
0.3903,2424
0.3919667,2031
0.3936333,1486
0.3953,1407
0.3969667,1293
0.3986167,967
0.4003,1218
0.4019667,1336
0.4036333,1022
0.4053,991
0.4069667,1087
0.4086333,903
0.4103,1139
0.4119667,1233
0.4136333,830
0.4153,1271
0.4169667,904
0.4186333,1153
0.4203,1028
0.4219667,999
0.4236333,1019
0.4253,909
0.4269667,1177
0.4286333,1262
0.4303,1153
0.4319667,1259
0.4336333,2052
0.4353,3005
0.4369667,4676
0.4386333,7955
0.4403,11844
0.4419667,18356
0.4436333,27256
0.4453,39056
0.4469667,52432
0.4486333,68016
0.4503,84880
0.4519667,101392
0.4536333,117920
0.4553,132672
0.4569667,149632
0.4586333,158464
0.4603,169024
0.4619667,175680
0.4636333,187328
0.4653,195072
0.4669667,203136
0.4686333,214592
0.4703,227520
0.4719667,241856
0.4736333,254336
0.4753,259968
0.4769667,264192
0.4786333,261440
0.4803,254464
0.4819667,242368
0.4836333,220352
0.4853,204288
0.4869667,177728
0.4886333,154944
0.4903,130112
0.4919667,107680
0.4936333,89504
0.4953,72592
0.4969667,59360
0.4986333,47440
0.5003,37232
0.5019667,30496
0.5036333,23788
0.5053,18920
0.5069667,15420
0.5086333,12652
0.5103,11228
0.5119666,8892
0.5136333,6986
0.5153,6926
0.5169666,6022
0.5186333,5289
0.5203,5660
0.5219667,4281
0.5236334,4038
0.5253,4252
0.5269667,3735
0.5286334,3564
0.5303,3317
0.5319667,3681
0.5336334,3149
0.5353,3206
0.5369667,3146
0.5386333,3027
0.5403,2676
0.5419667,2485
0.5436333,2643
0.5453,2570
0.5469667,2034
0.5486333,2549
0.5503,2078
0.5519667,2412
0.5536333,1704
0.5553,1869
0.5569667,1943
0.5586333,1767
0.5603,2027
0.5619667,1398
0.5636333,1690
0.5653,1596
0.5669667,1785
0.5686333,1730
0.5703,1548
0.5719666,1436
0.5736333,1544
0.5753,1463
0.5769666,1498
0.5786333,1533
0.5803,1531
0.5819666,1607
0.5836333,1591
0.5853,1446
0.5869667,1411
0.5886334,1354
0.5903,1436
0.5919667,1308
0.5936334,1393
0.5953,1297
0.5969667,1191
0.5986333,1459
0.6003,1296
0.6019667,1133
0.6036333,1135
0.6053,1107
0.6069667,1080
0.6086333,1068
0.6103,1046
0.6119667,1030
0.6136333,1112
0.6153,1224
0.6169667,1251
0.6186333,1186
0.6203,1121
0.6219667,1171
0.6236333,1179
0.6253,1187
0.6269667,891
0.6286333,1040
0.6303,927
0.6319667,1147
0.6336333,1083
0.6353,1095
0.6369666,886
0.6386333,1203
0.6403,882
0.6419666,1102
0.6436333,1049
0.6453,1201
0.6469667,825
0.6486334,955
0.6503,960
0.6519667,800
0.6536334,1061
0.6553,758
0.6569667,942
0.6586334,714
0.6603,898
0.6619667,961
0.6636333,856
0.6653,830
0.6669667,687
0.6686333,958
0.6703,930
0.6719667,822
0.6736333,853
0.6753,856
0.6769667,981
0.6786333,995
0.6803,874
0.6819667,935
0.6836333,742
0.6853,859
0.6869667,917
0.6886333,804
0.6903,718
0.6919667,795
0.6936333,674
0.6953,872
0.6969666,884
0.6986333,806
0.7003,828
0.7019666,827
0.7036333,697
0.7053,812
0.7069666,656
0.7086333,807
0.7103,778
0.7119667,917
0.7136334,522
0.7153,663
0.7169667,721
0.7186334,753
0.7203,661
0.7219667,685
0.7236333,669
0.7253,691
0.7269667,714
0.7286333,769
0.7303,824
0.7319667,826
0.7336333,657
0.7353,948
0.7369667,881
0.7386333,698
0.7403,748
0.7419667,805
0.7436333,772
0.7453,898
0.7469667,883
0.7486333,724
0.7503,585
0.7519667,708
0.7536333,752
0.7553,698
0.7569667,677
0.7586333,713
0.7603,673
0.7619666,633
0.7636333,713
0.7653,792
0.7669666,725
0.7686333,657
0.7703,699
0.7719667,740
0.7736334,852
0.7753,838
0.7769667,667
0.7786334,705
0.7803,738
0.7819667,700
0.7836334,661
0.7853,755
0.7869667,683
0.7886333,762
0.7903,782
0.7919667,577
0.7936333,638
0.7953,698
0.7969667,755
0.7986333,704
0.8003,653
0.8019667,882
0.8036333,816
0.8053,848
0.8069667,761
0.8086333,784
0.8103,808
0.8119667,711
0.8136333,914
0.8153,944
0.8169667,841
0.8186333,923
0.8203,621
0.8219666,921
0.8236333,777
0.8253,844
0.8269666,725
0.8286333,886
0.8303,950
0.8319666,748
0.8336333,824
0.8353,677
0.8369667,808
0.8386334,809
0.8403,810
0.8419667,739
0.8436334,808
0.8453,848
0.8469667,889
0.8486333,873
0.8503,874
0.8519667,703
0.8536333,891
0.8553,817
0.8569667,890
0.8586333,934
0.8603,978
0.8619667,822
0.8636333,628
0.8653,837
0.8669667,847
0.8686333,713
0.8703,665
0.8719667,738
0.8736333,810
0.8753,597
0.8769667,753
0.8786333,1150
0.8803,1397
0.8819667,1803
0.8836333,1954
0.8853,2022
0.8869666,2500
0.8886333,2809
0.8903,2682
0.8919666,2815
0.8936333,2947
0.8953,3606
0.8969667,3438
0.8986334,3008
0.9003,3030
0.9019667,3148
0.9036334,3355
0.9053,3373
0.9069667,3645
0.9086334,3503
0.9103,3419
0.9119667,3448
0.9136333,3076
0.9153,3305
0.9169667,3170
0.9186333,3318
0.9203,2962
0.9219667,3271
0.9236333,3390
0.9253,3525
0.9269667,3649
0.9286333,3053
0.9303,3209
0.9319667,3048
0.9336333,3075
0.9353,3101
0.9369667,3128
0.9386333,3154
0.9403,2810
0.9419667,2726
0.9436333,2644
0.9453,2879
0.9469666,2613
0.9486333,2437
0.9503,2322
0.9519666,2417
0.9536333,2341
0.9553,2128
0.9569666,1957
0.9586333,2072
0.9603,2025
0.9619667,1877
0.9636334,1842
0.9653,1618
0.9669667,1715
0.9686334,1298
0.9703,1441
0.9719667,1387
0.9736333,1327
0.9753,1196
0.9769667,1175
0.9786333,1191
0.9803,1034
0.9819667,939
0.9836333,983
0.9853,914
0.9869667,867
0.9886333,727
0.9903,771
0.9919667,723
0.9936333,675
0.9953,750
0.9969667,716
0.9986333,725
1.0003,707
1.001967,595
1.003633,522
1.0053,545
1.006967,569
1.008633,569
1.0103,585
1.011967,570
1.013633,555
1.0153,555
1.016967,556
1.018633,537
1.0203,518
1.021967,493
1.023633,498
1.0253,687
1.026967,783
1.028633,638
1.0303,824
1.031967,619
1.033633,618
1.0353,523
1.036967,412
1.038633,667
1.0403,597
1.041967,527
1.043633,614
1.0453,743
1.046967,652
1.048633,561
1.0503,718
1.051967,669
1.053633,760
1.0553,805
1.056967,507
1.058633,775
1.0603,637
1.061967,641
1.063633,617
1.0653,627
1.066967,636
1.068633,606
1.0703,577
1.071967,609
1.073633,641
1.0753,627
1.076967,683
1.078633,725
1.0803,807
1.081967,813
1.083633,689
1.0853,732
1.086967,760
1.088633,739
1.0903,717
1.091967,843
1.093633,825
1.0953,568
1.096967,589
1.098633,670
1.1003,648
1.101967,627
1.103633,631
1.1053,624
1.106967,646
1.108633,624
1.1103,601
1.111967,543
1.113633,841
1.1153,777
1.116967,732
1.118633,830
1.1203,765
1.121967,623
1.123633,602
1.1253,673
1.126967,721
1.128633,704
1.1303,687
1.131967,656
1.133633,495
1.1353,678
1.136967,780
1.138633,688
1.1403,694
1.141967,701
1.143633,715
1.1453,725
1.146967,703
1.148633,682
1.1503,715
1.151967,732
1.153633,826
1.1553,866
1.156967,827
1.158633,709
1.1603,827
1.161967,828
1.163633,761
1.1653,734
1.166967,862
1.168633,897
1.1703,682
1.171967,889
1.173633,801
1.1753,550
1.176967,626
1.178633,767
1.1803,698
1.181967,848
1.183633,1002
1.1853,951
1.186967,823
1.188633,842
1.1903,808
1.191967,803
1.193633,797
1.1953,799
1.196967,687
1.198633,744
