"SampleName","A2Rd2_02-28"
"Target Mass 1",
"Column Name","IA-3 (3um, 4.6X100)"
"Channel","QDa 1: SIR Ch2"
0.00195,427
0.003616667,731
0.005283333,746
0.00695,717
0.008616666,975
0.01028333,1073
0.01195,978
0.01361667,852
0.01528333,943
0.01695,946
0.01861667,880
0.02028333,855
0.02195,758
0.02361667,871
0.02528333,938
0.02695,1009
0.02861667,957
0.03028333,829
0.03195,982
0.03361667,833
0.03528333,845
0.03695,948
0.03861667,955
0.04028333,907
0.04195,863
0.04361667,950
0.04528333,1038
0.04695,992
0.04861667,1028
0.05028334,1045
0.05195,1082
0.05361667,872
0.05528333,956
0.05695,884
0.05861667,868
0.06028333,852
0.06195,954
0.06361666,957
0.06528334,961
0.06695,885
0.06861667,735
0.07028333,921
0.07195,1045
0.07361667,954
0.07528333,763
0.07695,860
0.07861666,758
0.08028334,810
0.08195,862
0.08361667,887
0.08528333,789
0.08695,690
0.08861667,910
0.09028333,839
0.09195,881
0.09361666,961
0.09528334,897
0.09695,833
0.09861667,786
0.1002833,903
0.10195,980
0.1036167,1005
0.1052833,1007
0.10695,1009
0.1086167,1014
0.1102833,1020
0.11195,630
0.1136167,760
0.1152833,866
0.11695,947
0.1186167,884
0.1202833,912
0.12195,824
0.1236167,925
0.1252833,928
0.12695,848
0.1286167,892
0.1302833,936
0.13195,801
0.1336167,994
0.1352833,793
0.13695,892
0.1386167,928
0.1402833,876
0.14195,823
0.1436167,894
0.1452833,964
0.14695,690
0.1486167,793
0.1502833,1020
0.15195,910
0.1536167,887
0.1552833,715
0.15695,867
0.1586167,987
0.1602833,866
0.16195,1020
0.1636167,959
0.1652833,902
0.16695,844
0.1686167,780
0.1702833,868
0.17195,855
0.1736167,843
0.1752833,922
0.17695,744
0.1786167,836
0.1802833,921
0.18195,857
0.1836167,855
0.1852833,887
0.18695,876
0.1886167,865
0.1902833,830
0.19195,802
0.1936167,680
0.1952833,872
0.19695,792
0.1986167,884
0.2002833,982
0.20195,998
0.2036167,811
0.2052833,896
0.20695,706
0.2086167,884
0.2102833,994
0.21195,858
0.2136167,722
0.2152833,845
0.21695,964
0.2186167,1051
0.2202833,963
0.22195,961
0.2236167,1081
0.2252833,1019
0.22695,957
0.2286167,1122
0.2302833,1225
0.23195,1127
0.2336333,1138
0.2352833,1121
0.23695,1176
0.2386167,1010
0.2402833,1106
0.24195,1142
0.2436167,1100
0.2453,1058
0.24695,1179
0.2486167,1256
0.2503,1205
0.25195,1178
0.2536167,1209
0.2552833,1105
0.25695,1204
0.2586167,994
0.2602833,998
0.26195,1182
0.2636333,1088
0.2652833,1002
0.2669667,1179
0.2686167,1220
0.2702833,1169
0.27195,1076
0.2736167,1130
0.2752833,1152
0.27695,1174
0.2786167,1137
0.2803,1045
0.28195,1122
0.2836167,1032
0.2852833,1032
0.28695,866
0.2886167,872
0.2902833,878
0.29195,919
0.2936167,960
0.2952833,932
0.29695,917
0.2986333,903
0.3003,882
0.3019667,1005
0.3036167,1002
0.3052833,943
0.30695,1194
0.3086333,1214
0.3102833,1045
0.3119667,1069
0.3136167,1092
0.3153,1133
0.3169667,1354
0.3186333,1525
0.3202833,1385
0.3219667,1184
0.3236167,1202
0.3253,1174
0.32695,1234
0.3286167,1294
0.3302833,1089
0.33195,1087
0.3336333,1276
0.3353,1355
0.33695,1219
0.3386333,1413
0.3402833,1349
0.34195,1494
0.3436167,1561
0.3453,1136
0.34695,1147
0.3486333,1134
0.3503,1224
0.3519667,1314
0.3536333,1328
0.3553,1336
0.35695,1344
0.3586333,1258
0.3603,1345
0.36195,1210
0.3636333,1528
0.3653,2094
0.3669667,3116
0.3686333,3204
0.3703,4289
0.3719667,3505
0.3736333,3081
0.3753,3458
0.3769667,3066
0.3786333,3418
0.3803,3245
0.3819667,3135
0.3836333,2518
0.3853,2013
0.3869667,2236
0.3886333,1654
0.3903,1299
0.3919667,933
0.3936333,983
0.3953,726
0.3969667,537
0.3986333,561
0.4003,450
0.4019667,421
0.4036333,460
0.4053,499
0.4069667,541
0.4086333,531
0.4103,522
0.4119667,573
0.4136333,603
0.4153,634
0.4169667,592
0.4186333,736
0.4203,728
0.4219667,720
0.4236333,677
0.4253,623
0.4269667,856
0.4286333,912
0.4303,881
0.4319667,849
0.4336333,1004
0.4353,983
0.4369667,962
0.4386333,1082
0.4403,1061
0.4419667,1161
0.4436333,1180
0.4453,1198
0.4469667,1243
0.4486333,1319
0.4503,1233
0.4519667,1148
0.4536333,1221
0.4553,1295
0.4569667,1317
0.4586333,1340
0.4603,1491
0.4619667,1487
0.4636333,1392
0.4653,1464
0.4669667,1440
0.4686333,1410
0.4703,1381
0.4719667,1431
0.4736333,1600
0.4753,1589
0.4769667,1752
0.4786333,1238
0.4803,1720
0.4819667,1374
0.4836333,1487
0.4853,1565
0.4869667,1309
0.4886333,1574
0.4903,1486
0.4919667,1183
0.4936333,1179
0.4953,1160
0.4969667,1147
0.4986333,1135
0.5003,1160
0.5019667,952
0.5036333,1094
0.5053,1117
0.5069667,1157
0.5086333,1038
0.5103,1213
0.5119666,957
0.5136333,986
0.5153,891
0.5169666,928
0.5186333,865
0.5203,935
0.5219667,854
0.5236334,1024
0.5253,956
0.5269667,889
0.5286334,990
0.5303,993
0.5319667,982
0.5336334,976
0.5353,970
0.5369667,1112
0.5386333,1087
0.5403,1097
0.5419667,993
0.5436333,917
0.5453,1006
0.5469667,981
0.5486333,956
0.5503,1030
0.5519667,928
0.5536333,944
0.5553,1044
0.5569667,912
0.5586333,941
0.5603,968
0.5619667,994
0.5636333,879
0.5653,910
0.5669667,1005
0.5686333,985
0.5703,1073
0.5719666,809
0.5736333,938
0.5753,1093
0.5769666,855
0.5786333,1145
0.5803,1187
0.5819666,1020
0.5836333,1054
0.5853,934
0.5869667,1021
0.5886334,1109
0.5903,928
0.5919667,963
0.5936334,906
0.5953,917
0.5969667,927
0.5986333,853
0.6003,913
0.6019667,956
0.6036333,999
0.6053,829
0.6069667,1076
0.6086333,1104
0.6103,1041
0.6119667,961
0.6136333,743
0.6153,1035
0.6169667,977
0.6186333,1004
0.6203,884
0.6219667,940
0.6236333,971
0.6253,983
0.6269667,886
0.6286333,868
0.6303,827
0.6319667,771
0.6336333,1174
0.6353,1102
0.6369666,809
0.6386333,1060
0.6403,1054
0.6419666,997
0.6436333,1058
0.6453,1072
0.6469667,978
0.6486334,907
0.6503,932
0.6519667,782
0.6536334,915
0.6553,794
0.6569667,912
0.6586334,817
0.6603,952
0.6619667,980
0.6636333,980
0.6653,980
0.6669667,970
0.6686333,919
0.6703,794
0.6719667,816
0.6736333,809
0.6753,828
0.6769667,848
0.6786333,835
0.6803,925
0.6819667,723
0.6836333,1001
0.6853,934
0.6869667,1074
0.6886333,1158
0.6903,1164
0.6919667,1171
0.6936333,1038
0.6953,1219
0.6969666,894
0.6986333,1295
0.7003,1010
0.7019666,1196
0.7036333,1024
0.7053,1098
0.7069666,1305
0.7086333,1322
0.7103,1022
0.7119667,1222
0.7136334,1155
0.7153,1089
0.7169667,1024
0.7186334,1121
0.7203,1135
0.7219667,1150
0.7236333,904
0.7253,1184
0.7269667,1073
0.7286333,1247
0.7303,1098
0.7319667,1020
0.7336333,1167
0.7353,1005
0.7369667,1103
0.7386333,1085
0.7403,1110
0.7419667,1037
0.7436333,1098
0.7453,838
0.7469667,883
0.7486333,943
0.7503,937
0.7519667,1011
0.7536333,958
0.7553,906
0.7569667,874
0.7586333,939
0.7603,864
0.7619666,908
0.7636333,825
0.7653,960
0.7669666,950
0.7686333,801
0.7703,815
0.7719667,798
0.7736334,815
0.7753,892
0.7769667,891
0.7786334,891
0.7803,1089
0.7819667,1043
0.7836334,1077
0.7853,992
0.7869667,1110
0.7886333,1154
0.7903,1198
0.7919667,1143
0.7936333,1203
0.7953,1244
0.7969667,1284
0.7986333,1483
0.8003,1454
0.8019667,1426
0.8036333,1500
0.8053,1415
0.8069667,1431
0.8086333,1445
0.8103,1442
0.8119667,1411
0.8136333,1380
0.8153,1349
0.8169667,1319
0.8186333,1471
0.8203,1778
0.8219666,1715
0.8236333,1722
0.8253,1395
0.8269666,1348
0.8286333,1623
0.8303,1335
0.8319666,1527
0.8336333,1422
0.8353,1371
0.8369667,1270
0.8386334,1448
0.8403,1326
0.8419667,1011
0.8436334,1290
0.8453,982
0.8469667,1015
0.8486333,998
0.8503,1015
0.8519667,912
0.8536333,815
0.8553,713
0.8569667,763
0.8586333,814
0.8603,896
0.8619667,978
0.8636333,977
0.8653,969
0.8669667,888
0.8686333,973
0.8703,1081
0.8719667,793
0.8736333,920
0.8753,893
0.8769667,992
0.8786333,1020
0.8803,1080
0.8819667,1091
0.8836333,1072
0.8853,1104
0.8869666,1135
0.8886333,1166
0.8903,1154
0.8919666,1265
0.8936333,1251
0.8953,1124
0.8969667,1136
0.8986334,967
0.9003,1046
0.9019667,1125
0.9036334,1216
0.9053,1146
0.9069667,1128
0.9086334,1329
0.9103,1284
0.9119667,1265
0.9136333,1451
0.9153,1113
0.9169667,1178
0.9186333,1006
0.9203,1167
0.9219667,1395
0.9236333,1381
0.9253,1252
0.9269667,1236
0.9286333,1358
0.9303,1397
0.9319667,1157
0.9336333,1374
0.9353,996
0.9369667,1272
0.9386333,1068
0.9403,1164
0.9419667,1148
0.9436333,1188
0.9453,1180
0.9469666,1172
0.9486333,1204
0.9503,929
0.9519666,1173
0.9536333,996
0.9553,1026
0.9569666,1053
0.9586333,949
0.9603,948
0.9619667,999
0.9636334,1050
0.9653,1126
0.9669667,1219
0.9686334,1168
0.9703,1118
0.9719667,984
0.9736333,1173
0.9753,1295
0.9769667,1261
0.9786333,1226
0.9803,1196
0.9819667,1148
0.9836333,1479
0.9853,1491
0.9869667,1218
0.9886333,1129
0.9903,1328
0.9919667,1205
0.9936333,1475
0.9953,1393
0.9969667,1409
0.9986333,1312
1.0003,1324
1.001967,1336
1.003633,1228
1.0053,1222
1.006967,1215
1.008633,1299
1.0103,1383
1.011967,1424
1.013633,1437
1.0153,1373
1.016967,1315
1.018633,1279
1.0203,1115
1.021967,1332
1.023633,1371
1.0253,1331
1.026967,1233
1.028633,1203
1.0303,1201
1.031967,1199
1.033633,1132
1.0353,1235
1.036967,1049
1.038633,1271
1.0403,1131
1.041967,1034
1.043633,1049
1.0453,995
1.046967,917
1.048633,1005
1.0503,904
1.051967,1087
1.053633,1031
1.0553,975
1.056967,1085
1.058633,1101
1.0603,1117
1.061967,876
1.063633,974
1.0653,954
1.066967,1046
1.068633,999
1.0703,1108
1.071967,1145
1.073633,881
1.0753,1141
1.076967,1102
1.078633,1016
1.0803,996
1.081967,998
1.083633,1001
1.0853,1094
1.086967,1058
1.088633,1023
1.0903,1285
1.091967,1157
1.093633,1029
1.0953,1288
1.096967,1134
1.098633,1078
1.1003,1354
1.101967,1276
1.103633,1172
1.1053,1191
1.106967,1206
1.108633,1178
1.1103,1143
1.111967,1107
1.113633,1239
1.1153,974
1.116967,910
1.118633,1038
1.1203,1160
1.121967,1144
1.123633,885
1.1253,774
1.126967,984
1.128633,926
1.1303,969
1.131967,1006
1.133633,922
1.1353,909
1.136967,913
1.138633,918
1.1403,784
1.141967,752
1.143633,918
1.1453,895
1.146967,716
1.148633,1044
1.1503,973
1.151967,664
1.153633,709
1.1553,1006
1.156967,804
1.158633,958
1.1603,1086
1.161967,949
1.163633,1026
1.1653,920
1.166967,722
1.168633,847
1.1703,951
1.171967,928
1.173633,756
1.1753,906
1.176967,857
1.178633,790
1.1803,702
1.181967,856
1.183633,890
1.1853,728
1.186967,867
1.188633,678
1.1903,686
1.191967,813
1.193633,788
1.1953,670
1.196967,934
1.198633,963
