"SampleName","A2Rd2_02-50"
"Target Mass 1",
"Column Name","IA-3 (3um, 4.6X100)"
"Channel","QDa 1: SIR Ch2"
0.00195,534
0.003616667,891
0.005283333,668
0.00695,498
0.008616666,949
0.01028333,858
0.01195,929
0.01361667,897
0.01528333,911
0.01695,924
0.01861667,863
0.02028333,802
0.02195,834
0.02361667,896
0.02528333,932
0.02695,912
0.02861667,1090
0.03028333,1063
0.03195,946
0.03361667,935
0.03528333,1069
0.03695,1169
0.03861667,1141
0.04028333,1177
0.04195,981
0.04361667,1208
0.04528333,939
0.04695,1154
0.04861667,877
0.05028334,916
0.05195,1203
0.05361667,981
0.05528333,1164
0.05695,913
0.05861667,1150
0.06028333,945
0.06195,1022
0.06361666,885
0.06528334,720
0.06695,1091
0.06861667,988
0.07028333,1139
0.07195,1133
0.07361667,1034
0.07528333,784
0.07695,929
0.07861666,852
0.08028334,1020
0.08195,993
0.08361667,878
0.08528333,796
0.08695,1011
0.08861667,910
0.09028333,1038
0.09195,1073
0.09361666,880
0.09528334,1019
0.09695,1088
0.09861667,896
0.1002833,1146
0.10195,1112
0.1036167,848
0.1052833,839
0.10695,1142
0.1086167,1016
0.1102833,939
0.11195,958
0.1136167,777
0.1152833,854
0.11695,931
0.1186167,836
0.1202833,871
0.12195,905
0.1236167,865
0.1252833,825
0.12695,1025
0.1286167,1032
0.1302833,979
0.13195,895
0.1336167,942
0.1352833,818
0.13695,1003
0.1386167,1070
0.1402833,915
0.14195,821
0.1436167,946
0.1452833,911
0.14695,950
0.1486167,853
0.1502833,669
0.15195,817
0.1536167,1076
0.1552833,1068
0.15695,880
0.1586333,801
0.1602833,1036
0.16195,739
0.1636167,1042
0.1652833,827
0.16695,999
0.1686167,939
0.1702833,899
0.17195,1030
0.1736167,872
0.1752833,1012
0.17695,1031
0.1786167,927
0.1802833,789
0.18195,882
0.1836167,779
0.1852833,834
0.18695,706
0.1886167,711
0.1902833,788
0.19195,993
0.1936333,933
0.1952833,972
0.19695,976
0.1986167,772
0.2002833,968
0.20195,898
0.2036167,900
0.2052833,911
0.20695,946
0.2086167,980
0.2103,1009
0.21195,1003
0.2136167,1013
0.2152833,888
0.21695,1212
0.2186167,1140
0.2202833,964
0.22195,943
0.2236167,1189
0.2252833,1104
0.22695,1226
0.2286333,1245
0.2302833,1258
0.23195,1212
0.2336167,1228
0.2352833,1188
0.23695,1148
0.2386167,1271
0.2402833,1108
0.24195,1076
0.2436167,1158
0.2453,1077
0.24695,1302
0.2486167,1259
0.2502833,1271
0.25195,976
0.2536167,1537
0.2552833,1369
0.25695,1266
0.2586167,1090
0.2602833,1252
0.26195,1343
0.2636333,1414
0.2652833,1088
0.26695,1220
0.2686167,1150
0.2702833,884
0.27195,1271
0.2736333,1044
0.2752833,1011
0.27695,1017
0.2786333,1092
0.2803,1179
0.28195,1238
0.2836167,957
0.2852833,987
0.28695,979
0.2886167,1065
0.2902833,1036
0.2919667,1007
0.2936167,910
0.2952833,1098
0.29695,1179
0.2986333,1192
0.3002833,1039
0.30195,1180
0.3036167,1132
0.3052833,1178
0.30695,1344
0.3086167,1410
0.3102833,1344
0.31195,1288
0.3136167,1392
0.3153,1249
0.31695,1162
0.3186167,1476
0.3202833,1271
0.32195,1394
0.3236167,1492
0.3253,1269
0.32695,1296
0.3286333,1194
0.3302833,1191
0.33195,1187
0.3336333,1233
0.3352833,1059
0.3369667,1271
0.3386167,1174
0.3402833,1127
0.3419667,1329
0.3436167,1317
0.3452833,1306
0.34695,1225
0.3486167,1290
0.3503,1245
0.35195,1306
0.3536333,1228
0.3552833,1249
0.3569667,1269
0.3586333,1313
0.3603,1357
0.3619667,1485
0.3636167,1612
0.3652833,1605
0.36695,2541
0.3686333,2805
0.3703,3096
0.3719667,2599
0.3736333,2401
0.3753,3006
0.3769667,2667
0.3786333,2543
0.3803,2539
0.3819667,2534
0.3836333,2614
0.3853,2095
0.3869667,1862
0.3886333,1760
0.3903,1464
0.3919667,998
0.3936333,841
0.3953,958
0.3969667,595
0.3986333,534
0.4003,462
0.4019667,513
0.4036333,488
0.4053,545
0.4069667,618
0.4086333,589
0.4103,578
0.4119667,570
0.4136333,660
0.4153,777
0.4169667,802
0.4186333,592
0.4203,741
0.4219667,795
0.4236333,867
0.4253,803
0.4269667,732
0.4286333,885
0.4303,640
0.4319667,706
0.4336333,773
0.4353,754
0.4369667,935
0.4386333,948
0.4403,1030
0.4419667,992
0.4436333,954
0.4453,1101
0.4469667,1159
0.4486333,1158
0.4503,1138
0.4519667,1145
0.4536333,1188
0.4553,1175
0.4569667,1162
0.4586333,1169
0.4603,1177
0.4619667,1145
0.4636333,1124
0.4653,1231
0.4669667,1231
0.4686333,1230
0.4703,1326
0.4719667,1357
0.4736333,1360
0.4753,1325
0.4769667,1475
0.4786333,1126
0.4803,1302
0.4819667,1239
0.4836333,1123
0.4853,1104
0.4869667,1121
0.4886333,1157
0.4903,1193
0.4919667,1019
0.4936333,1073
0.4953,963
0.4969667,1002
0.4986333,1099
0.5003,1085
0.5019667,1035
0.5036333,985
0.5053,954
0.5069667,971
0.5086333,800
0.5103,861
0.5119666,921
0.5136333,955
0.5153,794
0.5169666,880
0.5186333,966
0.5203,922
0.5219667,872
0.5236334,922
0.5253,917
0.5269667,911
0.5286334,680
0.5303,790
0.5319667,861
0.5336334,1140
0.5353,1038
0.5369667,1066
0.5386333,881
0.5403,1125
0.5419667,1053
0.5436333,970
0.5453,944
0.5469667,954
0.5486333,1038
0.5503,753
0.5519667,925
0.5536333,1136
0.5553,1092
0.5569667,1029
0.5586333,940
0.5603,883
0.5619667,973
0.5636333,915
0.5653,955
0.5669667,995
0.5686333,944
0.5703,894
0.5719666,1033
0.5736333,965
0.5753,1231
0.5769666,1239
0.5786333,993
0.5803,1028
0.5819666,971
0.5836333,1005
0.5853,974
0.5869667,995
0.5886334,933
0.5903,898
0.5919667,847
0.5936334,964
0.5953,990
0.5969667,1095
0.5986333,798
0.6003,947
0.6019667,1143
0.6036333,977
0.6053,1114
0.6069667,1036
0.6086333,957
0.6103,1115
0.6119667,849
0.6136333,825
0.6153,887
0.6169667,911
0.6186333,934
0.6203,900
0.6219667,865
0.6236333,1007
0.6253,1154
0.6269667,1109
0.6286333,992
0.6303,875
0.6319667,890
0.6336333,1093
0.6353,1213
0.6369666,1195
0.6386333,1176
0.6403,1207
0.6419666,1132
0.6436333,1089
0.6453,1009
0.6469667,909
0.6486334,1149
0.6503,1074
0.6519667,1184
0.6536334,949
0.6553,892
0.6569667,1042
0.6586334,1009
0.6603,1003
0.6619667,856
0.6636333,813
0.6653,962
0.6669667,864
0.6686333,1188
0.6703,1337
0.6719667,1367
0.6736333,1383
0.6753,1908
0.6769667,2088
0.6786333,2871
0.6803,3841
0.6819667,4255
0.6836333,5979
0.6853,7961
0.6869667,9192
0.6886333,12128
0.6903,13772
0.6919667,16544
0.6936333,19720
0.6953,21828
0.6969666,22580
0.6986333,23720
0.7003,27796
0.7019666,27332
0.7036333,27552
0.7053,27576
0.7069666,27488
0.7086333,27404
0.7103,26380
0.7119667,26508
0.7136334,25316
0.7153,25768
0.7169667,25148
0.7186334,25912
0.7203,24696
0.7219667,25468
0.7236333,23268
0.7253,22180
0.7269667,22168
0.7286333,20628
0.7303,19080
0.7319667,17228
0.7336333,15904
0.7353,14288
0.7369667,12560
0.7386333,10788
0.7403,9744
0.7419667,8748
0.7436333,7299
0.7453,5991
0.7469667,6006
0.7486333,5171
0.7503,4523
0.7519667,4325
0.7536333,3411
0.7553,3320
0.7569667,2718
0.7586333,2692
0.7603,2514
0.7619666,2171
0.7636333,2147
0.7653,1813
0.7669666,2045
0.7686333,2074
0.7703,1965
0.7719667,1836
0.7736334,2151
0.7753,2226
0.7769667,2771
0.7786334,2725
0.7803,3606
0.7819667,4633
0.7836334,6764
0.7853,8304
0.7869667,9028
0.7886333,11940
0.7903,14584
0.7919667,17208
0.7936333,20396
0.7953,24896
0.7969667,27292
0.7986333,30704
0.8003,32584
0.8019667,34720
0.8036333,36736
0.8053,39696
0.8069667,38304
0.8086333,38640
0.8103,37520
0.8119667,38032
0.8136333,37376
0.8153,37232
0.8169667,35072
0.8186333,34480
0.8203,35744
0.8219666,35344
0.8236333,34480
0.8253,32848
0.8269666,32312
0.8286333,32544
0.8303,31388
0.8319666,31404
0.8336333,29472
0.8353,27652
0.8369667,25112
0.8386334,25348
0.8403,23420
0.8419667,20088
0.8436334,18264
0.8453,15604
0.8469667,14760
0.8486333,12368
0.8503,11776
0.8519667,10220
0.8536333,8696
0.8553,8652
0.8569667,7027
0.8586333,6334
0.8603,5694
0.8619667,5031
0.8636333,4332
0.8653,4173
0.8669667,3813
0.8686333,3739
0.8703,3079
0.8719667,3076
0.8736333,2771
0.8753,2354
0.8769667,2361
0.8786333,2143
0.8803,2226
0.8819667,2368
0.8836333,2630
0.8853,2892
0.8869666,3135
0.8886333,2730
0.8903,2756
0.8919666,2892
0.8936333,2583
0.8953,2371
0.8969667,2545
0.8986334,2529
0.9003,2514
0.9019667,2138
0.9036334,2206
0.9053,2544
0.9069667,2171
0.9086334,2103
0.9103,2044
0.9119667,2234
0.9136333,1974
0.9153,1859
0.9169667,1924
0.9186333,1948
0.9203,1901
0.9219667,1853
0.9236333,1899
0.9253,1867
0.9269667,1836
0.9286333,1955
0.9303,1959
0.9319667,1748
0.9336333,1668
0.9353,1763
0.9369667,1724
0.9386333,1685
0.9403,1707
0.9419667,1730
0.9436333,1842
0.9453,1882
0.9469666,1578
0.9486333,2350
0.9503,2417
0.9519666,2240
0.9536333,2701
0.9553,3454
0.9569666,3837
0.9586333,4842
0.9603,5883
0.9619667,6553
0.9636334,7631
0.9653,10540
0.9669667,12112
0.9686334,14820
0.9703,17724
0.9719667,20904
0.9736333,24980
0.9753,27780
0.9769667,31480
0.9786333,34144
0.9803,36768
0.9819667,43184
0.9836333,45856
0.9853,47376
0.9869667,50224
0.9886333,51712
0.9903,54368
0.9919667,55360
0.9936333,54672
0.9953,55536
0.9969667,56304
0.9986333,54016
1.0003,55104
1.001967,53440
1.003633,54368
1.0053,52208
1.006967,52016
1.008633,53072
1.0103,51872
1.011967,52176
1.013633,51216
1.0153,52576
1.016967,51776
1.018633,51664
1.0203,53184
1.021967,50928
1.023633,52016
1.0253,50656
1.026967,47264
1.028633,46944
1.0303,44880
1.031967,42576
1.033633,39488
1.0353,37888
1.036967,34144
1.038633,32720
1.0403,29412
1.041967,29100
1.043633,24884
1.0453,22788
1.046967,20996
1.048633,20748
1.0503,18996
1.051967,17840
1.053633,16992
1.0553,16000
1.056967,17224
1.058633,16120
1.0603,16544
1.061967,16812
1.063633,16664
1.0653,17132
1.066967,17484
1.068633,17840
1.0703,19080
1.071967,18960
1.073633,19388
1.0753,19860
1.076967,20372
1.078633,20712
1.0803,20708
1.081967,19764
1.083633,21108
1.0853,20488
1.086967,20976
1.088633,20456
1.0903,19476
1.091967,20236
1.093633,20440
1.0953,19792
1.096967,20252
1.098633,20428
1.1003,19100
1.101967,18824
1.103633,18784
1.1053,19172
1.106967,19024
1.108633,18348
1.1103,17544
1.111967,17124
1.113633,17424
1.1153,16388
1.116967,17780
1.118633,16004
1.1203,15148
1.121967,14352
1.123633,14700
1.1253,14400
1.126967,12700
1.128633,12236
1.1303,12212
1.131967,10744
1.133633,10044
1.1353,9588
1.136967,9160
1.138633,8520
1.1403,7566
1.141967,7118
1.143633,7046
1.1453,6390
1.146967,6541
1.148633,5270
1.1503,5297
1.151967,4771
1.153633,4514
1.1553,4151
1.156967,4436
1.158633,4135
1.1603,3642
1.161967,3270
1.163633,3139
1.1653,3320
1.166967,3000
1.168633,3168
1.1703,2766
1.171967,2861
1.173633,2539
1.1753,2250
1.176967,2600
1.178633,2076
1.1803,2141
1.181967,2156
1.183633,2330
1.1853,1872
1.186967,2308
1.188633,2454
1.1903,2333
1.191967,2672
1.193633,2582
1.1953,2701
1.196967,2775
1.198633,2850
