"SampleName","A2Rd2_02-55"
"Target Mass 1",
"Column Name","IA-3 (3um, 4.6X100)"
"Channel","QDa 1: SIR Ch2"
0.00195,445
0.003616667,683
0.005283333,714
0.00695,582
0.008616666,1009
0.01028333,989
0.01195,866
0.01361667,1038
0.01528333,823
0.01695,945
0.01861667,1102
0.02028333,1093
0.02195,921
0.02361667,939
0.02528333,1002
0.02695,1015
0.02861667,985
0.03028333,761
0.03195,1148
0.03361667,1028
0.03528333,850
0.03695,1094
0.03861667,1042
0.04028333,1055
0.04195,880
0.04361667,878
0.04528333,1011
0.04695,1120
0.04861667,1011
0.05028334,903
0.05195,1020
0.05361667,1008
0.05528333,939
0.05695,892
0.05861667,951
0.06028333,957
0.06195,924
0.06361666,892
0.06528334,1032
0.06695,1010
0.06861667,988
0.07028333,1024
0.07195,895
0.07361667,876
0.07528333,936
0.07695,842
0.07861666,853
0.08028334,864
0.08195,853
0.08361667,1022
0.08528333,1028
0.08695,897
0.08861667,862
0.09028333,873
0.09195,867
0.09361666,860
0.09528334,883
0.09695,833
0.09861667,837
0.1002833,842
0.10195,865
0.1036167,910
0.1052833,955
0.10695,1107
0.1086167,1086
0.1102833,999
0.11195,901
0.1136167,985
0.1152833,825
0.11695,819
0.1186167,902
0.1202833,964
0.12195,951
0.1236167,1024
0.1252833,992
0.12695,795
0.1286167,1066
0.1302833,849
0.13195,945
0.1336167,860
0.1352833,914
0.13695,901
0.1386167,815
0.1402833,995
0.14195,1029
0.1436167,816
0.1452833,1079
0.14695,1023
0.1486167,869
0.1502833,1084
0.15195,876
0.1536167,989
0.1552833,1023
0.15695,898
0.1586167,826
0.1602833,796
0.16195,964
0.1636167,1008
0.1652833,855
0.16695,889
0.1686167,913
0.1702833,838
0.17195,796
0.1736167,794
0.1752833,910
0.17695,908
0.1786167,883
0.1802833,721
0.18195,950
0.1836167,1060
0.1852833,993
0.18695,873
0.1886167,901
0.1902833,1070
0.19195,1018
0.1936167,981
0.1952833,847
0.19695,1066
0.1986167,930
0.2002833,869
0.20195,1129
0.2036167,900
0.2052833,896
0.20695,850
0.2086167,975
0.2102833,985
0.21195,994
0.2136167,1003
0.2152833,997
0.21695,992
0.2186167,895
0.2202833,1139
0.22195,1172
0.2236167,873
0.2252833,1152
0.22695,994
0.2286167,987
0.2302833,1400
0.23195,1381
0.2336167,1386
0.2352833,1306
0.23695,1264
0.2386167,1168
0.2402833,1169
0.24195,1171
0.2436167,1071
0.2453,1159
0.24695,1246
0.2486167,1199
0.2502833,1015
0.25195,1184
0.2536167,1325
0.2552833,1246
0.25695,1198
0.2586167,1279
0.2602833,989
0.26195,1006
0.2636333,1010
0.2652833,1089
0.26695,1168
0.2686333,1189
0.2702833,1124
0.27195,1060
0.2736167,956
0.2752833,1241
0.27695,1172
0.2786167,1063
0.2803,1033
0.28195,1105
0.2836167,916
0.2852833,936
0.28695,1010
0.2886167,973
0.2902833,1011
0.29195,1081
0.2936167,1039
0.2952833,997
0.29695,998
0.2986333,1090
0.3002833,1172
0.3019667,1134
0.3036167,1089
0.3052833,1044
0.30695,1080
0.3086167,1116
0.3103,1058
0.31195,1000
0.3136167,1085
0.3153,1169
0.31695,1213
0.3186333,1256
0.3202833,1271
0.3219667,1162
0.3236167,1236
0.3252833,1268
0.3269667,1140
0.3286167,1142
0.3302833,1182
0.3319667,1165
0.3336333,1148
0.3353,1144
0.33695,1164
0.3386333,1185
0.3402833,1315
0.3419667,1182
0.3436333,1050
0.3453,1483
0.3469667,1532
0.3486333,1367
0.3503,1390
0.3519667,1304
0.3536333,1321
0.3553,1323
0.35695,1295
0.3586333,1266
0.3603,1289
0.3619667,1312
0.3636167,1625
0.3653,1973
0.3669667,2776
0.3686333,3385
0.3703,3275
0.3719667,3404
0.3736167,2825
0.3753,2760
0.3769667,2831
0.3786333,2818
0.3803,2841
0.3819667,2439
0.3836333,2575
0.3853,1930
0.3869667,1577
0.3886333,1334
0.3903,1104
0.3919667,1045
0.3936333,905
0.3953,643
0.3969667,557
0.3986333,605
0.4003,551
0.4019667,327
0.4036333,603
0.4053,338
0.4069667,419
0.4086333,588
0.4103,516
0.4119667,563
0.4136333,495
0.4153,607
0.4169667,602
0.4186333,597
0.4203,622
0.4219667,649
0.4236333,676
0.4253,667
0.4269667,658
0.4286333,626
0.4303,593
0.4319667,780
0.4336333,787
0.4353,793
0.4369667,756
0.4386333,849
0.4403,943
0.4419667,967
0.4436333,933
0.4453,1027
0.4469667,1043
0.4486333,1264
0.4503,1243
0.4519667,1187
0.4536333,884
0.4553,1010
0.4569667,1205
0.4586333,1198
0.4603,1269
0.4619667,1303
0.4636333,1256
0.4653,1288
0.4669667,1319
0.4686333,1352
0.4703,1335
0.4719667,1330
0.4736333,1179
0.4753,1306
0.4769667,1441
0.4786333,1419
0.4803,1397
0.4819667,1294
0.4836333,1211
0.4853,1415
0.4869667,1189
0.4886333,1071
0.4903,1187
0.4919667,1070
0.4936333,1041
0.4953,1053
0.4969667,995
0.4986333,1036
0.5003,965
0.5019667,800
0.5036333,1160
0.5053,1018
0.5069667,950
0.5086333,1111
0.5103,779
0.5119666,975
0.5136333,1064
0.5153,987
0.5169666,1075
0.5186333,901
0.5203,846
0.5219667,1182
0.5236334,1103
0.5253,857
0.5269667,894
0.5286334,974
0.5303,986
0.5319667,998
0.5336334,868
0.5353,990
0.5369667,910
0.5386333,993
0.5403,1042
0.5419667,1036
0.5436333,1030
0.5453,863
0.5469667,703
0.5486333,905
0.5503,1023
0.5519667,978
0.5536333,882
0.5553,786
0.5569667,1051
0.5586333,1124
0.5603,836
0.5619667,888
0.5636333,863
0.5653,862
0.5669667,848
0.5686333,834
0.5703,866
0.5719666,883
0.5736333,900
0.5753,969
0.5769666,904
0.5786333,839
0.5803,1001
0.5819666,874
0.5836333,955
0.5853,948
0.5869667,874
0.5886334,925
0.5903,875
0.5919667,824
0.5936334,863
0.5953,947
0.5969667,935
0.5986333,922
0.6003,1032
0.6019667,1071
0.6036333,773
0.6053,801
0.6069667,872
0.6086333,909
0.6103,945
0.6119667,916
0.6136333,887
0.6153,911
0.6169667,935
0.6186333,936
0.6203,936
0.6219667,846
0.6236333,1066
0.6253,1012
0.6269667,1096
0.6286333,1124
0.6303,1069
0.6319667,1015
0.6336333,1111
0.6353,894
0.6369666,1001
0.6386333,954
0.6403,1085
0.6419666,1069
0.6436333,1081
0.6453,984
0.6469667,949
0.6486334,1131
0.6503,1098
0.6519667,1065
0.6536334,1014
0.6553,1012
0.6569667,1010
0.6586334,757
0.6603,1183
0.6619667,1021
0.6636333,860
0.6653,1115
0.6669667,1094
0.6686333,1244
0.6703,1047
0.6719667,1359
0.6736333,1636
0.6753,2206
0.6769667,2653
0.6786333,3475
0.6803,4247
0.6819667,5485
0.6836333,7482
0.6853,8576
0.6869667,10344
0.6886333,12696
0.6903,15312
0.6919667,17108
0.6936333,18552
0.6953,21220
0.6969666,22412
0.6986333,24180
0.7003,23452
0.7019666,24644
0.7036333,24456
0.7053,24708
0.7069666,23816
0.7086333,22408
0.7103,23808
0.7119667,22628
0.7136334,22232
0.7153,22432
0.7169667,21500
0.7186334,22232
0.7203,20576
0.7219667,21296
0.7236333,19588
0.7253,19980
0.7269667,18728
0.7286333,17972
0.7303,16724
0.7319667,14704
0.7336333,13692
0.7353,11864
0.7369667,10928
0.7386333,8792
0.7403,8520
0.7419667,7769
0.7436333,6573
0.7453,5993
0.7469667,4880
0.7486333,4854
0.7503,4327
0.7519667,4037
0.7536333,3549
0.7553,3145
0.7569667,2667
0.7586333,2357
0.7603,2404
0.7619666,2314
0.7636333,1971
0.7653,2103
0.7669666,2036
0.7686333,1996
0.7703,1514
0.7719667,1973
0.7736334,2191
0.7753,2311
0.7769667,2707
0.7786334,3602
0.7803,4495
0.7819667,5419
0.7836334,6756
0.7853,8668
0.7869667,10512
0.7886333,12584
0.7903,15320
0.7919667,18356
0.7936333,20700
0.7953,24672
0.7969667,27620
0.7986333,29620
0.8003,31408
0.8019667,32800
0.8036333,33712
0.8053,33248
0.8069667,33008
0.8086333,32784
0.8103,33440
0.8119667,32616
0.8136333,29920
0.8153,30144
0.8169667,30912
0.8186333,29532
0.8203,29860
0.8219666,29484
0.8236333,28460
0.8253,29100
0.8269666,28588
0.8286333,28868
0.8303,28100
0.8319666,26816
0.8336333,25584
0.8353,24396
0.8369667,22928
0.8386334,19908
0.8403,18984
0.8419667,17024
0.8436334,15740
0.8453,14248
0.8469667,12484
0.8486333,10848
0.8503,10292
0.8519667,8624
0.8536333,8089
0.8553,7540
0.8569667,6133
0.8586333,6060
0.8603,4739
0.8619667,4748
0.8636333,4175
0.8653,3807
0.8669667,3370
0.8686333,3161
0.8703,2877
0.8719667,2698
0.8736333,2544
0.8753,2356
0.8769667,2670
0.8786333,2508
0.8803,2403
0.8819667,2480
0.8836333,2533
0.8853,2587
0.8869666,2492
0.8886333,2701
0.8903,2674
0.8919666,2827
0.8936333,2383
0.8953,2383
0.8969667,2394
0.8986334,2248
0.9003,1978
0.9019667,2157
0.9036334,2178
0.9053,2287
0.9069667,2162
0.9086334,2081
0.9103,2323
0.9119667,1848
0.9136333,2080
0.9153,1944
0.9169667,1976
0.9186333,1963
0.9203,1834
0.9219667,1807
0.9236333,1814
0.9253,1821
0.9269667,1943
0.9286333,1884
0.9303,1825
0.9319667,1961
0.9336333,1993
0.9353,1967
0.9369667,1589
0.9386333,2192
0.9403,1769
0.9419667,1964
0.9436333,1597
0.9453,2060
0.9469666,1802
0.9486333,2210
0.9503,2524
0.9519666,2596
0.9536333,2884
0.9553,3644
0.9569666,4334
0.9586333,5240
0.9603,5922
0.9619667,7273
0.9636334,9164
0.9653,10836
0.9669667,13788
0.9686334,15680
0.9703,18224
0.9719667,22092
0.9736333,26264
0.9753,27552
0.9769667,32580
0.9786333,36032
0.9803,39072
0.9819667,44256
0.9836333,46256
0.9853,49488
0.9869667,49376
0.9886333,49136
0.9903,52128
0.9919667,52400
0.9936333,51872
0.9953,52736
0.9969667,52240
0.9986333,51744
1.0003,50272
1.001967,49984
1.003633,49568
1.0053,50112
1.006967,48592
1.008633,48160
1.0103,49136
1.011967,49584
1.013633,47520
1.0153,48832
1.016967,46720
1.018633,48944
1.0203,46816
1.021967,47280
1.023633,45712
1.0253,46288
1.026967,44768
1.028633,44208
1.0303,41312
1.031967,39472
1.033633,36688
1.0353,34544
1.036967,32344
1.038633,29944
1.0403,27948
1.041967,26176
1.043633,23740
1.0453,23216
1.046967,21460
1.048633,19072
1.0503,18464
1.051967,17836
1.053633,17492
1.0553,15560
1.056967,15404
1.058633,16072
1.0603,15704
1.061967,16252
1.063633,16140
1.0653,17392
1.066967,17220
1.068633,17500
1.0703,16804
1.071967,18724
1.073633,18612
1.0753,19548
1.076967,18940
1.078633,19652
1.0803,19792
1.081967,19356
1.083633,19724
1.0853,19492
1.086967,18844
1.088633,18720
1.0903,18860
1.091967,18624
1.093633,17456
1.0953,18072
1.096967,17144
1.098633,16552
1.1003,16432
1.101967,17556
1.103633,17048
1.1053,17072
1.106967,16000
1.108633,17308
1.1103,16524
1.111967,15508
1.113633,16524
1.1153,14836
1.116967,15548
1.118633,15340
1.1203,14948
1.121967,13712
1.123633,12988
1.1253,13288
1.126967,12416
1.128633,11360
1.1303,11204
1.131967,10012
1.133633,9512
1.1353,8061
1.136967,8069
1.138633,7022
1.1403,7390
1.141967,6608
1.143633,7388
1.1453,5632
1.146967,5081
1.148633,5327
1.1503,5064
1.151967,4764
1.153633,4707
1.1553,4044
1.156967,3910
1.158633,3703
1.1603,3429
1.161967,3013
1.163633,2839
1.1653,3146
1.166967,2741
1.168633,2640
1.1703,2578
1.171967,2653
1.173633,2470
1.1753,2408
1.176967,2505
1.178633,2478
1.1803,2451
1.181967,2287
1.183633,2042
1.1853,2359
1.186967,2527
1.188633,2670
1.1903,2447
1.191967,2732
1.193633,2317
1.1953,2753
1.196967,2529
1.198633,2430
