"SampleName","A2Rd2_02-37"
"Target Mass 1",
"Column Name","IA-3 (3um, 4.6X100)"
"Channel","QDa 1: SIR Ch1"
0.00195,302
0.003616667,471
0.005283333,605
0.00695,381
0.008616666,424
0.01028333,466
0.01195,469
0.01361667,472
0.01528333,545
0.01695,667
0.01861667,616
0.02028333,533
0.02195,568
0.02361667,539
0.02528333,538
0.02695,537
0.02861667,529
0.03028333,521
0.03195,532
0.03361667,566
0.03528333,558
0.03695,550
0.03861667,576
0.04028333,523
0.04195,522
0.04361667,661
0.04528333,634
0.04695,520
0.04861667,698
0.05028334,585
0.05195,501
0.05361667,576
0.05528333,588
0.05695,600
0.05861667,579
0.06028333,558
0.06195,569
0.06361666,512
0.06528334,532
0.06695,553
0.06861667,393
0.07028333,401
0.07195,527
0.07361667,553
0.07528333,616
0.07695,600
0.07861666,707
0.08028334,662
0.08195,587
0.08361667,535
0.08528333,706
0.08695,519
0.08861667,534
0.09028333,739
0.09195,612
0.09361666,515
0.09528334,475
0.09695,597
0.09861667,568
0.1002833,650
0.10195,435
0.1036167,704
0.1052833,415
0.10695,505
0.1086167,479
0.1102833,575
0.11195,626
0.1136167,598
0.1152833,622
0.11695,444
0.1186167,580
0.1202833,507
0.12195,455
0.1236167,543
0.1252833,587
0.12695,596
0.1286167,604
0.1302833,482
0.13195,420
0.1336167,492
0.1352833,546
0.13695,519
0.1386167,374
0.1402833,551
0.14195,509
0.1436167,470
0.1452833,430
0.14695,447
0.1486167,532
0.1502833,354
0.15195,594
0.1536167,583
0.1552833,558
0.15695,504
0.1586167,568
0.1602833,491
0.16195,520
0.1636167,549
0.1652833,587
0.16695,562
0.1686167,698
0.1702833,389
0.17195,645
0.1736167,478
0.1752833,480
0.17695,672
0.1786167,502
0.1802833,482
0.18195,545
0.1836167,596
0.1852833,647
0.18695,572
0.1886167,533
0.1902833,533
0.19195,391
0.1936167,581
0.1952833,473
0.19695,459
0.1986167,629
0.2002833,569
0.20195,481
0.2036167,399
0.2052833,565
0.20695,475
0.2086167,384
0.2102833,563
0.21195,550
0.2136167,553
0.2152833,547
0.21695,546
0.2186167,560
0.2202833,575
0.22195,565
0.2236167,456
0.2252833,548
0.22695,388
0.2286167,531
0.2302833,472
0.23195,565
0.2336167,440
0.2352833,534
0.23695,446
0.2386167,505
0.2402833,564
0.24195,384
0.2436167,439
0.2452833,518
0.24695,537
0.2486167,577
0.2502833,554
0.25195,532
0.2536167,534
0.2552833,453
0.25695,445
0.2586167,437
0.2602833,425
0.26195,566
0.2636333,478
0.2652833,390
0.26695,621
0.2686167,567
0.2702833,404
0.27195,547
0.2736167,599
0.2752833,402
0.27695,653
0.2786167,504
0.2803,456
0.28195,623
0.2836333,398
0.2852833,352
0.28695,577
0.2886167,523
0.2902833,561
0.29195,580
0.2936167,534
0.2952833,492
0.29695,569
0.2986333,517
0.3002833,619
0.30195,592
0.3036167,566
0.3052833,615
0.30695,579
0.3086167,543
0.3102833,608
0.31195,567
0.3136167,527
0.3153,581
0.31695,613
0.3186167,620
0.3202833,469
0.32195,630
0.3236167,616
0.3252833,603
0.32695,432
0.3286167,505
0.3302833,433
0.33195,413
0.3336333,480
0.3352833,546
0.3369667,321
0.3386167,605
0.3402833,453
0.34195,525
0.3436167,353
0.3452833,581
0.34695,599
0.3486167,534
0.3503,526
0.35195,548
0.3536333,524
0.3552833,443
0.3569667,540
0.3586167,555
0.3602833,553
0.3619667,552
0.3636333,924
0.3653,1131
0.3669667,1995
0.3686333,3431
0.3703,3934
0.3719667,4350
0.3736333,4924
0.3752833,4860
0.3769667,5044
0.3786167,5227
0.3803,5468
0.3819667,5490
0.3836333,5512
0.3853,5082
0.3869667,3724
0.3886333,4131
0.3903,3081
0.3919667,2546
0.3936333,1717
0.3953,1589
0.3969667,1523
0.3986333,1306
0.4003,1158
0.40195,1034
0.4036333,1081
0.4053,1014
0.4069667,1112
0.4086167,939
0.4103,1077
0.4119667,1053
0.4136333,1260
0.4153,1238
0.4169667,1060
0.4186333,1104
0.4203,894
0.4219667,1232
0.4236333,1227
0.4253,1300
0.4269667,1101
0.4286333,1089
0.4303,1053
0.4319667,1553
0.4336333,2047
0.4353,2312
0.4369667,3638
0.4386333,5736
0.4403,9660
0.4419667,15148
0.4436333,22020
0.4453,31732
0.4469667,45408
0.4486333,59440
0.4503,73920
0.4519667,87712
0.4536333,105312
0.4553,114544
0.4569667,125920
0.4586333,136832
0.4603,141184
0.4619667,150144
0.4636333,152064
0.4653,156544
0.4669667,160192
0.4686333,165568
0.4703,171648
0.4719667,180800
0.4736333,192512
0.4753,196416
0.4769667,201920
0.4786333,199744
0.4803,198208
0.4819667,192320
0.4836333,178240
0.4853,161792
0.4869667,144448
0.4886333,128320
0.4903,109312
0.4919667,90608
0.4936333,75296
0.4953,64848
0.4969667,49840
0.4986333,41040
0.5003,31748
0.5019667,26432
0.5036333,20076
0.5053,16420
0.5069667,13292
0.5086333,11932
0.5103,9396
0.5119666,7448
0.5136333,6946
0.5153,5721
0.5169666,5175
0.5186333,4798
0.5203,4122
0.5219667,3630
0.5236334,3854
0.5253,3597
0.5269667,3454
0.5286334,3533
0.5303,2942
0.5319667,2768
0.5336334,2555
0.5353,2569
0.5369667,2833
0.5386333,2572
0.5403,2373
0.5419667,2450
0.5436333,2163
0.5453,2484
0.5469667,2189
0.5486333,1822
0.5503,1927
0.5519667,1923
0.5536333,1919
0.5553,1938
0.5569667,1797
0.5586333,1779
0.5603,1735
0.5619667,1718
0.5636333,1382
0.5653,1547
0.5669667,1465
0.5686333,1471
0.5703,1453
0.5719666,1408
0.5736333,1182
0.5753,1320
0.5769666,1336
0.5786333,1352
0.5803,1268
0.5819666,1183
0.5836333,1399
0.5853,1184
0.5869667,1170
0.5886334,1585
0.5903,1460
0.5919667,1461
0.5936334,1369
0.5953,1505
0.5969667,1560
0.5986333,1469
0.6003,1348
0.6019667,1417
0.6036333,1442
0.6053,1407
0.6069667,1365
0.6086333,1335
0.6103,1360
0.6119667,1148
0.6136333,1063
0.6153,1374
0.6169667,1236
0.6186333,1006
0.6203,1190
0.6219667,1281
0.6236333,1139
0.6253,1252
0.6269667,1201
0.6286333,956
0.6303,1088
0.6319667,1152
0.6336333,972
0.6353,1105
0.6369666,1025
0.6386333,945
0.6403,889
0.6419666,1048
0.6436333,953
0.6453,906
0.6469667,805
0.6486334,805
0.6503,806
0.6519667,833
0.6536334,829
0.6553,824
0.6569667,903
0.6586334,900
0.6603,898
0.6619667,954
0.6636333,765
0.6653,837
0.6669667,902
0.6686333,964
0.6703,937
0.6719667,799
0.6736333,668
0.6753,930
0.6769667,588
0.6786333,600
0.6803,639
0.6819667,690
0.6836333,814
0.6853,815
0.6869667,935
0.6886333,851
0.6903,803
0.6919667,810
0.6936333,759
0.6953,779
0.6969666,638
0.6986333,996
0.7003,901
0.7019666,760
0.7036333,803
0.7053,774
0.7069666,745
0.7086333,773
0.7103,800
0.7119667,782
0.7136334,715
0.7153,787
0.7169667,665
0.7186334,857
0.7203,957
0.7219667,860
0.7236333,515
0.7253,902
0.7269667,729
0.7286333,817
0.7303,753
0.7319667,866
0.7336333,639
0.7353,801
0.7369667,605
0.7386333,711
0.7403,693
0.7419667,882
0.7436333,943
0.7453,743
0.7469667,943
0.7486333,903
0.7503,699
0.7519667,655
0.7536333,811
0.7553,742
0.7569667,783
0.7586333,825
0.7603,781
0.7619666,737
0.7636333,714
0.7653,805
0.7669666,855
0.7686333,801
0.7703,800
0.7719667,810
0.7736334,820
0.7753,766
0.7769667,687
0.7786334,744
0.7803,777
0.7819667,810
0.7836334,822
0.7853,773
0.7869667,915
0.7886333,632
0.7903,841
0.7919667,866
0.7936333,943
0.7953,849
0.7969667,734
0.7986333,583
0.8003,1037
0.8019667,949
0.8036333,848
0.8053,787
0.8069667,891
0.8086333,910
0.8103,901
0.8119667,893
0.8136333,929
0.8153,1003
0.8169667,993
0.8186333,812
0.8203,908
0.8219666,865
0.8236333,945
0.8253,891
0.8269666,882
0.8286333,896
0.8303,910
0.8319666,828
0.8336333,841
0.8353,1014
0.8369667,940
0.8386334,867
0.8403,941
0.8419667,936
0.8436334,913
0.8453,894
0.8469667,915
0.8486333,937
0.8503,864
0.8519667,938
0.8536333,976
0.8553,824
0.8569667,889
0.8586333,1004
0.8603,873
0.8619667,878
0.8636333,745
0.8653,1027
0.8669667,947
0.8686333,844
0.8703,716
0.8719667,763
0.8736333,1001
0.8753,956
0.8769667,1065
0.8786333,1537
0.8803,2007
0.8819667,2514
0.8836333,2649
0.8853,2866
0.8869666,3447
0.8886333,3707
0.8903,3915
0.8919666,4115
0.8936333,4070
0.8953,4025
0.8969667,4063
0.8986334,4004
0.9003,3945
0.9019667,3978
0.9036334,3906
0.9053,3726
0.9069667,3972
0.9086334,3867
0.9103,3763
0.9119667,3672
0.9136333,4085
0.9153,4150
0.9169667,3729
0.9186333,3781
0.9203,3976
0.9219667,3956
0.9236333,3726
0.9253,3495
0.9269667,3894
0.9286333,3976
0.9303,3688
0.9319667,3330
0.9336333,3522
0.9353,3779
0.9369667,3250
0.9386333,3419
0.9403,3169
0.9419667,2984
0.9436333,3291
0.9453,3166
0.9469666,2875
0.9486333,2962
0.9503,3063
0.9519666,2865
0.9536333,2608
0.9553,2576
0.9569666,2015
0.9586333,2387
0.9603,2100
0.9619667,1932
0.9636334,1904
0.9653,1892
0.9669667,1719
0.9686334,1420
0.9703,1522
0.9719667,1581
0.9736333,1413
0.9753,1358
0.9769667,1236
0.9786333,1381
0.9803,1178
0.9819667,1194
0.9836333,953
0.9853,965
0.9869667,863
0.9886333,837
0.9903,661
0.9919667,757
0.9936333,864
0.9953,735
0.9969667,877
0.9986333,681
1.0003,556
1.001967,626
1.003633,672
1.0053,516
1.006967,531
1.008633,730
1.0103,822
1.011967,635
1.013633,651
1.0153,648
1.016967,643
1.018633,664
1.0203,607
1.021967,632
1.023633,619
1.0253,606
1.026967,578
1.028633,645
1.0303,667
1.031967,629
1.033633,651
1.0353,630
1.036967,643
1.038633,654
1.0403,664
1.041967,520
1.043633,657
1.0453,651
1.046967,765
1.048633,726
1.0503,673
1.051967,770
1.053633,615
1.0553,656
1.056967,676
1.058633,661
1.0603,646
1.061967,724
1.063633,723
1.0653,742
1.066967,666
1.068633,684
1.0703,767
1.071967,623
1.073633,678
1.0753,680
1.076967,715
1.078633,750
1.0803,607
1.081967,494
1.083633,792
1.0853,826
1.086967,774
1.088633,653
1.0903,529
1.091967,707
1.093633,578
1.0953,581
1.096967,694
1.098633,659
1.1003,647
1.101967,635
1.103633,649
1.1053,660
1.106967,716
1.108633,708
1.1103,700
1.111967,565
1.113633,615
1.1153,707
1.116967,639
1.118633,616
1.1203,594
1.121967,663
1.123633,671
1.1253,680
1.126967,753
1.128633,755
1.1303,710
1.131967,674
1.133633,657
1.1353,701
1.136967,685
1.138633,680
1.1403,675
1.141967,677
1.143633,680
1.1453,684
1.146967,679
1.148633,675
1.1503,733
1.151967,792
1.153633,762
1.1553,748
1.156967,800
1.158633,724
1.1603,811
1.161967,778
1.163633,801
1.1653,824
1.166967,787
1.168633,749
1.1703,769
1.171967,790
1.173633,655
1.1753,835
1.176967,831
1.178633,838
1.1803,845
1.181967,897
1.183633,936
1.1853,883
1.186967,829
1.188633,885
1.1903,885
1.191967,884
1.193633,853
1.1953,821
1.196967,772
1.198633,834
