"SampleName","A2Rd2_02-93"
"Target Mass 1",
"Column Name","IA-3 (3um, 4.6X100)"
"Channel","QDa 1: SIR Ch2"
0.00195,556
0.003616667,614
0.005283333,907
0.00695,968
0.008616666,785
0.01028333,1065
0.01195,985
0.01361667,970
0.01528333,1061
0.01695,943
0.01861667,919
0.02028333,975
0.02195,925
0.02361667,875
0.02528333,986
0.02695,882
0.02861667,862
0.03028333,930
0.03195,999
0.03361667,956
0.03528333,926
0.03695,898
0.03861667,1146
0.04028333,1119
0.04195,1164
0.04361667,1123
0.04528333,1247
0.04695,1228
0.04861667,1205
0.05028334,1077
0.05195,1120
0.05361667,1030
0.05528333,1133
0.05695,1027
0.05861667,1098
0.06028333,1021
0.06195,1014
0.06361666,1092
0.06528334,1075
0.06695,1059
0.06861667,1082
0.07028333,1105
0.07195,1011
0.07361667,1078
0.07528333,975
0.07695,1047
0.07861666,1124
0.08028334,1052
0.08195,979
0.08361667,966
0.08528333,952
0.08695,1118
0.08861667,1127
0.09028333,988
0.09195,867
0.09361666,1058
0.09528334,962
0.09695,931
0.09861667,958
0.1002833,986
0.10195,1037
0.1036167,975
0.1052833,914
0.10695,1005
0.1086167,941
0.1102833,969
0.11195,1060
0.1136167,999
0.1152833,938
0.11695,1050
0.1186167,1006
0.1202833,918
0.12195,1025
0.1236167,1024
0.1252833,1050
0.12695,1050
0.1286167,1050
0.1302833,1033
0.13195,1014
0.1336167,993
0.1352833,1082
0.13695,913
0.1386167,846
0.1402833,826
0.14195,806
0.1436167,875
0.1452833,943
0.14695,855
0.1486167,767
0.1502833,800
0.15195,833
0.1536167,859
0.1552833,870
0.15695,1135
0.1586167,1145
0.1602833,983
0.16195,1139
0.1636167,900
0.1652833,983
0.16695,1044
0.1686167,979
0.1702833,839
0.17195,756
0.1736167,970
0.1753,900
0.17695,876
0.1786167,915
0.1802833,1013
0.18195,1031
0.1836167,967
0.1852833,906
0.18695,987
0.1886167,1025
0.1902833,1062
0.19195,1041
0.1936333,1049
0.1952833,951
0.19695,1007
0.1986167,953
0.2002833,947
0.20195,941
0.2036167,989
0.2052833,880
0.20695,1162
0.2086167,1126
0.2103,1070
0.2119667,816
0.2136167,942
0.2152833,1076
0.21695,1105
0.2186167,991
0.2203,1206
0.22195,1263
0.2236167,1099
0.2252833,1288
0.22695,977
0.2286333,1433
0.2302833,1282
0.2319667,1305
0.2336167,1102
0.2352833,1218
0.2369667,1334
0.2386167,1360
0.2402833,1411
0.24195,1218
0.2436167,1178
0.2453,1260
0.24695,1294
0.2486333,1328
0.2502833,1310
0.2519667,1299
0.2536333,1286
0.2552833,1273
0.25695,1305
0.2586167,1306
0.2603,1307
0.2619667,1318
0.2636333,1333
0.2653,1454
0.2669667,1123
0.2686333,1265
0.2703,1348
0.2719667,1119
0.2736333,1364
0.2753,1121
0.27695,1392
0.2786333,1236
0.2803,1244
0.2819667,1214
0.2836333,982
0.2853,1201
0.2869667,1135
0.2886333,1140
0.2903,1104
0.2919667,1139
0.2936333,1174
0.2953,1329
0.2969667,1367
0.2986333,1416
0.3003,1166
0.3019667,967
0.3036333,1389
0.3053,1287
0.3069667,1177
0.3086333,1295
0.3103,1114
0.3119667,1127
0.3136333,1154
0.3153,1162
0.3169667,1169
0.3186333,1124
0.3203,1262
0.3219667,1194
0.3236333,1127
0.3253,1486
0.3269667,1609
0.3286333,1521
0.3303,1327
0.3319667,1309
0.3336333,1456
0.3353,1461
0.3369667,1420
0.3386333,1529
0.3403,1356
0.3419667,1256
0.3436333,1500
0.3453,1144
0.3469667,1190
0.3486333,1269
0.3503,1204
0.3519667,1241
0.3536333,1279
0.3553,1165
0.3569667,1323
0.3586333,1232
0.3603,1346
0.3619667,1319
0.3636333,1824
0.3653,2166
0.3669667,3034
0.3686333,3616
0.3703,3566
0.3719667,3362
0.3736333,3003
0.3753,3467
0.3769667,2851
0.3786333,3301
0.3803,3142
0.3819667,2900
0.3836333,2728
0.3853,2001
0.3869667,1745
0.3886333,1735
0.3903,1320
0.3919667,1044
0.3936333,970
0.3953,496
0.3969667,653
0.3986333,664
0.4003,641
0.4019667,506
0.4036333,504
0.4053,543
0.4069667,545
0.4086333,558
0.4103,571
0.4119667,476
0.4136333,567
0.4153,649
0.4169667,645
0.4186333,693
0.4203,566
0.4219667,761
0.4236333,785
0.4253,733
0.4269667,814
0.4286333,683
0.4303,669
0.4319667,767
0.4336333,967
0.4353,1118
0.4369667,1053
0.4386333,1131
0.4403,961
0.4419667,914
0.4436333,867
0.4453,1094
0.4469667,979
0.4486333,863
0.4503,1031
0.4519667,1200
0.4536333,1304
0.4553,1197
0.4569667,1331
0.4586333,1345
0.4603,1450
0.4619667,1389
0.4636333,1328
0.4653,1607
0.4669667,1623
0.4686333,1240
0.4703,1510
0.4719667,1312
0.4736333,1344
0.4753,1438
0.4769667,1296
0.4786333,1549
0.4803,1547
0.4819667,1419
0.4836333,1499
0.4853,1481
0.4869667,1478
0.4886333,1460
0.4903,1249
0.4919667,1302
0.4936333,1235
0.4953,1173
0.4969667,1326
0.4986333,1341
0.5003,1002
0.5019667,1015
0.5036333,1170
0.5053,1124
0.5069667,1095
0.5086333,949
0.5103,1054
0.5119666,920
0.5136333,980
0.5153,934
0.5169666,867
0.5186333,800
0.5203,992
0.5219667,964
0.5236334,1074
0.5253,1144
0.5269667,1098
0.5286334,1189
0.5303,994
0.5319667,1151
0.5336334,1110
0.5353,1140
0.5369667,1098
0.5386333,1118
0.5403,1004
0.5419667,1065
0.5436333,969
0.5453,942
0.5469667,1103
0.5486333,1145
0.5503,1219
0.5519667,941
0.5536333,1038
0.5553,1048
0.5569667,919
0.5586333,1130
0.5603,1014
0.5619667,1135
0.5636333,1087
0.5653,1047
0.5669667,1079
0.5686333,1177
0.5703,874
0.5719666,918
0.5736333,1010
0.5753,1030
0.5769666,1076
0.5786333,1122
0.5803,906
0.5819666,899
0.5836333,962
0.5853,1025
0.5869667,991
0.5886334,1068
0.5903,907
0.5919667,1179
0.5936334,1073
0.5953,912
0.5969667,1012
0.5986333,1003
0.6003,1109
0.6019667,1038
0.6036333,1010
0.6053,1002
0.6069667,1031
0.6086333,834
0.6103,1098
0.6119667,817
0.6136333,960
0.6153,1003
0.6169667,1113
0.6186333,1075
0.6203,969
0.6219667,1098
0.6236333,999
0.6253,1142
0.6269667,924
0.6286333,928
0.6303,933
0.6319667,925
0.6336333,918
0.6353,961
0.6369666,960
0.6386333,958
0.6403,945
0.6419666,906
0.6436333,867
0.6453,1070
0.6469667,1118
0.6486334,904
0.6503,1024
0.6519667,1017
0.6536334,814
0.6553,992
0.6569667,837
0.6586334,975
0.6603,1004
0.6619667,804
0.6636333,847
0.6653,875
0.6669667,947
0.6686333,964
0.6703,981
0.6719667,873
0.6736333,997
0.6753,917
0.6769667,1289
0.6786333,1253
0.6803,1591
0.6819667,1895
0.6836333,2120
0.6853,2653
0.6869667,3065
0.6886333,3949
0.6903,3814
0.6919667,3970
0.6936333,4174
0.6953,4378
0.6969666,5141
0.6986333,5601
0.7003,4956
0.7019666,5185
0.7036333,5549
0.7053,4616
0.7069666,5594
0.7086333,4729
0.7103,4489
0.7119667,4350
0.7136334,4763
0.7153,4644
0.7169667,4223
0.7186334,4330
0.7203,4211
0.7219667,3949
0.7236333,4127
0.7253,4200
0.7269667,3840
0.7286333,4022
0.7303,4222
0.7319667,3264
0.7336333,3611
0.7353,3275
0.7369667,3031
0.7386333,2742
0.7403,2513
0.7419667,2134
0.7436333,2443
0.7453,2139
0.7469667,1692
0.7486333,1937
0.7503,2009
0.7519667,1656
0.7536333,1488
0.7553,1412
0.7569667,1433
0.7586333,1190
0.7603,1275
0.7619666,1250
0.7636333,1234
0.7653,1218
0.7669666,1111
0.7686333,1286
0.7703,1318
0.7719667,1226
0.7736334,1484
0.7753,1549
0.7769667,1700
0.7786334,1775
0.7803,2187
0.7819667,2468
0.7836334,2444
0.7853,3385
0.7869667,4013
0.7886333,4572
0.7903,5535
0.7919667,5939
0.7936333,6596
0.7953,7754
0.7969667,8524
0.7986333,9072
0.8003,9868
0.8019667,9656
0.8036333,10332
0.8053,10232
0.8069667,10032
0.8086333,10024
0.8103,9120
0.8119667,9444
0.8136333,8656
0.8153,9012
0.8169667,7984
0.8186333,7988
0.8203,7916
0.8219666,7781
0.8236333,7737
0.8253,7291
0.8269666,7219
0.8286333,7057
0.8303,7262
0.8319666,7221
0.8336333,6723
0.8353,6485
0.8369667,6875
0.8386334,6522
0.8403,6118
0.8419667,5711
0.8436334,5934
0.8453,5025
0.8469667,4525
0.8486333,4302
0.8503,3928
0.8519667,3579
0.8536333,3094
0.8553,3250
0.8569667,2612
0.8586333,2580
0.8603,2190
0.8619667,2256
0.8636333,2144
0.8653,1968
0.8669667,2018
0.8686333,1609
0.8703,1584
0.8719667,1390
0.8736333,1546
0.8753,1571
0.8769667,1562
0.8786333,1611
0.8803,1659
0.8819667,1805
0.8836333,1826
0.8853,1754
0.8869666,1682
0.8886333,1730
0.8903,1778
0.8919666,1800
0.8936333,1822
0.8953,1651
0.8969667,1788
0.8986334,1649
0.9003,1629
0.9019667,1846
0.9036334,1744
0.9053,1881
0.9069667,1658
0.9086334,1381
0.9103,1497
0.9119667,1719
0.9136333,1658
0.9153,1740
0.9169667,1574
0.9186333,1624
0.9203,1815
0.9219667,1467
0.9236333,1689
0.9253,1315
0.9269667,1579
0.9286333,1481
0.9303,1559
0.9319667,1493
0.9336333,1584
0.9353,1475
0.9369667,1529
0.9386333,1566
0.9403,1652
0.9419667,1331
0.9436333,1586
0.9453,1565
0.9469666,1350
0.9486333,1658
0.9503,1752
0.9519666,1560
0.9536333,1804
0.9553,1905
0.9569666,1955
0.9586333,2048
0.9603,2124
0.9619667,2395
0.9636334,2998
0.9653,3290
0.9669667,3005
0.9686334,3590
0.9703,4428
0.9719667,4826
0.9736333,4548
0.9753,5570
0.9769667,6042
0.9786333,6454
0.9803,7016
0.9819667,8208
0.9836333,8143
0.9853,8356
0.9869667,8404
0.9886333,8099
0.9903,8492
0.9919667,8384
0.9936333,8744
0.9953,8584
0.9969667,8852
0.9986333,7887
1.0003,7341
1.001967,7359
1.003633,7511
1.0053,7663
1.006967,7638
1.008633,6428
1.0103,7137
1.011967,6961
1.013633,6658
1.0153,6653
1.016967,6862
1.018633,6568
1.0203,6607
1.021967,6656
1.023633,6793
1.0253,6892
1.026967,6992
1.028633,6371
1.0303,6803
1.031967,6038
1.033633,5458
1.0353,5920
1.036967,5652
1.038633,5136
1.0403,4927
1.041967,4502
1.043633,4679
1.0453,4595
1.046967,4631
1.048633,3873
1.0503,3795
1.051967,3934
1.053633,3594
1.0553,3759
1.056967,3705
1.058633,3686
1.0603,4038
1.061967,3324
1.063633,3552
1.0653,4182
1.066967,3845
1.068633,4210
1.0703,4383
1.071967,4325
1.073633,4501
1.0753,4115
1.076967,4588
1.078633,4500
1.0803,3985
1.081967,4376
1.083633,4278
1.0853,4328
1.086967,4383
1.088633,4141
1.0903,4142
1.091967,4272
1.093633,4114
1.0953,4366
1.096967,3452
1.098633,3567
1.1003,3629
1.101967,3591
1.103633,3069
1.1053,3630
1.106967,3952
1.108633,3538
1.1103,3664
1.111967,3769
1.113633,3474
1.1153,3445
1.116967,2905
1.118633,3178
1.1203,3257
1.121967,3143
1.123633,3040
1.1253,2744
1.126967,2768
1.128633,3107
1.1303,2776
1.131967,2896
1.133633,2560
1.1353,2547
1.136967,2335
1.138633,2504
1.1403,1942
1.141967,2226
1.143633,2001
1.1453,1921
1.146967,1954
1.148633,1808
1.1503,2064
1.151967,1745
1.153633,1385
1.1553,1424
1.156967,1579
1.158633,1541
1.1603,1586
1.161967,1409
1.163633,1427
1.1653,1402
1.166967,1468
1.168633,1088
1.1703,1198
1.171967,1160
1.173633,1205
1.1753,1097
1.176967,1158
1.178633,1190
1.1803,1100
1.181967,1010
1.183633,1325
1.1853,1311
1.186967,1136
1.188633,1351
1.1903,1071
1.191967,1162
1.193633,1296
1.1953,1159
1.196967,1267
1.198633,1260
