"SampleName","A2Rd2_02-96"
"Target Mass 1",
"Column Name","IA-3 (3um, 4.6X100)"
"Channel","QDa 1: SIR Ch1"
0.00195,367
0.003616667,567
0.005283333,549
0.00695,614
0.008616666,619
0.01028333,509
0.01195,540
0.01361667,640
0.01528333,553
0.01695,458
0.01861667,643
0.02028333,639
0.02195,587
0.02361667,855
0.02528333,798
0.02695,605
0.02861667,581
0.03028333,707
0.03195,568
0.03361667,510
0.03528333,620
0.03695,638
0.03861667,571
0.04028333,505
0.04195,546
0.04361667,435
0.04528333,505
0.04695,575
0.04861667,464
0.05028334,557
0.05195,396
0.05361667,579
0.05528333,682
0.05695,742
0.05861667,561
0.06028333,455
0.06195,587
0.06361666,588
0.06528334,599
0.06695,604
0.06861667,473
0.07028333,476
0.07195,538
0.07361667,599
0.07528333,614
0.07695,459
0.07861666,656
0.08028334,554
0.08195,582
0.08361667,515
0.08528333,566
0.08695,497
0.08861667,583
0.09028333,559
0.09195,521
0.09361666,562
0.09528334,455
0.09695,469
0.09861667,553
0.1002833,539
0.10195,612
0.1036167,656
0.1052833,698
0.10695,505
0.1086167,505
0.1102833,504
0.11195,565
0.1136167,537
0.1152833,508
0.11695,573
0.1186167,588
0.1202833,609
0.12195,511
0.1236167,515
0.1252833,519
0.12695,472
0.1286167,472
0.1302833,498
0.13195,515
0.1336167,532
0.1352833,549
0.13695,537
0.1386167,643
0.1402833,605
0.14195,566
0.1436167,536
0.1452833,519
0.14695,484
0.1486167,645
0.1502833,654
0.15195,476
0.1536167,578
0.1552833,377
0.15695,392
0.1586167,538
0.1602833,642
0.16195,667
0.1636167,635
0.1652833,487
0.16695,600
0.1686167,542
0.1702833,533
0.17195,618
0.1736167,523
0.1752833,621
0.17695,559
0.1786167,543
0.1802833,631
0.18195,446
0.1836167,531
0.1852833,590
0.18695,602
0.1886167,451
0.1902833,608
0.19195,493
0.1936167,479
0.1952833,661
0.19695,592
0.1986167,523
0.2002833,662
0.20195,535
0.2036167,653
0.2052833,453
0.20695,602
0.2086167,576
0.2102833,613
0.21195,702
0.2136167,477
0.2152833,540
0.21695,382
0.2186167,593
0.2202833,564
0.22195,643
0.2236167,539
0.2252833,495
0.22695,504
0.2286167,490
0.2302833,485
0.23195,480
0.2336167,442
0.2352833,499
0.23695,553
0.2386167,604
0.2402833,581
0.24195,400
0.2436167,598
0.2452833,486
0.24695,566
0.2486167,426
0.2502833,525
0.25195,513
0.2536167,426
0.2552833,465
0.25695,505
0.2586167,650
0.2602833,606
0.26195,632
0.2636333,629
0.2652833,605
0.26695,499
0.2686167,371
0.2702833,646
0.27195,651
0.2736167,600
0.2752833,548
0.27695,591
0.2786167,634
0.2803,461
0.28195,514
0.2836167,535
0.2852833,544
0.28695,592
0.2886167,607
0.2902833,524
0.29195,547
0.2936167,616
0.2952833,484
0.29695,607
0.2986333,695
0.3002833,576
0.30195,540
0.3036167,531
0.3052833,725
0.30695,747
0.3086167,510
0.3102833,662
0.31195,500
0.3136167,629
0.3153,423
0.31695,472
0.3186167,570
0.3202833,601
0.3219667,584
0.3236167,586
0.3252833,553
0.32695,504
0.3286167,651
0.3302833,662
0.3319667,571
0.3336333,565
0.3352833,719
0.33695,665
0.3386167,575
0.3403,484
0.34195,667
0.3436167,646
0.3452833,633
0.34695,609
0.3486333,536
0.3503,539
0.35195,402
0.3536167,483
0.3552833,612
0.3569667,661
0.3586167,730
0.3602833,709
0.36195,745
0.3636333,831
0.3653,1233
0.36695,1547
0.3686333,2159
0.3702833,3091
0.3719667,3361
0.3736333,3753
0.3752833,3429
0.37695,3462
0.3786333,3625
0.3802833,3638
0.3819667,3652
0.3836167,3683
0.3853,3715
0.3869667,3101
0.3886333,3744
0.3903,3408
0.3919667,2710
0.3936167,2421
0.3952833,1891
0.3969667,1660
0.3986333,1633
0.4003,1458
0.40195,1510
0.4036333,1641
0.4052833,1377
0.4069667,1216
0.4086167,1290
0.4103,1415
0.4119667,1321
0.4136333,1227
0.4153,1400
0.4169667,1401
0.4186333,1422
0.4203,1473
0.4219667,1426
0.4236333,1380
0.4253,1390
0.4269667,1399
0.4286333,1392
0.4303,1513
0.4319667,1899
0.4336333,2285
0.4353,2774
0.4369667,3847
0.4386333,6224
0.4403,10484
0.4419667,17676
0.4436333,27136
0.4453,40160
0.4469667,58096
0.4486333,73104
0.4503,91120
0.4519667,112064
0.4536333,129520
0.4553,146688
0.4569667,157504
0.4586333,166592
0.4603,171584
0.4619667,172864
0.4636333,176512
0.4653,176832
0.4669667,173824
0.4686333,173696
0.4703,175296
0.4719667,172864
0.4736333,173824
0.4753,180544
0.4769667,187136
0.4786333,187712
0.4803,191488
0.4819667,190400
0.4836333,183424
0.4853,173312
0.4869667,164224
0.4886333,149952
0.4903,138240
0.4919667,117728
0.4936333,104864
0.4953,90880
0.4969667,74928
0.4986333,62960
0.5003,51760
0.5019667,41632
0.5036333,33824
0.5053,28944
0.5069667,23240
0.5086333,19860
0.5103,15728
0.5119666,13512
0.5136333,11540
0.5153,9620
0.5169666,9092
0.5186333,7483
0.5203,6739
0.5219667,5636
0.5236334,5275
0.5253,4581
0.5269667,4970
0.5286334,4245
0.5303,3841
0.5319667,3586
0.5336334,3511
0.5353,3136
0.5369667,3008
0.5386333,2938
0.5403,2755
0.5419667,2507
0.5436333,2554
0.5453,2398
0.5469667,2526
0.5486333,2122
0.5503,2244
0.5519667,2080
0.5536333,2328
0.5553,1651
0.5569667,1745
0.5586333,2154
0.5603,1677
0.5619667,1710
0.5636333,1701
0.5653,1702
0.5669667,1703
0.5686333,1459
0.5703,1629
0.5719666,1803
0.5736333,1690
0.5753,1521
0.5769666,1305
0.5786333,1313
0.5803,1434
0.5819666,1312
0.5836333,1365
0.5853,1420
0.5869667,1392
0.5886334,1527
0.5903,1508
0.5919667,1318
0.5936334,1515
0.5953,1511
0.5969667,1570
0.5986333,1481
0.6003,1392
0.6019667,1630
0.6036333,1407
0.6053,1474
0.6069667,1659
0.6086333,1540
0.6103,1461
0.6119667,1507
0.6136333,1304
0.6153,1344
0.6169667,1180
0.6186333,1268
0.6203,1242
0.6219667,1195
0.6236333,1147
0.6253,1272
0.6269667,1032
0.6286333,1253
0.6303,1061
0.6319667,1133
0.6336333,1159
0.6353,1140
0.6369666,1121
0.6386333,981
0.6403,1221
0.6419666,1310
0.6436333,1019
0.6453,1137
0.6469667,1085
0.6486334,990
0.6503,881
0.6519667,944
0.6536334,858
0.6553,905
0.6569667,951
0.6586334,924
0.6603,896
0.6619667,940
0.6636333,909
0.6653,823
0.6669667,903
0.6686333,982
0.6703,986
0.6719667,963
0.6736333,988
0.6753,795
0.6769667,792
0.6786333,915
0.6803,898
0.6819667,1001
0.6836333,1035
0.6853,1042
0.6869667,846
0.6886333,827
0.6903,811
0.6919667,692
0.6936333,953
0.6953,1005
0.6969666,711
0.6986333,831
0.7003,935
0.7019666,988
0.7036333,775
0.7053,766
0.7069666,787
0.7086333,740
0.7103,693
0.7119667,815
0.7136334,783
0.7153,811
0.7169667,840
0.7186334,757
0.7203,707
0.7219667,841
0.7236333,649
0.7253,824
0.7269667,887
0.7286333,755
0.7303,827
0.7319667,799
0.7336333,966
0.7353,925
0.7369667,859
0.7386333,902
0.7403,947
0.7419667,899
0.7436333,851
0.7453,895
0.7469667,737
0.7486333,761
0.7503,753
0.7519667,824
0.7536333,915
0.7553,918
0.7569667,742
0.7586333,825
0.7603,782
0.7619666,761
0.7636333,740
0.7653,835
0.7669666,830
0.7686333,950
0.7703,886
0.7719667,671
0.7736334,742
0.7753,865
0.7769667,800
0.7786334,899
0.7803,764
0.7819667,808
0.7836334,940
0.7853,905
0.7869667,968
0.7886333,710
0.7903,832
0.7919667,791
0.7936333,757
0.7953,722
0.7969667,752
0.7986333,792
0.8003,668
0.8019667,749
0.8036333,770
0.8053,798
0.8069667,740
0.8086333,681
0.8103,861
0.8119667,904
0.8136333,812
0.8153,719
0.8169667,1001
0.8186333,984
0.8203,897
0.8219666,792
0.8236333,1013
0.8253,905
0.8269666,814
0.8286333,893
0.8303,854
0.8319666,809
0.8336333,771
0.8353,733
0.8369667,795
0.8386334,866
0.8403,937
0.8419667,926
0.8436334,914
0.8453,735
0.8469667,837
0.8486333,987
0.8503,889
0.8519667,868
0.8536333,855
0.8553,908
0.8569667,961
0.8586333,842
0.8603,722
0.8619667,903
0.8636333,737
0.8653,722
0.8669667,782
0.8686333,748
0.8703,764
0.8719667,785
0.8736333,806
0.8753,943
0.8769667,1470
0.8786333,1636
0.8803,2140
0.8819667,2111
0.8836333,3370
0.8853,3486
0.8869666,3207
0.8886333,3722
0.8903,3781
0.8919666,3710
0.8936333,3599
0.8953,3655
0.8969667,3748
0.8986334,3842
0.9003,3767
0.9019667,3696
0.9036334,3624
0.9053,3723
0.9069667,3822
0.9086334,3692
0.9103,3563
0.9119667,3664
0.9136333,3109
0.9153,3386
0.9169667,3799
0.9186333,3701
0.9203,3875
0.9219667,3613
0.9236333,3253
0.9253,3515
0.9269667,3530
0.9286333,3550
0.9303,3571
0.9319667,3228
0.9336333,3417
0.9353,3177
0.9369667,3086
0.9386333,3119
0.9403,3207
0.9419667,2943
0.9436333,2766
0.9453,2860
0.9469666,2956
0.9486333,2562
0.9503,2438
0.9519666,2509
0.9536333,2323
0.9553,2307
0.9569666,2320
0.9586333,2254
0.9603,1911
0.9619667,1559
0.9636334,1863
0.9653,1873
0.9669667,1675
0.9686334,1561
0.9703,1619
0.9719667,1570
0.9736333,1306
0.9753,1092
0.9769667,1077
0.9786333,930
0.9803,991
0.9819667,1156
0.9836333,828
0.9853,821
0.9869667,837
0.9886333,685
0.9903,895
0.9919667,711
0.9936333,810
0.9953,751
0.9969667,629
0.9986333,846
1.0003,751
1.001967,527
1.003633,962
1.0053,531
1.006967,563
1.008633,674
1.0103,566
1.011967,633
1.013633,635
1.0153,618
1.016967,596
1.018633,630
1.0203,631
1.021967,626
1.023633,622
1.0253,566
1.026967,511
1.028633,544
1.0303,578
1.031967,585
1.033633,619
1.0353,695
1.036967,683
1.038633,602
1.0403,656
1.041967,710
1.043633,506
1.0453,619
1.046967,653
1.048633,576
1.0503,668
1.051967,522
1.053633,686
1.0553,705
1.056967,562
1.058633,615
1.0603,804
1.061967,828
1.063633,635
1.0653,732
1.066967,800
1.068633,552
1.0703,692
1.071967,638
1.073633,693
1.0753,638
1.076967,706
1.078633,589
1.0803,519
1.081967,635
1.083633,636
1.0853,628
1.086967,667
1.088633,662
1.0903,673
1.091967,698
1.093633,619
1.0953,680
1.096967,747
1.098633,583
1.1003,636
1.101967,638
1.103633,591
1.1053,544
1.106967,585
1.108633,681
1.1103,645
1.111967,622
1.113633,599
1.1153,530
1.116967,612
1.118633,724
1.1203,724
1.121967,629
1.123633,709
1.1253,728
1.126967,738
1.128633,563
1.1303,739
1.131967,710
1.133633,677
1.1353,669
1.136967,702
1.138633,586
1.1403,472
1.141967,696
1.143633,602
1.1453,663
1.146967,703
1.148633,706
1.1503,704
1.151967,733
1.153633,762
1.1553,683
1.156967,605
1.158633,691
1.1603,719
1.161967,747
1.163633,831
1.1653,800
1.166967,695
1.168633,643
1.1703,701
1.171967,759
1.173633,724
1.1753,688
1.176967,616
1.178633,615
1.1803,613
1.181967,820
1.183633,817
1.1853,838
1.186967,700
1.188633,841
1.1903,876
1.191967,807
1.193633,614
1.1953,863
1.196967,806
1.198633,763
