"SampleName","A2Rd2_02-1"
"Target Mass 1",
"Column Name","IA-3 (3um, 4.6X100)"
"Channel","QDa 1: SIR Ch2"
0.00195,328
0.003616667,667
0.005283333,684
0.00695,807
0.008616666,800
0.01028333,772
0.01195,744
0.01361667,1037
0.01528333,1008
0.01695,1098
0.01861667,873
0.02028333,1003
0.02195,905
0.02361667,895
0.02528333,867
0.02695,891
0.02861667,915
0.03028333,959
0.03195,1003
0.03361667,760
0.03528333,874
0.03695,794
0.03861667,805
0.04028333,921
0.04195,1066
0.04361667,1083
0.04528333,1056
0.04695,945
0.04861667,1139
0.05028334,1063
0.05195,992
0.05361667,1227
0.05528333,799
0.05695,824
0.05861667,919
0.06028333,936
0.06195,845
0.06361666,934
0.06528334,913
0.06695,892
0.06861667,715
0.07028333,916
0.07195,995
0.07361667,742
0.07528333,950
0.07695,1102
0.07861666,828
0.08028334,883
0.08195,938
0.08361667,769
0.08528333,813
0.08695,971
0.08861667,770
0.09028333,757
0.09195,793
0.09361666,773
0.09528334,752
0.09695,812
0.09861667,872
0.1002833,906
0.10195,803
0.1036167,753
0.1052833,807
0.10695,860
0.1086167,816
0.1102833,773
0.11195,822
0.1136167,853
0.1152833,819
0.11695,817
0.1186167,915
0.1202833,890
0.12195,891
0.1236167,870
0.1252833,925
0.12695,896
0.1286167,867
0.1302833,893
0.13195,883
0.1336167,890
0.1352833,838
0.13695,960
0.1386167,762
0.1402833,852
0.14195,883
0.1436167,943
0.1452833,886
0.14695,833
0.1486167,818
0.1502833,812
0.15195,777
0.1536167,742
0.1552833,829
0.15695,916
0.1586167,913
0.1602833,910
0.16195,911
0.1636167,913
0.1652833,890
0.16695,868
0.1686167,826
0.1702833,889
0.17195,888
0.1736167,880
0.1752833,735
0.17695,746
0.1786167,797
0.1802833,823
0.18195,850
0.1836167,877
0.1852833,740
0.18695,1030
0.1886167,1142
0.1902833,978
0.19195,772
0.1936167,791
0.1952833,805
0.19695,818
0.1986167,985
0.2002833,983
0.20195,848
0.2036167,732
0.2052833,1005
0.20695,869
0.2086167,875
0.2102833,990
0.21195,1034
0.2136167,934
0.2152833,896
0.21695,891
0.2186167,1092
0.2202833,1108
0.22195,1048
0.2236167,1108
0.2252833,1110
0.22695,1056
0.2286167,1109
0.2302833,1253
0.23195,1224
0.2336167,1180
0.2352833,905
0.23695,975
0.2386167,1069
0.2402833,1162
0.24195,1112
0.2436167,1063
0.2453,1064
0.24695,1102
0.2486167,1074
0.2502833,1046
0.25195,1050
0.2536167,1026
0.2552833,1173
0.25695,1200
0.2586333,1089
0.2602833,1181
0.26195,1041
0.2636333,1154
0.2652833,1021
0.26695,1029
0.2686167,1038
0.2702833,1049
0.27195,1070
0.2736167,1091
0.2752833,998
0.27695,837
0.2786333,915
0.2803,989
0.28195,1111
0.2836167,1104
0.2852833,894
0.28695,727
0.2886167,1137
0.2902833,883
0.29195,987
0.2936167,1154
0.2952833,1064
0.29695,1099
0.2986333,965
0.3002833,890
0.30195,1110
0.3036167,1131
0.3052833,1138
0.30695,1143
0.3086167,1149
0.3102833,1179
0.31195,1210
0.3136167,1264
0.3153,1089
0.31695,1081
0.3186167,1241
0.3203,1183
0.32195,1000
0.3236333,1088
0.3252833,1192
0.32695,1184
0.3286167,1301
0.3302833,1252
0.33195,1202
0.3336333,1359
0.3352833,1312
0.33695,1290
0.3386167,1354
0.3403,1324
0.3419667,1293
0.3436167,1308
0.3453,1127
0.34695,1424
0.3486333,1463
0.3503,1372
0.35195,1142
0.3536333,1468
0.3552833,1310
0.3569667,1389
0.3586167,1427
0.3603,1256
0.3619667,1283
0.3636167,1639
0.3653,2894
0.36695,3563
0.3686333,4553
0.3702833,4415
0.3719667,4544
0.3736333,4630
0.3753,4559
0.3769667,4488
0.3786333,4197
0.3803,4596
0.3819667,3295
0.3836167,3017
0.3853,2191
0.3869667,1741
0.3886333,1477
0.3903,1078
0.3919667,975
0.3936333,740
0.3953,603
0.3969667,551
0.3986333,567
0.4003,571
0.4019667,468
0.4036333,497
0.4053,526
0.4069667,529
0.4086333,599
0.4103,581
0.4119667,450
0.4136333,739
0.4153,645
0.4169667,722
0.4186333,588
0.4203,608
0.4219667,628
0.4236333,714
0.4253,712
0.4269667,676
0.4286333,641
0.4303,806
0.4319667,776
0.4336333,739
0.4353,714
0.4369667,821
0.4386333,794
0.4403,766
0.4419667,1127
0.4436333,1055
0.4453,1020
0.4469667,1052
0.4486333,1084
0.4503,1161
0.4519667,1123
0.4536333,1281
0.4553,1300
0.4569667,1357
0.4586333,1422
0.4603,1397
0.4619667,1452
0.4636333,1459
0.4653,1466
0.4669667,1157
0.4686333,1312
0.4703,1444
0.4719667,1340
0.4736333,1467
0.4753,1441
0.4769667,1169
0.4786333,1595
0.4803,1553
0.4819667,1346
0.4836333,1365
0.4853,1294
0.4869667,1341
0.4886333,987
0.4903,1251
0.4919667,1383
0.4936333,1339
0.4953,923
0.4969667,1153
0.4986333,1114
0.5003,852
0.5019667,989
0.5036333,834
0.5053,1120
0.5069667,1017
0.5086333,978
0.5103,972
0.5119666,960
0.5136333,842
0.5153,998
0.5169666,1007
0.5186333,979
0.5203,1035
0.5219667,1083
0.5236334,888
0.5253,880
0.5269667,827
0.5286334,859
0.5303,892
0.5319667,871
0.5336334,870
0.5353,771
0.5369667,868
0.5386333,958
0.5403,952
0.5419667,791
0.5436333,1081
0.5453,1091
0.5469667,1078
0.5486333,882
0.5503,820
0.5519667,834
0.5536333,872
0.5553,909
0.5569667,906
0.5586333,824
0.5603,743
0.5619667,970
0.5636333,968
0.5653,820
0.5669667,1003
0.5686333,864
0.5703,910
0.5719666,962
0.5736333,830
0.5753,984
0.5769666,838
0.5786333,855
0.5803,986
0.5819666,804
0.5836333,849
0.5853,845
0.5869667,939
0.5886334,927
0.5903,915
0.5919667,815
0.5936334,869
0.5953,940
0.5969667,993
0.5986333,906
0.6003,778
0.6019667,860
0.6036333,852
0.6053,794
0.6069667,869
0.6086333,823
0.6103,917
0.6119667,1011
0.6136333,986
0.6153,888
0.6169667,831
0.6186333,1021
0.6203,938
0.6219667,821
0.6236333,1108
0.6253,771
0.6269667,938
0.6286333,881
0.6303,896
0.6319667,892
0.6336333,888
0.6353,874
0.6369666,861
0.6386333,867
0.6403,873
0.6419666,736
0.6436333,881
0.6453,868
0.6469667,854
0.6486334,857
0.6503,859
0.6519667,918
0.6536334,907
0.6553,895
0.6569667,835
0.6586334,855
0.6603,874
0.6619667,799
0.6636333,659
0.6653,762
0.6669667,865
0.6686333,891
0.6703,955
0.6719667,802
0.6736333,829
0.6753,855
0.6769667,803
0.6786333,786
0.6803,862
0.6819667,845
0.6836333,879
0.6853,873
0.6869667,927
0.6886333,975
0.6903,797
0.6919667,807
0.6936333,968
0.6953,812
0.6969666,975
0.6986333,817
0.7003,810
0.7019666,752
0.7036333,695
0.7053,825
0.7069666,823
0.7086333,821
0.7103,680
0.7119667,847
0.7136334,824
0.7153,801
0.7169667,792
0.7186334,742
0.7203,661
0.7219667,856
0.7236333,789
0.7253,774
0.7269667,760
0.7286333,731
0.7303,752
0.7319667,896
0.7336333,833
0.7353,770
0.7369667,810
0.7386333,769
0.7403,728
0.7419667,846
0.7436333,715
0.7453,759
0.7469667,797
0.7486333,820
0.7503,843
0.7519667,657
0.7536333,946
0.7553,878
0.7569667,822
0.7586333,908
0.7603,886
0.7619666,920
0.7636333,940
0.7653,846
0.7669666,919
0.7686333,990
0.7703,634
0.7719667,851
0.7736334,888
0.7753,752
0.7769667,782
0.7786334,793
0.7803,822
0.7819667,840
0.7836334,854
0.7853,767
0.7869667,760
0.7886333,752
0.7903,741
0.7919667,730
0.7936333,768
0.7953,817
0.7969667,829
0.7986333,841
0.8003,884
0.8019667,876
0.8036333,869
0.8053,956
0.8069667,965
0.8086333,975
0.8103,920
0.8119667,925
0.8136333,930
0.8153,747
0.8169667,797
0.8186333,788
0.8203,773
0.8219666,839
0.8236333,835
0.8253,832
0.8269666,966
0.8286333,1043
0.8303,1034
0.8319666,770
0.8336333,745
0.8353,777
0.8369667,904
0.8386334,821
0.8403,738
0.8419667,862
0.8436334,843
0.8453,774
0.8469667,847
0.8486333,819
0.8503,826
0.8519667,894
0.8536333,871
0.8553,848
0.8569667,700
0.8586333,776
0.8603,851
0.8619667,832
0.8636333,923
0.8653,925
0.8669667,911
0.8686333,902
0.8703,894
0.8719667,776
0.8736333,754
0.8753,799
0.8769667,819
0.8786333,710
0.8803,898
0.8819667,1085
0.8836333,1235
0.8853,1131
0.8869666,1078
0.8886333,1278
0.8903,1045
0.8919666,992
0.8936333,1131
0.8953,1125
0.8969667,1126
0.8986334,1096
0.9003,1026
0.9019667,1084
0.9036334,1148
0.9053,793
0.9069667,1016
0.9086334,1156
0.9103,1062
0.9119667,865
0.9136333,1127
0.9153,858
0.9169667,995
0.9186333,1017
0.9203,1072
0.9219667,982
0.9236333,1099
0.9253,963
0.9269667,1046
0.9286333,970
0.9303,985
0.9319667,1104
0.9336333,894
0.9353,966
0.9369667,1038
0.9386333,1124
0.9403,813
0.9419667,1222
0.9436333,1020
0.9453,1070
0.9469666,1048
0.9486333,1102
0.9503,1130
0.9519666,957
0.9536333,1011
0.9553,1065
0.9569666,862
0.9586333,1021
0.9603,1151
0.9619667,924
0.9636334,836
0.9653,1088
0.9669667,1082
0.9686334,974
0.9703,868
0.9719667,1013
0.9736333,789
0.9753,837
0.9769667,810
0.9786333,868
0.9803,906
0.9819667,770
0.9836333,897
0.9853,780
0.9869667,745
0.9886333,943
0.9903,815
0.9919667,756
0.9936333,992
0.9953,757
0.9969667,737
0.9986333,712
1.0003,816
1.001967,840
1.003633,762
1.0053,809
1.006967,857
1.008633,771
1.0103,832
1.011967,836
1.013633,678
1.0153,759
1.016967,615
1.018633,680
1.0203,746
1.021967,891
1.023633,1028
1.0253,1012
1.026967,733
1.028633,941
1.0303,853
1.031967,833
1.033633,845
1.0353,761
1.036967,768
1.038633,847
1.0403,811
1.041967,863
1.043633,837
1.0453,811
1.046967,626
1.048633,931
1.0503,1033
1.051967,767
1.053633,973
1.0553,1151
1.056967,932
1.058633,854
1.0603,696
1.061967,897
1.063633,682
1.0653,963
1.066967,795
1.068633,922
1.0703,767
1.071967,750
1.073633,792
1.0753,835
1.076967,783
1.078633,732
1.0803,873
1.081967,888
1.083633,917
1.0853,904
1.086967,892
1.088633,787
1.0903,752
1.091967,755
1.093633,858
1.0953,915
1.096967,847
1.098633,715
1.1003,743
1.101967,718
1.103633,736
1.1053,754
1.106967,757
1.108633,744
1.1103,731
1.111967,766
1.113633,739
1.1153,711
1.116967,764
1.118633,654
1.1203,839
1.121967,834
1.123633,778
1.1253,803
1.126967,904
1.128633,668
1.1303,753
1.131967,830
1.133633,878
1.1353,769
1.136967,838
1.138633,602
1.1403,665
1.141967,661
1.143633,699
1.1453,736
1.146967,763
1.148633,789
1.1503,787
1.151967,786
1.153633,832
1.1553,878
1.156967,866
1.158633,833
1.1603,975
1.161967,984
1.163633,709
1.1653,812
1.166967,972
1.168633,765
1.1703,746
1.171967,789
1.173633,783
1.1753,778
1.176967,833
1.178633,861
1.1803,873
1.181967,885
1.183633,868
1.1853,915
1.186967,747
1.188633,751
1.1903,911
1.191967,726
1.193633,816
1.1953,762
1.196967,708
1.198633,815
