"SampleName","A2Rd2_02-59"
"Target Mass 1",
"Column Name","IA-3 (3um, 4.6X100)"
"Channel","QDa 1: SIR Ch2"
0.00195,488
0.003616667,728
0.005283333,711
0.00695,798
0.008616666,839
0.01028333,1014
0.01195,1202
0.01361667,1131
0.01528333,1162
0.01695,1051
0.01861667,990
0.02028333,1082
0.02195,1089
0.02361667,1100
0.02528333,915
0.02695,893
0.02861667,935
0.03028333,978
0.03195,995
0.03361667,978
0.03528333,1065
0.03695,1067
0.03861667,1068
0.04028333,1240
0.04195,1239
0.04361667,831
0.04528333,1055
0.04695,1242
0.04861667,897
0.05028334,1073
0.05195,1076
0.05361667,929
0.05528333,900
0.05695,1088
0.05861667,1058
0.06028333,1028
0.06195,1033
0.06361666,907
0.06528334,781
0.06695,890
0.06861667,1131
0.07028333,1061
0.07195,995
0.07361667,1085
0.07528333,955
0.07695,1060
0.07861666,996
0.08028334,1005
0.08195,1014
0.08361667,1032
0.08528333,1027
0.08695,1022
0.08861667,977
0.09028333,961
0.09195,859
0.09361666,942
0.09528334,998
0.09695,1054
0.09861667,881
0.1002833,1021
0.10195,919
0.1036167,929
0.1052833,989
0.10695,895
0.1086167,861
0.1102833,966
0.11195,921
0.1136167,932
0.1152833,942
0.11695,976
0.1186167,1009
0.1202833,967
0.12195,924
0.1236167,833
0.1252833,817
0.12695,861
0.1286167,904
0.1302833,903
0.13195,902
0.1336167,917
0.1352833,932
0.13695,948
0.1386167,964
0.1402833,741
0.14195,1022
0.1436167,1097
0.1452833,949
0.14695,975
0.1486167,839
0.1502833,940
0.15195,922
0.1536167,905
0.1552833,1053
0.15695,1019
0.1586167,861
0.1602833,1001
0.16195,1140
0.1636167,1136
0.1652833,994
0.16695,1005
0.1686167,901
0.1702833,800
0.17195,892
0.1736167,937
0.1752833,775
0.17695,815
0.1786167,854
0.1802833,960
0.18195,1037
0.1836167,959
0.1852833,1064
0.18695,891
0.1886167,1134
0.1902833,875
0.19195,996
0.1936167,880
0.1952833,967
0.19695,786
0.1986167,827
0.2002833,867
0.20195,888
0.2036167,847
0.2052833,807
0.20695,908
0.2086167,1023
0.2102833,1248
0.21195,1116
0.2136167,1183
0.2152833,1202
0.21695,1222
0.2186167,1218
0.2202833,1172
0.22195,1138
0.2236167,1075
0.2252833,1169
0.22695,1146
0.2286167,1160
0.2302833,1174
0.23195,1247
0.2336167,1270
0.2352833,1285
0.23695,1320
0.2386167,1306
0.2402833,1291
0.24195,1223
0.2436167,1154
0.2452833,1434
0.24695,1425
0.2486167,1376
0.2502833,1229
0.25195,1470
0.2536167,1095
0.2552833,1053
0.25695,1494
0.2586167,1125
0.2602833,1575
0.26195,1244
0.2636333,1206
0.2652833,1393
0.26695,1282
0.2686167,1346
0.2702833,1161
0.27195,1198
0.2736167,1212
0.2752833,1060
0.27695,1181
0.2786167,1275
0.2803,1150
0.28195,1040
0.2836167,1058
0.2852833,1105
0.28695,1026
0.2886167,1022
0.2902833,1053
0.29195,1058
0.2936167,1063
0.2952833,1086
0.29695,1108
0.2986333,1161
0.3002833,1213
0.30195,1389
0.3036167,1470
0.3052833,1290
0.30695,1275
0.3086167,1360
0.3102833,1412
0.31195,1141
0.3136167,1536
0.3153,1183
0.31695,1541
0.3186167,1520
0.3202833,1410
0.32195,1582
0.3236333,1502
0.3252833,1216
0.3269667,1603
0.3286167,1678
0.3303,1246
0.3319667,1275
0.3336333,1397
0.3352833,1261
0.33695,1315
0.3386167,1261
0.3403,1011
0.34195,1071
0.3436333,1198
0.3453,1166
0.3469667,1456
0.3486333,1392
0.3503,1345
0.35195,1232
0.3536333,1402
0.3552833,1445
0.3569667,1487
0.3586167,1293
0.3603,1385
0.3619667,1354
0.3636333,1322
0.3653,1757
0.3669667,2610
0.3686333,3148
0.3703,3596
0.3719667,3238
0.3736333,2917
0.3752833,2999
0.3769667,3141
0.3786333,3249
0.3803,3410
0.3819667,3346
0.3836333,3282
0.3853,2761
0.3869667,2349
0.3886333,1747
0.3903,1585
0.3919667,1118
0.3936333,748
0.3953,896
0.3969667,553
0.3986333,593
0.4003,616
0.4019667,481
0.4036333,647
0.4053,462
0.4069667,505
0.4086333,565
0.4103,509
0.4119667,631
0.4136333,614
0.4153,535
0.4169667,624
0.4186333,599
0.4203,573
0.4219667,727
0.4236333,701
0.4253,675
0.4269667,677
0.4286333,680
0.4303,590
0.4319667,660
0.4336333,704
0.4353,749
0.4369667,1015
0.4386333,962
0.4403,989
0.4419667,983
0.4436333,998
0.4453,986
0.4469667,974
0.4486333,926
0.4503,1058
0.4519667,1033
0.4536333,951
0.4553,1171
0.4569667,1234
0.4586333,1052
0.4603,1101
0.4619667,1123
0.4636333,1009
0.4653,1013
0.4669667,1151
0.4686333,892
0.4703,861
0.4719667,897
0.4736333,873
0.4753,849
0.4769667,947
0.4786333,939
0.4803,931
0.4819667,860
0.4836333,1056
0.4853,754
0.4869667,872
0.4886333,1074
0.4903,798
0.4919667,993
0.4936333,945
0.4953,1131
0.4969667,1074
0.4986333,1107
0.5003,1026
0.5019667,688
0.5036333,969
0.5053,863
0.5069667,845
0.5086333,740
0.5103,840
0.5119666,681
0.5136333,1082
0.5153,1198
0.5169666,1060
0.5186333,912
0.5203,877
0.5219667,955
0.5236334,985
0.5253,938
0.5269667,1015
0.5286334,1069
0.5303,1020
0.5319667,1150
0.5336334,1134
0.5353,1057
0.5369667,1107
0.5386333,908
0.5403,1088
0.5419667,904
0.5436333,1071
0.5453,1086
0.5469667,1097
0.5486333,938
0.5503,752
0.5519667,1120
0.5536333,1172
0.5553,1068
0.5569667,971
0.5586333,1064
0.5603,975
0.5619667,981
0.5636333,891
0.5653,852
0.5669667,813
0.5686333,763
0.5703,831
0.5719666,930
0.5736333,977
0.5753,981
0.5769666,895
0.5786333,931
0.5803,760
0.5819666,873
0.5836333,823
0.5853,859
0.5869667,785
0.5886334,769
0.5903,754
0.5919667,871
0.5936334,898
0.5953,910
0.5969667,922
0.5986333,870
0.6003,819
0.6019667,832
0.6036333,845
0.6053,836
0.6069667,712
0.6086333,806
0.6103,901
0.6119667,682
0.6136333,816
0.6153,868
0.6169667,871
0.6186333,873
0.6203,897
0.6219667,922
0.6236333,741
0.6253,913
0.6269667,864
0.6286333,929
0.6303,924
0.6319667,934
0.6336333,945
0.6353,873
0.6369666,896
0.6386333,949
0.6403,688
0.6419666,950
0.6436333,853
0.6453,1034
0.6469667,751
0.6486334,1017
0.6503,969
0.6519667,868
0.6536334,864
0.6553,762
0.6569667,864
0.6586334,984
0.6603,947
0.6619667,885
0.6636333,652
0.6653,776
0.6669667,900
0.6686333,958
0.6703,888
0.6719667,730
0.6736333,872
0.6753,797
0.6769667,886
0.6786333,770
0.6803,845
0.6819667,859
0.6836333,805
0.6853,810
0.6869667,814
0.6886333,885
0.6903,913
0.6919667,899
0.6936333,706
0.6953,1004
0.6969666,812
0.6986333,1042
0.7003,915
0.7019666,926
0.7036333,958
0.7053,810
0.7069666,816
0.7086333,768
0.7103,832
0.7119667,803
0.7136334,774
0.7153,798
0.7169667,822
0.7186334,899
0.7203,870
0.7219667,841
0.7236333,911
0.7253,982
0.7269667,946
0.7286333,890
0.7303,887
0.7319667,940
0.7336333,691
0.7353,899
0.7369667,916
0.7386333,890
0.7403,831
0.7419667,934
0.7436333,780
0.7453,821
0.7469667,936
0.7486333,938
0.7503,898
0.7519667,858
0.7536333,841
0.7553,737
0.7569667,766
0.7586333,903
0.7603,925
0.7619666,815
0.7636333,840
0.7653,764
0.7669666,881
0.7686333,952
0.7703,733
0.7719667,662
0.7736334,869
0.7753,989
0.7769667,990
0.7786334,767
0.7803,924
0.7819667,778
0.7836334,886
0.7853,1010
0.7869667,898
0.7886333,749
0.7903,1011
0.7919667,955
0.7936333,918
0.7953,1041
0.7969667,1013
0.7986333,852
0.8003,665
0.8019667,839
0.8036333,852
0.8053,866
0.8069667,827
0.8086333,833
0.8103,826
0.8119667,820
0.8136333,854
0.8153,838
0.8169667,823
0.8186333,821
0.8203,820
0.8219666,918
0.8236333,789
0.8253,660
0.8269666,926
0.8286333,913
0.8303,715
0.8319666,811
0.8336333,951
0.8353,1014
0.8369667,863
0.8386334,836
0.8403,958
0.8419667,827
0.8436334,899
0.8453,910
0.8469667,920
0.8486333,909
0.8503,841
0.8519667,963
0.8536333,889
0.8553,982
0.8569667,1045
0.8586333,858
0.8603,841
0.8619667,846
0.8636333,806
0.8653,891
0.8669667,925
0.8686333,959
0.8703,694
0.8719667,937
0.8736333,855
0.8753,841
0.8769667,1039
0.8786333,1072
0.8803,1119
0.8819667,1308
0.8836333,1446
0.8853,1390
0.8869666,1333
0.8886333,1226
0.8903,1559
0.8919666,1701
0.8936333,1522
0.8953,1406
0.8969667,1799
0.8986334,1625
0.9003,1806
0.9019667,1409
0.9036334,1573
0.9053,1389
0.9069667,1528
0.9086334,1719
0.9103,1301
0.9119667,1653
0.9136333,1811
0.9153,1993
0.9169667,1483
0.9186333,1685
0.9203,1624
0.9219667,1377
0.9236333,1504
0.9253,1477
0.9269667,1469
0.9286333,1525
0.9303,1588
0.9319667,1580
0.9336333,1407
0.9353,1501
0.9369667,1595
0.9386333,1636
0.9403,1681
0.9419667,1426
0.9436333,1519
0.9453,1611
0.9469666,1629
0.9486333,1375
0.9503,1578
0.9519666,1527
0.9536333,1255
0.9553,1416
0.9569666,1388
0.9586333,1147
0.9603,1287
0.9619667,1411
0.9636334,1210
0.9653,1166
0.9669667,1324
0.9686334,1079
0.9703,1142
0.9719667,1105
0.9736333,1109
0.9753,1179
0.9769667,939
0.9786333,966
0.9803,959
0.9819667,924
0.9836333,889
0.9853,753
0.9869667,998
0.9886333,899
0.9903,816
0.9919667,998
0.9936333,910
0.9953,960
0.9969667,844
0.9986333,854
1.0003,760
1.001967,842
1.003633,786
1.0053,799
1.006967,798
1.008633,796
1.0103,790
1.011967,785
1.013633,779
1.0153,774
1.016967,916
1.018633,924
1.0203,1016
1.021967,791
1.023633,951
1.0253,1001
1.026967,942
1.028633,879
1.0303,750
1.031967,898
1.033633,834
1.0353,921
1.036967,990
1.038633,785
1.0403,1000
1.041967,910
1.043633,902
1.0453,933
1.046967,775
1.048633,1011
1.0503,813
1.051967,1058
1.053633,970
1.0553,867
1.056967,887
1.058633,916
1.0603,886
1.061967,856
1.063633,934
1.0653,806
1.066967,941
1.068633,886
1.0703,928
1.071967,970
1.073633,923
1.0753,890
1.076967,844
1.078633,885
1.0803,875
1.081967,864
1.083633,898
1.0853,945
1.086967,788
1.088633,979
1.0903,1006
1.091967,916
1.093633,912
1.0953,908
1.096967,801
1.098633,989
1.1003,971
1.101967,973
1.103633,898
1.1053,902
1.106967,996
1.108633,939
1.1103,1082
1.111967,788
1.113633,940
1.1153,938
1.116967,709
1.118633,884
1.1203,873
1.121967,862
1.123633,971
1.1253,752
1.126967,907
1.128633,959
1.1303,1057
1.131967,880
1.133633,929
1.1353,676
1.136967,842
1.138633,1023
1.1403,997
1.141967,805
1.143633,1007
1.1453,947
1.146967,796
1.148633,510
1.1503,737
1.151967,694
1.153633,968
1.1553,880
1.156967,935
1.158633,982
1.1603,997
1.161967,813
1.163633,889
1.1653,1059
1.166967,1019
1.168633,984
1.1703,1015
1.171967,976
1.173633,940
1.1753,903
1.176967,1021
1.178633,986
1.1803,907
1.181967,842
1.183633,1038
1.1853,779
1.186967,845
1.188633,899
1.1903,903
1.191967,931
1.193633,959
1.1953,838
1.196967,977
1.198633,928
