"SampleName","A2Rd2_02-24"
"Target Mass 1",
"Column Name","IA-3 (3um, 4.6X100)"
"Channel","QDa 1: SIR Ch1"
0.00195,312
0.003616667,512
0.005283333,666
0.00695,450
0.008616666,701
0.01028333,642
0.01195,435
0.01361667,500
0.01528333,537
0.01695,585
0.01861667,633
0.02028333,584
0.02195,535
0.02361667,499
0.02528333,446
0.02695,672
0.02861667,617
0.03028333,573
0.03195,516
0.03361667,615
0.03528333,555
0.03695,548
0.03861667,441
0.04028333,440
0.04195,451
0.04361667,657
0.04528333,598
0.04695,538
0.04861667,605
0.05028334,562
0.05195,629
0.05361667,496
0.05528333,548
0.05695,548
0.05861667,524
0.06028333,499
0.06195,529
0.06361666,558
0.06528334,548
0.06695,438
0.06861667,584
0.07028333,566
0.07195,502
0.07361667,469
0.07528333,556
0.07695,555
0.07861666,529
0.08028334,504
0.08195,452
0.08361667,481
0.08528333,510
0.08695,509
0.08861667,524
0.09028333,512
0.09195,421
0.09361666,458
0.09528334,495
0.09695,525
0.09861667,497
0.1002833,438
0.10195,525
0.1036167,488
0.1052833,451
0.10695,561
0.1086167,497
0.1102833,432
0.11195,405
0.1136167,474
0.1152833,630
0.11695,622
0.1186167,594
0.1202833,532
0.12195,712
0.1236167,429
0.1252833,541
0.12695,584
0.1286167,509
0.1302833,599
0.13195,563
0.1336167,513
0.1352833,597
0.13695,564
0.1386167,467
0.1402833,403
0.14195,458
0.1436167,635
0.1452833,674
0.14695,457
0.1486167,649
0.1502833,546
0.15195,550
0.1536167,477
0.1552833,464
0.15695,599
0.1586167,568
0.1602833,538
0.16195,607
0.1636167,391
0.1652833,455
0.16695,510
0.1686167,549
0.1702833,611
0.17195,381
0.1736167,681
0.1752833,571
0.17695,544
0.1786167,503
0.1802833,607
0.18195,562
0.1836167,516
0.1852833,456
0.18695,428
0.1886167,517
0.1902833,536
0.19195,576
0.1936167,498
0.1952833,587
0.19695,528
0.1986167,506
0.2002833,542
0.20195,520
0.2036167,498
0.2052833,541
0.20695,433
0.2086167,459
0.2102833,481
0.21195,542
0.2136167,580
0.2152833,558
0.21695,585
0.2186167,535
0.2202833,583
0.22195,653
0.2236167,462
0.2252833,511
0.22695,429
0.2286167,387
0.2302833,556
0.23195,669
0.2336167,758
0.2352833,516
0.23695,536
0.2386167,579
0.2402833,456
0.24195,468
0.2436167,573
0.2453,464
0.24695,522
0.2486167,482
0.2502833,441
0.25195,400
0.2536167,470
0.2553,486
0.25695,534
0.2586167,485
0.2602833,496
0.26195,509
0.2636333,478
0.2652833,494
0.26695,511
0.2686167,512
0.2702833,456
0.27195,448
0.2736167,530
0.2752833,352
0.27695,453
0.2786167,454
0.2803,515
0.28195,475
0.2836167,435
0.2852833,515
0.28695,601
0.2886167,651
0.2902833,489
0.29195,581
0.2936167,560
0.2952833,559
0.29695,533
0.2986333,593
0.3002833,634
0.30195,676
0.3036167,595
0.3053,575
0.30695,575
0.3086167,464
0.3102833,567
0.31195,619
0.3136167,672
0.3153,652
0.31695,567
0.3186333,510
0.3202833,492
0.3219667,506
0.3236167,521
0.3252833,557
0.32695,693
0.3286167,657
0.3303,617
0.33195,780
0.3336333,456
0.3353,505
0.33695,581
0.3386333,501
0.3402833,565
0.34195,513
0.3436167,565
0.3452833,572
0.3469667,495
0.3486167,428
0.3503,483
0.35195,537
0.3536333,567
0.3553,546
0.35695,526
0.3586167,536
0.3602833,545
0.36195,682
0.3636333,863
0.3652833,1211
0.36695,1804
0.3686333,2422
0.3703,3307
0.3719667,3333
0.3736333,3471
0.3753,4147
0.37695,4999
0.3786167,4842
0.3803,5538
0.38195,5090
0.3836167,5016
0.3853,4591
0.3869667,4181
0.3886333,3416
0.3903,3259
0.3919667,2506
0.3936167,1915
0.3953,1909
0.3969667,1582
0.3986167,1802
0.4003,1480
0.4019667,1156
0.4036333,1381
0.4053,1350
0.4069667,1149
0.4086333,1358
0.4103,1237
0.4119667,1515
0.4136333,1390
0.4153,1564
0.4169667,1528
0.4186333,1719
0.4203,1636
0.4219667,1471
0.4236333,1657
0.4253,1539
0.4269667,1483
0.4286333,1559
0.4303,1636
0.4319667,1993
0.4336333,2409
0.4353,3364
0.4369667,4846
0.4386333,8392
0.4403,11844
0.4419667,19788
0.4436333,27832
0.4453,39440
0.4469667,54192
0.4486333,70336
0.4503,87120
0.4519667,102544
0.4536333,118896
0.4553,135552
0.4569667,146944
0.4586333,160000
0.4603,167360
0.4619667,178944
0.4636333,183104
0.4653,191936
0.4669667,200704
0.4686333,212352
0.4703,222976
0.4719667,237632
0.4736333,250816
0.4753,256128
0.4769667,258560
0.4786333,258880
0.4803,248192
0.4819667,235072
0.4836333,212352
0.4853,191104
0.4869667,169088
0.4886333,142976
0.4903,121216
0.4919667,101008
0.4936333,82784
0.4953,70016
0.4969667,54576
0.4986333,41792
0.5003,34720
0.5019667,28448
0.5036333,21800
0.5053,18092
0.5069667,14400
0.5086333,11968
0.5103,10332
0.5119666,8676
0.5136333,7853
0.5153,6621
0.5169666,5959
0.5186333,5248
0.5203,4881
0.5219667,4435
0.5236334,4511
0.5253,4424
0.5269667,3809
0.5286334,3608
0.5303,3946
0.5319667,3597
0.5336334,2999
0.5353,3520
0.5369667,3043
0.5386333,2791
0.5403,3096
0.5419667,2904
0.5436333,2604
0.5453,2722
0.5469667,2630
0.5486333,2309
0.5503,2417
0.5519667,2207
0.5536333,2330
0.5553,2025
0.5569667,2013
0.5586333,2172
0.5603,1861
0.5619667,1947
0.5636333,1840
0.5653,1819
0.5669667,1660
0.5686333,1620
0.5703,1800
0.5719666,1519
0.5736333,1667
0.5753,1540
0.5769666,1368
0.5786333,1359
0.5803,1420
0.5819666,1480
0.5836333,1450
0.5853,1519
0.5869667,1625
0.5886334,1293
0.5903,1326
0.5919667,1297
0.5936334,1658
0.5953,1662
0.5969667,1534
0.5986333,1443
0.6003,1498
0.6019667,1330
0.6036333,1586
0.6053,1460
0.6069667,1532
0.6086333,1517
0.6103,1432
0.6119667,1542
0.6136333,1417
0.6153,1536
0.6169667,1198
0.6186333,1514
0.6203,1464
0.6219667,1502
0.6236333,1453
0.6253,1103
0.6269667,1201
0.6286333,1226
0.6303,1160
0.6319667,1174
0.6336333,1246
0.6353,1118
0.6369666,992
0.6386333,1131
0.6403,1187
0.6419666,994
0.6436333,922
0.6453,1039
0.6469667,1028
0.6486334,977
0.6503,1034
0.6519667,877
0.6536334,995
0.6553,1053
0.6569667,1017
0.6586334,886
0.6603,892
0.6619667,850
0.6636333,873
0.6653,895
0.6669667,876
0.6686333,799
0.6703,807
0.6719667,814
0.6736333,799
0.6753,841
0.6769667,950
0.6786333,967
0.6803,864
0.6819667,737
0.6836333,971
0.6853,842
0.6869667,944
0.6886333,951
0.6903,975
0.6919667,765
0.6936333,901
0.6953,962
0.6969666,845
0.6986333,929
0.7003,786
0.7019666,790
0.7036333,907
0.7053,886
0.7069666,769
0.7086333,882
0.7103,961
0.7119667,748
0.7136334,685
0.7153,687
0.7169667,763
0.7186334,867
0.7203,885
0.7219667,820
0.7236333,672
0.7253,808
0.7269667,672
0.7286333,755
0.7303,691
0.7319667,766
0.7336333,782
0.7353,781
0.7369667,780
0.7386333,837
0.7403,571
0.7419667,604
0.7436333,793
0.7453,747
0.7469667,689
0.7486333,631
0.7503,716
0.7519667,756
0.7536333,757
0.7553,707
0.7569667,731
0.7586333,531
0.7603,661
0.7619666,589
0.7636333,517
0.7653,752
0.7669666,662
0.7686333,782
0.7703,802
0.7719667,804
0.7736334,714
0.7753,720
0.7769667,706
0.7786334,755
0.7803,662
0.7819667,702
0.7836334,686
0.7853,656
0.7869667,626
0.7886333,637
0.7903,648
0.7919667,563
0.7936333,688
0.7953,722
0.7969667,730
0.7986333,738
0.8003,585
0.8019667,746
0.8036333,627
0.8053,661
0.8069667,686
0.8086333,683
0.8103,667
0.8119667,699
0.8136333,732
0.8153,525
0.8169667,620
0.8186333,658
0.8203,818
0.8219666,824
0.8236333,568
0.8253,669
0.8269666,753
0.8286333,697
0.8303,646
0.8319666,619
0.8336333,550
0.8353,681
0.8369667,597
0.8386334,708
0.8403,696
0.8419667,683
0.8436334,724
0.8453,659
0.8469667,754
0.8486333,613
0.8503,728
0.8519667,705
0.8536333,754
0.8553,704
0.8569667,606
0.8586333,640
0.8603,631
0.8619667,646
0.8636333,633
0.8653,640
0.8669667,647
0.8686333,548
0.8703,783
0.8719667,719
0.8736333,678
0.8753,744
0.8769667,556
0.8786333,875
0.8803,1166
0.8819667,1282
0.8836333,1635
0.8853,1812
0.8869666,2115
0.8886333,2412
0.8903,2280
0.8919666,1978
0.8936333,2145
0.8953,2312
0.8969667,2242
0.8986334,2173
0.9003,2417
0.9019667,2392
0.9036334,2366
0.9053,2702
0.9069667,2622
0.9086334,2613
0.9103,2436
0.9119667,2524
0.9136333,2535
0.9153,2394
0.9169667,2316
0.9186333,2424
0.9203,2309
0.9219667,2328
0.9236333,2258
0.9253,2187
0.9269667,2382
0.9286333,2711
0.9303,2666
0.9319667,2269
0.9336333,2010
0.9353,2050
0.9369667,2476
0.9386333,2378
0.9403,2004
0.9419667,2311
0.9436333,2057
0.9453,2138
0.9469666,1748
0.9486333,2030
0.9503,1828
0.9519666,1803
0.9536333,1618
0.9553,1761
0.9569666,1706
0.9586333,1651
0.9603,1625
0.9619667,1117
0.9636334,1642
0.9653,1272
0.9669667,1180
0.9686334,1152
0.9703,1090
0.9719667,1054
0.9736333,1078
0.9753,909
0.9769667,1049
0.9786333,1013
0.9803,1062
0.9819667,882
0.9836333,722
0.9853,607
0.9869667,654
0.9886333,645
0.9903,604
0.9919667,438
0.9936333,606
0.9953,626
0.9969667,560
0.9986333,581
1.0003,528
1.001967,626
1.003633,443
1.0053,634
1.006967,515
1.008633,655
1.0103,465
1.011967,537
1.013633,614
1.0153,482
1.016967,564
1.018633,631
1.0203,661
1.021967,426
1.023633,626
1.0253,485
1.026967,605
1.028633,629
1.0303,356
1.031967,479
1.033633,623
1.0353,588
1.036967,530
1.038633,531
1.0403,534
1.041967,510
1.043633,516
1.0453,522
1.046967,521
1.048633,531
1.0503,488
1.051967,445
1.053633,568
1.0553,548
1.056967,515
1.058633,554
1.0603,571
1.061967,571
1.063633,572
1.0653,562
1.066967,531
1.068633,557
1.0703,556
1.071967,531
1.073633,506
1.0753,578
1.076967,577
1.078633,576
1.0803,443
1.081967,578
1.083633,510
1.0853,527
1.086967,479
1.088633,543
1.0903,542
1.091967,427
1.093633,465
1.0953,593
1.096967,561
1.098633,528
1.1003,558
1.101967,629
1.103633,644
1.1053,494
1.106967,550
1.108633,471
1.1103,461
1.111967,617
1.113633,605
1.1153,605
1.116967,606
1.118633,510
1.1203,497
1.121967,566
1.123633,565
1.1253,563
1.126967,575
1.128633,587
1.1303,641
1.131967,631
1.133633,635
1.1353,460
1.136967,484
1.138633,604
1.1403,556
1.141967,545
1.143633,541
1.1453,570
1.146967,600
1.148633,471
1.1503,601
1.151967,574
1.153633,538
1.1553,527
1.156967,561
1.158633,634
1.1603,632
1.161967,636
1.163633,553
1.1653,701
1.166967,415
1.168633,564
1.1703,610
1.171967,670
1.173633,588
1.1753,553
1.176967,515
1.178633,673
1.1803,657
1.181967,752
1.183633,755
1.1853,615
1.186967,451
1.188633,629
1.1903,636
1.191967,528
1.193633,670
1.1953,546
1.196967,559
1.198633,526
