"SampleName","A2Rd2_02-30"
"Target Mass 1",
"Column Name","IA-3 (3um, 4.6X100)"
"Channel","QDa 1: SIR Ch1"
0.00195,331
0.003616667,581
0.005283333,323
0.00695,550
0.008616666,499
0.01028333,675
0.01195,643
0.01361667,595
0.01528333,710
0.01695,532
0.01861667,765
0.02028333,591
0.02195,757
0.02361667,546
0.02528333,559
0.02695,563
0.02861667,547
0.03028333,532
0.03195,539
0.03361667,558
0.03528333,615
0.03695,597
0.03861667,579
0.04028333,513
0.04195,473
0.04361667,374
0.04528333,516
0.04695,505
0.04861667,494
0.05028334,449
0.05195,589
0.05361667,568
0.05528333,612
0.05695,512
0.05861667,565
0.06028333,632
0.06195,593
0.06361666,554
0.06528334,369
0.06695,450
0.06861667,613
0.07028333,475
0.07195,676
0.07361667,595
0.07528333,441
0.07695,501
0.07861666,583
0.08028334,661
0.08195,661
0.08361667,526
0.08528333,684
0.08695,529
0.08861667,600
0.09028333,494
0.09195,521
0.09361666,490
0.09528334,520
0.09695,501
0.09861667,483
0.1002833,422
0.10195,483
0.1036167,470
0.1052833,502
0.10695,534
0.1086167,534
0.1102833,510
0.11195,512
0.1136167,515
0.1152833,517
0.11695,505
0.1186167,414
0.1202833,457
0.12195,500
0.1236167,497
0.1252833,605
0.12695,598
0.1286167,528
0.1302833,603
0.13195,554
0.1336167,535
0.1352833,588
0.13695,464
0.1386167,468
0.1402833,450
0.14195,426
0.1436167,402
0.1452833,418
0.14695,434
0.1486167,597
0.1502833,617
0.15195,485
0.1536167,634
0.1552833,492
0.15695,658
0.1586167,481
0.1602833,650
0.16195,522
0.1636167,468
0.1652833,524
0.16695,530
0.1686167,387
0.1702833,572
0.17195,553
0.1736167,409
0.1752833,552
0.17695,617
0.1786167,566
0.1802833,520
0.18195,368
0.1836167,510
0.1852833,553
0.18695,463
0.1886167,551
0.1902833,427
0.19195,539
0.1936167,405
0.1952833,417
0.19695,580
0.1986167,602
0.2002833,505
0.20195,492
0.2036167,636
0.2052833,482
0.20695,545
0.2086167,521
0.2102833,386
0.21195,540
0.2136167,564
0.2152833,483
0.21695,482
0.2186167,492
0.2202833,491
0.22195,490
0.2236167,484
0.2252833,499
0.2269667,514
0.2286167,604
0.2302833,375
0.23195,570
0.2336167,402
0.2352833,416
0.23695,498
0.2386167,494
0.2402833,489
0.24195,391
0.2436167,392
0.2453,506
0.24695,528
0.2486167,518
0.2502833,494
0.25195,406
0.2536167,453
0.2552833,448
0.25695,442
0.2586167,541
0.2602833,518
0.26195,441
0.2636333,461
0.2652833,428
0.26695,396
0.2686167,461
0.2702833,502
0.2719667,543
0.2736167,525
0.2752833,507
0.27695,503
0.2786167,469
0.2803,508
0.28195,451
0.2836167,485
0.2852833,520
0.2869667,633
0.2886167,584
0.2902833,520
0.29195,536
0.2936167,459
0.2952833,480
0.29695,666
0.2986333,721
0.3002833,630
0.3019667,620
0.3036167,630
0.3052833,638
0.3069667,646
0.3086167,535
0.3103,665
0.31195,469
0.3136167,725
0.3153,490
0.31695,540
0.3186333,640
0.3202833,626
0.3219667,570
0.3236333,562
0.3252833,523
0.32695,489
0.3286167,547
0.3302833,605
0.3319667,569
0.3336333,647
0.3353,676
0.3369667,560
0.3386167,611
0.3403,529
0.34195,412
0.3436167,601
0.3452833,442
0.34695,418
0.3486333,563
0.3503,487
0.3519667,572
0.3536333,561
0.3553,551
0.3569667,451
0.3586333,565
0.3603,681
0.3619667,708
0.3636167,853
0.3653,1243
0.3669667,1809
0.3686333,3012
0.3703,3614
0.3719667,3731
0.3736333,3497
0.3753,4230
0.3769667,4294
0.3786333,4861
0.3803,5297
0.3819667,5177
0.3836333,5019
0.3853,4408
0.3869667,3594
0.3886333,3344
0.3903,2780
0.3919667,2428
0.3936333,1938
0.3953,1633
0.3969667,1372
0.3986333,1434
0.4003,1043
0.4019667,1247
0.4036333,1256
0.4053,958
0.4069667,918
0.4086333,1337
0.4103,1451
0.4119667,1409
0.4136333,1091
0.4153,1018
0.4169667,1188
0.4186333,1220
0.4203,1231
0.4219667,1291
0.4236333,1352
0.4253,1293
0.4269667,1235
0.4286333,1256
0.4303,1276
0.4319667,1334
0.4336333,1889
0.4353,2444
0.4369667,3721
0.4386333,6017
0.4403,9768
0.4419667,14700
0.4436333,23292
0.4453,33568
0.4469667,45232
0.4486333,59424
0.4503,73728
0.4519667,88656
0.4536333,102832
0.4553,115984
0.4569667,129328
0.4586333,140352
0.4603,146752
0.4619667,149696
0.4636333,157824
0.4653,161920
0.4669667,168384
0.4686333,170304
0.4703,181888
0.4719667,189248
0.4736333,203008
0.4753,210304
0.4769667,212288
0.4786333,213632
0.4803,210304
0.4819667,197248
0.4836333,180096
0.4853,161664
0.4869667,144192
0.4886333,123008
0.4903,104592
0.4919667,88160
0.4936333,70736
0.4953,57008
0.4969667,45040
0.4986333,35744
0.5003,28384
0.5019667,23004
0.5036333,17928
0.5053,14040
0.5069667,12632
0.5086333,9964
0.5103,7729
0.5119666,7298
0.5136333,6409
0.5153,5696
0.5169666,5030
0.5186333,4787
0.5203,4156
0.5219667,3854
0.5236334,3777
0.5253,3227
0.5269667,3332
0.5286334,3271
0.5303,3115
0.5319667,2959
0.5336334,2773
0.5353,2888
0.5369667,2537
0.5386333,2744
0.5403,2599
0.5419667,2301
0.5436333,2526
0.5453,2368
0.5469667,2371
0.5486333,2255
0.5503,2050
0.5519667,2035
0.5536333,2144
0.5553,1984
0.5569667,1716
0.5586333,1876
0.5603,1791
0.5619667,1268
0.5636333,1541
0.5653,1574
0.5669667,1660
0.5686333,1495
0.5703,1462
0.5719666,1599
0.5736333,1331
0.5753,1609
0.5769666,1264
0.5786333,1462
0.5803,1310
0.5819666,1285
0.5836333,1348
0.5853,1320
0.5869667,1292
0.5886334,1363
0.5903,1434
0.5919667,1363
0.5936334,1291
0.5953,1403
0.5969667,1505
0.5986333,1484
0.6003,1462
0.6019667,1595
0.6036333,1489
0.6053,1384
0.6069667,1506
0.6086333,1266
0.6103,1209
0.6119667,1499
0.6136333,1558
0.6153,1491
0.6169667,1475
0.6186333,1515
0.6203,1285
0.6219667,1388
0.6236333,1321
0.6253,1291
0.6269667,1261
0.6286333,1153
0.6303,1318
0.6319667,1157
0.6336333,1190
0.6353,1320
0.6369666,1083
0.6386333,1390
0.6403,890
0.6419666,1067
0.6436333,1211
0.6453,902
0.6469667,786
0.6486334,1102
0.6503,937
0.6519667,1106
0.6536334,955
0.6553,1081
0.6569667,955
0.6586334,1019
0.6603,1098
0.6619667,1070
0.6636333,852
0.6653,805
0.6669667,762
0.6686333,633
0.6703,883
0.6719667,779
0.6736333,717
0.6753,876
0.6769667,844
0.6786333,860
0.6803,771
0.6819667,726
0.6836333,753
0.6853,780
0.6869667,780
0.6886333,779
0.6903,789
0.6919667,799
0.6936333,699
0.6953,713
0.6969666,728
0.6986333,758
0.7003,787
0.7019666,817
0.7036333,822
0.7053,803
0.7069666,800
0.7086333,797
0.7103,901
0.7119667,876
0.7136334,991
0.7153,974
0.7169667,850
0.7186334,728
0.7203,925
0.7219667,792
0.7236333,782
0.7253,790
0.7269667,752
0.7286333,902
0.7303,599
0.7319667,1019
0.7336333,827
0.7353,812
0.7369667,725
0.7386333,776
0.7403,744
0.7419667,760
0.7436333,776
0.7453,803
0.7469667,845
0.7486333,1014
0.7503,1077
0.7519667,927
0.7536333,733
0.7553,719
0.7569667,906
0.7586333,761
0.7603,900
0.7619666,860
0.7636333,884
0.7653,674
0.7669666,917
0.7686333,823
0.7703,829
0.7719667,753
0.7736334,876
0.7753,880
0.7769667,800
0.7786334,847
0.7803,894
0.7819667,760
0.7836334,726
0.7853,793
0.7869667,790
0.7886333,736
0.7903,749
0.7919667,658
0.7936333,759
0.7953,759
0.7969667,759
0.7986333,815
0.8003,810
0.8019667,751
0.8036333,596
0.8053,810
0.8069667,811
0.8086333,589
0.8103,756
0.8119667,770
0.8136333,893
0.8153,857
0.8169667,821
0.8186333,909
0.8203,833
0.8219666,764
0.8236333,695
0.8253,789
0.8269666,866
0.8286333,844
0.8303,871
0.8319666,899
0.8336333,721
0.8353,886
0.8369667,996
0.8386334,747
0.8403,942
0.8419667,844
0.8436334,800
0.8453,957
0.8469667,697
0.8486333,815
0.8503,811
0.8519667,879
0.8536333,844
0.8553,809
0.8569667,847
0.8586333,957
0.8603,1048
0.8619667,715
0.8636333,1060
0.8653,756
0.8669667,859
0.8686333,805
0.8703,675
0.8719667,833
0.8736333,826
0.8753,699
0.8769667,912
0.8786333,924
0.8803,1268
0.8819667,1783
0.8836333,1598
0.8853,2391
0.8869666,3003
0.8886333,3160
0.8903,3492
0.8919666,3537
0.8936333,3711
0.8953,3534
0.8969667,3839
0.8986334,3281
0.9003,3522
0.9019667,4003
0.9036334,3706
0.9053,3647
0.9069667,3764
0.9086334,3855
0.9103,3942
0.9119667,4185
0.9136333,4083
0.9153,3914
0.9169667,3625
0.9186333,3886
0.9203,3732
0.9219667,3650
0.9236333,4045
0.9253,3999
0.9269667,3333
0.9286333,3456
0.9303,3555
0.9319667,3728
0.9336333,3643
0.9353,3455
0.9369667,3254
0.9386333,3312
0.9403,2990
0.9419667,3272
0.9436333,3190
0.9453,2736
0.9469666,2654
0.9486333,3042
0.9503,2737
0.9519666,2470
0.9536333,2420
0.9553,2364
0.9569666,2203
0.9586333,2114
0.9603,2011
0.9619667,2052
0.9636334,2056
0.9653,1673
0.9669667,1563
0.9686334,1342
0.9703,1661
0.9719667,1421
0.9736333,1147
0.9753,1384
0.9769667,1257
0.9786333,1069
0.9803,1057
0.9819667,832
0.9836333,964
0.9853,877
0.9869667,971
0.9886333,828
0.9903,705
0.9919667,851
0.9936333,759
0.9953,630
0.9969667,743
0.9986333,670
1.0003,792
1.001967,598
1.003633,674
1.0053,558
1.006967,745
1.008633,738
1.0103,602
1.011967,629
1.013633,752
1.0153,664
1.016967,576
1.018633,536
1.0203,574
1.021967,558
1.023633,542
1.0253,587
1.026967,631
1.028633,660
1.0303,606
1.031967,576
1.033633,558
1.0353,640
1.036967,694
1.038633,749
1.0403,646
1.041967,687
1.043633,621
1.0453,631
1.046967,531
1.048633,713
1.0503,663
1.051967,703
1.053633,455
1.0553,625
1.056967,654
1.058633,709
1.0603,626
1.061967,608
1.063633,689
1.0653,547
1.066967,643
1.068633,724
1.0703,770
1.071967,643
1.073633,713
1.0753,657
1.076967,628
1.078633,599
1.0803,647
1.081967,585
1.083633,699
1.0853,726
1.086967,769
1.088633,606
1.0903,567
1.091967,633
1.093633,612
1.0953,591
1.096967,587
1.098633,582
1.1003,862
1.101967,805
1.103633,663
1.1053,666
1.106967,604
1.108633,610
1.1103,617
1.111967,688
1.113633,708
1.1153,752
1.116967,708
1.118633,641
1.1203,651
1.121967,727
1.123633,682
1.1253,637
1.126967,791
1.128633,541
1.1303,734
1.131967,640
1.133633,541
1.1353,736
1.136967,519
1.138633,555
1.1403,585
1.141967,620
1.143633,605
1.1453,589
1.146967,679
1.148633,760
1.1503,858
1.151967,779
1.153633,765
1.1553,709
1.156967,682
1.158633,728
1.1603,718
1.161967,708
1.163633,633
1.1653,716
1.166967,800
1.168633,818
1.1703,854
1.171967,860
1.173633,720
1.1753,835
1.176967,799
1.178633,856
1.1803,637
1.181967,699
1.183633,932
1.1853,805
1.186967,798
1.188633,904
1.1903,880
1.191967,807
1.193633,747
1.1953,787
1.196967,818
1.198633,848
