"SampleName","A2Rd2_02-18"
"Target Mass 1",
"Column Name","IA-3 (3um, 4.6X100)"
"Channel","QDa 1: SIR Ch1"
0.00195,281
0.003616667,389
0.005283333,765
0.00695,630
0.008616666,479
0.01028333,559
0.01195,649
0.01361667,608
0.01528333,567
0.01695,640
0.01861667,533
0.02028333,645
0.02195,534
0.02361667,605
0.02528333,617
0.02695,583
0.02861667,545
0.03028333,513
0.03195,481
0.03361667,567
0.03528333,520
0.03695,542
0.03861667,563
0.04028333,531
0.04195,604
0.04361667,450
0.04528333,574
0.04695,641
0.04861667,420
0.05028334,463
0.05195,575
0.05361667,541
0.05528333,619
0.05695,590
0.05861667,561
0.06028333,590
0.06195,612
0.06361666,468
0.06528334,596
0.06695,409
0.06861667,487
0.07028333,573
0.07195,628
0.07361667,624
0.07528333,496
0.07695,565
0.07861666,584
0.08028334,401
0.08195,701
0.08361667,648
0.08528333,485
0.08695,510
0.08861667,625
0.09028333,579
0.09195,456
0.09361666,677
0.09528334,430
0.09695,549
0.09861667,597
0.1002833,538
0.10195,588
0.1036167,593
0.1052833,475
0.10695,491
0.1086167,461
0.1102833,472
0.11195,505
0.1136167,538
0.1152833,532
0.11695,549
0.1186167,510
0.1202833,388
0.12195,461
0.1236167,522
0.1252833,552
0.12695,582
0.1286167,574
0.1302833,601
0.13195,580
0.1336167,560
0.1352833,626
0.13695,623
0.1386167,539
0.1402833,528
0.14195,523
0.1436167,546
0.1452833,538
0.14695,530
0.1486167,502
0.1502833,465
0.15195,428
0.1536167,473
0.1552833,518
0.15695,507
0.1586167,486
0.1602833,439
0.16195,608
0.1636167,563
0.1652833,438
0.16695,558
0.1686167,455
0.1702833,452
0.17195,578
0.1736167,482
0.1752833,405
0.17695,507
0.1786167,451
0.1802833,622
0.18195,579
0.1836167,391
0.1852833,573
0.18695,531
0.1886167,563
0.1902833,487
0.19195,371
0.1936167,598
0.1952833,617
0.19695,512
0.1986167,482
0.2002833,450
0.20195,367
0.2036167,479
0.2052833,479
0.20695,470
0.2086167,447
0.2102833,424
0.21195,433
0.2136167,443
0.2152833,416
0.21695,384
0.2186167,400
0.2202833,417
0.22195,466
0.2236167,516
0.2252833,519
0.22695,469
0.2286167,420
0.2302833,537
0.23195,536
0.2336167,564
0.2352833,505
0.23695,420
0.2386167,615
0.2402833,420
0.24195,523
0.2436167,473
0.2452833,424
0.24695,581
0.2486167,535
0.2502833,490
0.25195,590
0.2536167,446
0.2552833,522
0.25695,547
0.2586167,570
0.2602833,586
0.26195,557
0.2636333,596
0.2652833,457
0.26695,514
0.2686167,569
0.2702833,559
0.27195,345
0.2736167,625
0.2752833,376
0.27695,413
0.2786333,509
0.2803,517
0.28195,510
0.2836167,488
0.2852833,467
0.28695,754
0.2886167,705
0.2902833,473
0.29195,561
0.2936167,571
0.2952833,619
0.29695,569
0.2986333,594
0.3002833,452
0.30195,535
0.3036167,558
0.3052833,589
0.30695,493
0.3086167,490
0.3102833,488
0.31195,555
0.3136167,574
0.3153,598
0.31695,530
0.3186167,636
0.3202833,498
0.32195,403
0.3236167,557
0.3252833,514
0.32695,453
0.3286167,467
0.3303,482
0.3319667,527
0.3336333,504
0.3353,481
0.3369667,486
0.3386333,464
0.3402833,497
0.34195,530
0.3436167,520
0.3453,511
0.3469667,499
0.3486333,506
0.3503,430
0.3519667,518
0.3536167,542
0.3553,566
0.35695,621
0.3586333,618
0.3602833,655
0.3619667,726
0.3636333,721
0.3653,957
0.36695,1564
0.3686333,2219
0.3702833,3282
0.3719667,3656
0.3736167,3962
0.3753,4361
0.3769667,4952
0.3786333,5059
0.3803,5073
0.3819667,5086
0.3836167,4510
0.3853,4831
0.3869667,3602
0.3886333,3265
0.3903,2801
0.3919667,2755
0.3936333,1977
0.3953,1567
0.3969667,1111
0.3986333,1079
0.4003,1135
0.4019667,1053
0.4036333,1051
0.4053,934
0.4069667,1087
0.4086333,1042
0.4103,883
0.4119667,927
0.4136333,965
0.4153,1003
0.4169667,1238
0.4186333,1215
0.4203,1051
0.4219667,1114
0.4236333,1023
0.4253,1142
0.4269667,1171
0.4286333,1170
0.4303,1133
0.4319667,1189
0.4336333,1563
0.4353,2557
0.4369667,3950
0.4386333,6483
0.4403,10504
0.4419667,16940
0.4436333,24820
0.4453,34768
0.4469667,48608
0.4486333,64352
0.4503,80832
0.4519667,96032
0.4536333,113664
0.4553,129168
0.4569667,143360
0.4586333,152064
0.4603,163328
0.4619667,173184
0.4636333,176192
0.4653,182784
0.4669667,197056
0.4686333,201664
0.4703,214528
0.4719667,228416
0.4736333,238400
0.4753,249088
0.4769667,252800
0.4786333,252032
0.4803,245760
0.4819667,228416
0.4836333,213184
0.4853,190528
0.4869667,166336
0.4886333,142400
0.4903,119968
0.4919667,100624
0.4936333,85744
0.4953,67408
0.4969667,55328
0.4986333,43808
0.5003,33184
0.5019667,26484
0.5036333,22000
0.5053,17880
0.5069667,13608
0.5086333,11384
0.5103,10184
0.5119666,8268
0.5136333,7555
0.5153,6373
0.5169666,6010
0.5186333,5275
0.5203,5135
0.5219667,4571
0.5236334,3914
0.5253,3560
0.5269667,3765
0.5286334,3247
0.5303,3124
0.5319667,3019
0.5336334,3313
0.5353,3016
0.5369667,2786
0.5386333,2507
0.5403,2744
0.5419667,2717
0.5436333,2499
0.5453,2356
0.5469667,2451
0.5486333,2375
0.5503,2272
0.5519667,1747
0.5536333,2303
0.5553,1812
0.5569667,2018
0.5586333,1979
0.5603,2010
0.5619667,1743
0.5636333,1557
0.5653,1658
0.5669667,1482
0.5686333,1514
0.5703,1546
0.5719666,1469
0.5736333,1277
0.5753,1571
0.5769666,1426
0.5786333,1432
0.5803,1462
0.5819666,1310
0.5836333,1359
0.5853,1430
0.5869667,1382
0.5886334,1319
0.5903,1435
0.5919667,1453
0.5936334,1303
0.5953,1518
0.5969667,1444
0.5986333,1270
0.6003,1392
0.6019667,1176
0.6036333,1277
0.6053,1299
0.6069667,1352
0.6086333,1230
0.6103,1250
0.6119667,1263
0.6136333,1276
0.6153,1296
0.6169667,1216
0.6186333,1107
0.6203,965
0.6219667,1160
0.6236333,1027
0.6253,1242
0.6269667,1323
0.6286333,1002
0.6303,905
0.6319667,978
0.6336333,1059
0.6353,860
0.6369666,1030
0.6386333,995
0.6403,1003
0.6419666,1043
0.6436333,986
0.6453,928
0.6469667,968
0.6486334,891
0.6503,914
0.6519667,813
0.6536334,813
0.6553,814
0.6569667,772
0.6586334,759
0.6603,816
0.6619667,985
0.6636333,888
0.6653,791
0.6669667,912
0.6686333,786
0.6703,929
0.6719667,938
0.6736333,800
0.6753,912
0.6769667,849
0.6786333,748
0.6803,790
0.6819667,909
0.6836333,904
0.6853,861
0.6869667,907
0.6886333,837
0.6903,901
0.6919667,979
0.6936333,662
0.6953,856
0.6969666,865
0.6986333,779
0.7003,763
0.7019666,811
0.7036333,774
0.7053,674
0.7069666,786
0.7086333,840
0.7103,843
0.7119667,764
0.7136334,824
0.7153,759
0.7169667,786
0.7186334,812
0.7203,767
0.7219667,799
0.7236333,830
0.7253,862
0.7269667,577
0.7286333,847
0.7303,959
0.7319667,789
0.7336333,877
0.7353,755
0.7369667,763
0.7386333,785
0.7403,811
0.7419667,837
0.7436333,665
0.7453,720
0.7469667,866
0.7486333,771
0.7503,939
0.7519667,853
0.7536333,695
0.7553,916
0.7569667,809
0.7586333,772
0.7603,770
0.7619666,674
0.7636333,782
0.7653,820
0.7669666,859
0.7686333,765
0.7703,745
0.7719667,725
0.7736334,752
0.7753,763
0.7769667,774
0.7786334,861
0.7803,892
0.7819667,800
0.7836334,662
0.7853,860
0.7869667,811
0.7886333,708
0.7903,879
0.7919667,801
0.7936333,893
0.7953,758
0.7969667,754
0.7986333,874
0.8003,735
0.8019667,920
0.8036333,845
0.8053,771
0.8069667,714
0.8086333,877
0.8103,873
0.8119667,708
0.8136333,660
0.8153,856
0.8169667,811
0.8186333,766
0.8203,829
0.8219666,811
0.8236333,816
0.8253,807
0.8269666,799
0.8286333,807
0.8303,815
0.8319666,833
0.8336333,964
0.8353,1002
0.8369667,803
0.8386334,814
0.8403,790
0.8419667,786
0.8436334,782
0.8453,750
0.8469667,874
0.8486333,888
0.8503,764
0.8519667,866
0.8536333,859
0.8553,852
0.8569667,827
0.8586333,803
0.8603,962
0.8619667,962
0.8636333,736
0.8653,982
0.8669667,813
0.8686333,977
0.8703,848
0.8719667,798
0.8736333,820
0.8753,694
0.8769667,732
0.8786333,833
0.8803,984
0.8819667,1345
0.8836333,1796
0.8853,2338
0.8869666,2607
0.8886333,2492
0.8903,2930
0.8919666,3316
0.8936333,3040
0.8953,3325
0.8969667,3486
0.8986334,3199
0.9003,3324
0.9019667,3141
0.9036334,3448
0.9053,3372
0.9069667,3632
0.9086334,3725
0.9103,3765
0.9119667,3958
0.9136333,3236
0.9153,3540
0.9169667,3243
0.9186333,3271
0.9203,3180
0.9219667,3411
0.9236333,3342
0.9253,3274
0.9269667,3403
0.9286333,3375
0.9303,3153
0.9319667,3311
0.9336333,3141
0.9353,3380
0.9369667,3039
0.9386333,3069
0.9403,3056
0.9419667,2770
0.9436333,2542
0.9453,3135
0.9469666,2135
0.9486333,2905
0.9503,2205
0.9519666,2435
0.9536333,2383
0.9553,2350
0.9569666,1936
0.9586333,2282
0.9603,1856
0.9619667,1608
0.9636334,1792
0.9653,1546
0.9669667,1474
0.9686334,1560
0.9703,1333
0.9719667,1468
0.9736333,1158
0.9753,1055
0.9769667,1310
0.9786333,983
0.9803,915
0.9819667,870
0.9836333,894
0.9853,919
0.9869667,722
0.9886333,727
0.9903,751
0.9919667,878
0.9936333,508
0.9953,622
0.9969667,582
0.9986333,597
1.0003,613
1.001967,657
1.003633,639
1.0053,542
1.006967,662
1.008633,657
1.0103,652
1.011967,662
1.013633,641
1.0153,620
1.016967,554
1.018633,633
1.0203,637
1.021967,595
1.023633,699
1.0253,486
1.026967,644
1.028633,747
1.0303,565
1.031967,677
1.033633,683
1.0353,524
1.036967,574
1.038633,588
1.0403,703
1.041967,696
1.043633,690
1.0453,702
1.046967,698
1.048633,695
1.0503,685
1.051967,705
1.053633,584
1.0553,736
1.056967,683
1.058633,675
1.0603,667
1.061967,632
1.063633,596
1.0653,528
1.066967,725
1.068633,728
1.0703,736
1.071967,690
1.073633,693
1.0753,582
1.076967,745
1.078633,576
1.0803,712
1.081967,765
1.083633,570
1.0853,764
1.086967,667
1.088633,792
1.0903,693
1.091967,830
1.093633,566
1.0953,605
1.096967,631
1.098633,629
1.1003,626
1.101967,645
1.103633,664
1.1053,664
1.106967,663
1.108633,545
1.1103,670
1.111967,713
1.113633,723
1.1153,752
1.116967,701
1.118633,522
1.1203,782
1.121967,719
1.123633,712
1.1253,765
1.126967,670
1.128633,633
1.1303,616
1.131967,684
1.133633,685
1.1353,685
1.136967,638
1.138633,687
1.1403,680
1.141967,672
1.143633,701
1.1453,731
1.146967,747
1.148633,668
1.1503,716
1.151967,763
1.153633,720
1.1553,748
1.156967,783
1.158633,779
1.1603,745
1.161967,806
1.163633,619
1.1653,837
1.166967,611
1.168633,663
1.1703,792
1.171967,717
1.173633,596
1.1753,674
1.176967,676
1.178633,643
1.1803,709
1.181967,884
1.183633,939
1.1853,793
1.186967,784
1.188633,993
1.1903,836
1.191967,819
1.193633,702
1.1953,793
1.196967,773
1.198633,769
