"SampleName","A2Rd2_02-5"
"Target Mass 1",
"Column Name","IA-3 (3um, 4.6X100)"
"Channel","QDa 1: SIR Ch2"
0.00195,494
0.003616667,711
0.005283333,779
0.00695,935
0.008616666,762
0.01028333,919
0.01195,907
0.01361667,895
0.01528333,889
0.01695,883
0.01861667,797
0.02028333,827
0.02195,858
0.02361667,866
0.02528333,900
0.02695,781
0.02861667,777
0.03028333,1048
0.03195,971
0.03361667,1005
0.03528333,997
0.03695,866
0.03861667,1057
0.04028333,967
0.04195,859
0.04361667,986
0.04528333,973
0.04695,960
0.04861667,961
0.05028334,1050
0.05195,858
0.05361667,880
0.05528333,896
0.05695,961
0.05861667,921
0.06028333,881
0.06195,791
0.06361666,817
0.06528334,1095
0.06695,1179
0.06861667,795
0.07028333,976
0.07195,915
0.07361667,899
0.07528333,984
0.07695,846
0.07861666,804
0.08028334,822
0.08195,886
0.08361667,737
0.08528333,1037
0.08695,1040
0.08861667,862
0.09028333,903
0.09195,962
0.09361666,673
0.09528334,1075
0.09695,1072
0.09861667,741
0.1002833,1064
0.10195,773
0.1036167,972
0.1052833,911
0.10695,810
0.1086167,1062
0.1102833,1018
0.11195,851
0.1136167,1024
0.1152833,852
0.11695,800
0.1186167,891
0.1202833,838
0.12195,910
0.1236167,935
0.1252833,780
0.12695,907
0.1286167,918
0.1302833,873
0.13195,823
0.1336167,774
0.1352833,799
0.13695,827
0.1386167,821
0.1402833,858
0.14195,896
0.1436167,672
0.1452833,889
0.14695,863
0.1486167,969
0.1502833,787
0.15195,821
0.1536167,782
0.1552833,580
0.15695,708
0.1586167,920
0.1602833,832
0.16195,903
0.1636167,972
0.1652833,803
0.16695,844
0.1686167,884
0.1702833,861
0.17195,875
0.1736167,690
0.1752833,794
0.17695,880
0.1786167,762
0.1802833,779
0.18195,843
0.1836167,849
0.1852833,708
0.18695,807
0.1886167,905
0.1902833,837
0.19195,770
0.1936167,818
0.1952833,787
0.19695,688
0.1986167,906
0.2002833,851
0.20195,975
0.2036167,878
0.2052833,862
0.20695,954
0.2086167,936
0.2103,960
0.21195,983
0.2136167,982
0.2152833,981
0.21695,919
0.2186167,858
0.2202833,995
0.22195,913
0.2236167,889
0.2253,864
0.22695,973
0.2286333,1082
0.2302833,1167
0.2319667,1226
0.2336167,942
0.2353,1220
0.23695,1330
0.2386167,1066
0.2403,1195
0.24195,1066
0.2436167,1260
0.2453,1211
0.24695,1162
0.2486333,1123
0.2502833,1079
0.25195,1164
0.2536167,1324
0.2552833,1460
0.2569667,1393
0.2586167,1184
0.2602833,900
0.26195,1104
0.2636333,1234
0.2653,922
0.2669667,933
0.2686167,1235
0.2702833,1146
0.27195,1167
0.2736333,1000
0.2753,1124
0.2769667,983
0.2786167,1032
0.2803,843
0.2819667,1013
0.2836333,929
0.2852833,900
0.2869667,872
0.2886333,982
0.2903,1015
0.29195,1155
0.2936333,1154
0.2952833,1027
0.2969667,915
0.2986333,978
0.3003,863
0.3019667,971
0.3036333,989
0.3053,1008
0.3069667,1096
0.3086333,1139
0.3103,1130
0.3119667,1122
0.3136333,1118
0.3153,1229
0.3169667,1196
0.3186333,1164
0.3203,1202
0.3219667,1109
0.3236333,1263
0.3253,1264
0.3269667,1313
0.3286333,1039
0.3303,1442
0.3319667,1054
0.3336333,1273
0.3353,1223
0.3369667,1134
0.3386333,1258
0.3403,1235
0.3419667,1212
0.3436333,1209
0.3453,1287
0.3469667,1319
0.3486333,1192
0.3503,1064
0.3519667,1322
0.3536333,1310
0.3553,1298
0.3569667,1284
0.3586333,1426
0.3603,1567
0.3619667,1626
0.3636333,1978
0.3653,2732
0.3669667,3782
0.3686333,4322
0.3703,4579
0.3719667,4527
0.3736333,4495
0.3753,4399
0.3769667,3997
0.3786333,3739
0.3803,3691
0.3819667,3330
0.3836333,2435
0.3853,1861
0.3869667,1573
0.3886333,1169
0.3903,1066
0.3919667,709
0.3936333,620
0.3953,598
0.3969667,328
0.3986333,344
0.4003,481
0.4019667,575
0.4036333,623
0.4053,578
0.4069667,634
0.4086333,572
0.4103,632
0.4119667,692
0.4136333,726
0.4153,801
0.4169667,822
0.4186333,783
0.4203,860
0.4219667,652
0.4236333,844
0.4253,482
0.4269667,833
0.4286333,906
0.4303,909
0.4319667,921
0.4336333,934
0.4353,844
0.4369667,874
0.4386333,797
0.4403,1073
0.4419667,1284
0.4436333,1137
0.4453,1121
0.4469667,1221
0.4486333,1201
0.4503,1212
0.4519667,1223
0.4536333,1307
0.4553,1392
0.4569667,1394
0.4586333,1396
0.4603,1397
0.4619667,1439
0.4636333,1481
0.4653,1599
0.4669667,1528
0.4686333,1458
0.4703,1712
0.4719667,1815
0.4736333,1607
0.4753,1749
0.4769667,1890
0.4786333,1647
0.4803,1566
0.4819667,1504
0.4836333,1511
0.4853,1267
0.4869667,1188
0.4886333,1284
0.4903,1316
0.4919667,1347
0.4936333,1222
0.4953,1140
0.4969667,1126
0.4986333,1094
0.5003,1223
0.5019667,982
0.5036333,941
0.5053,1010
0.5069667,1264
0.5086333,1209
0.5103,1250
0.5119666,1130
0.5136333,1096
0.5153,1154
0.5169666,973
0.5186333,818
0.5203,1149
0.5219667,1185
0.5236334,1161
0.5253,809
0.5269667,1205
0.5286334,1047
0.5303,904
0.5319667,1136
0.5336334,989
0.5353,798
0.5369667,992
0.5386333,919
0.5403,854
0.5419667,909
0.5436333,945
0.5453,981
0.5469667,990
0.5486333,1010
0.5503,822
0.5519667,970
0.5536333,843
0.5553,803
0.5569667,766
0.5586333,954
0.5603,916
0.5619667,879
0.5636333,690
0.5653,842
0.5669667,889
0.5686333,959
0.5703,820
0.5719666,975
0.5736333,953
0.5753,960
0.5769666,813
0.5786333,868
0.5803,988
0.5819666,1007
0.5836333,975
0.5853,942
0.5869667,930
0.5886334,855
0.5903,1045
0.5919667,1009
0.5936334,1052
0.5953,887
0.5969667,943
0.5986333,827
0.6003,741
0.6019667,1002
0.6036333,1006
0.6053,858
0.6069667,964
0.6086333,871
0.6103,916
0.6119667,961
0.6136333,806
0.6153,959
0.6169667,879
0.6186333,799
0.6203,1005
0.6219667,1092
0.6236333,978
0.6253,992
0.6269667,811
0.6286333,957
0.6303,855
0.6319667,904
0.6336333,953
0.6353,801
0.6369666,1058
0.6386333,952
0.6403,683
0.6419666,827
0.6436333,994
0.6453,1042
0.6469667,821
0.6486334,954
0.6503,821
0.6519667,749
0.6536334,763
0.6553,864
0.6569667,874
0.6586334,792
0.6603,918
0.6619667,893
0.6636333,868
0.6653,917
0.6669667,934
0.6686333,929
0.6703,819
0.6719667,775
0.6736333,909
0.6753,803
0.6769667,881
0.6786333,854
0.6803,841
0.6819667,898
0.6836333,907
0.6853,937
0.6869667,814
0.6886333,911
0.6903,818
0.6919667,671
0.6936333,972
0.6953,832
0.6969666,799
0.6986333,686
0.7003,865
0.7019666,845
0.7036333,853
0.7053,910
0.7069666,742
0.7086333,765
0.7103,766
0.7119667,837
0.7136334,909
0.7153,863
0.7169667,816
0.7186334,776
0.7203,884
0.7219667,776
0.7236333,865
0.7253,778
0.7269667,702
0.7286333,590
0.7303,777
0.7319667,820
0.7336333,863
0.7353,784
0.7369667,806
0.7386333,827
0.7403,731
0.7419667,766
0.7436333,800
0.7453,871
0.7469667,917
0.7486333,862
0.7503,688
0.7519667,709
0.7536333,875
0.7553,752
0.7569667,642
0.7586333,822
0.7603,867
0.7619666,949
0.7636333,955
0.7653,831
0.7669666,985
0.7686333,798
0.7703,886
0.7719667,958
0.7736334,722
0.7753,955
0.7769667,850
0.7786334,679
0.7803,685
0.7819667,921
0.7836334,880
0.7853,918
0.7869667,728
0.7886333,909
0.7903,911
0.7919667,716
0.7936333,879
0.7953,816
0.7969667,857
0.7986333,859
0.8003,805
0.8019667,767
0.8036333,783
0.8053,809
0.8069667,784
0.8086333,759
0.8103,788
0.8119667,943
0.8136333,1033
0.8153,939
0.8169667,941
0.8186333,908
0.8203,807
0.8219666,892
0.8236333,908
0.8253,831
0.8269666,767
0.8286333,844
0.8303,828
0.8319666,811
0.8336333,929
0.8353,946
0.8369667,883
0.8386334,992
0.8403,817
0.8419667,766
0.8436334,894
0.8453,838
0.8469667,872
0.8486333,807
0.8503,842
0.8519667,878
0.8536333,809
0.8553,800
0.8569667,850
0.8586333,798
0.8603,803
0.8619667,850
0.8636333,842
0.8653,833
0.8669667,852
0.8686333,871
0.8703,623
0.8719667,875
0.8736333,745
0.8753,804
0.8769667,807
0.8786333,839
0.8803,795
0.8819667,977
0.8836333,1056
0.8853,972
0.8869666,1397
0.8886333,1322
0.8903,1112
0.8919666,1104
0.8936333,1012
0.8953,1030
0.8969667,1138
0.8986334,1229
0.9003,897
0.9019667,1035
0.9036334,991
0.9053,1061
0.9069667,824
0.9086334,1185
0.9103,1116
0.9119667,1273
0.9136333,1063
0.9153,1146
0.9169667,1120
0.9186333,1173
0.9203,1154
0.9219667,1135
0.9236333,1079
0.9253,1037
0.9269667,994
0.9286333,1198
0.9303,1162
0.9319667,918
0.9336333,1091
0.9353,1177
0.9369667,1108
0.9386333,1099
0.9403,1109
0.9419667,1145
0.9436333,1145
0.9453,1038
0.9469666,1084
0.9486333,1136
0.9503,1209
0.9519666,1165
0.9536333,1117
0.9553,874
0.9569666,1139
0.9586333,1169
0.9603,1233
0.9619667,784
0.9636334,1034
0.9653,1060
0.9669667,924
0.9686334,1055
0.9703,975
0.9719667,875
0.9736333,820
0.9753,871
0.9769667,834
0.9786333,764
0.9803,826
0.9819667,920
0.9836333,673
0.9853,824
0.9869667,828
0.9886333,714
0.9903,827
0.9919667,942
0.9936333,607
0.9953,658
0.9969667,854
0.9986333,917
1.0003,789
1.001967,699
1.003633,649
1.0053,721
1.006967,794
1.008633,865
1.0103,902
1.011967,839
1.013633,767
1.0153,893
1.016967,894
1.018633,907
1.0203,824
1.021967,858
1.023633,901
1.0253,838
1.026967,880
1.028633,869
1.0303,859
1.031967,921
1.033633,910
1.0353,882
1.036967,872
1.038633,862
1.0403,850
1.041967,839
1.043633,810
1.0453,902
1.046967,895
1.048633,854
1.0503,909
1.051967,889
1.053633,743
1.0553,663
1.056967,758
1.058633,856
1.0603,953
1.061967,1010
1.063633,876
1.0653,848
1.066967,854
1.068633,982
1.0703,950
1.071967,888
1.073633,616
1.0753,876
1.076967,742
1.078633,940
1.0803,977
1.081967,918
1.083633,868
1.0853,808
1.086967,794
1.088633,659
1.0903,837
1.091967,850
1.093633,697
1.0953,755
1.096967,812
1.098633,895
1.1003,878
1.101967,808
1.103633,952
1.1053,1024
1.106967,720
1.108633,908
1.1103,984
1.111967,965
1.113633,941
1.1153,794
1.116967,931
1.118633,948
1.1203,715
1.121967,808
1.123633,877
1.1253,768
1.126967,853
1.128633,1005
1.1303,943
1.131967,952
1.133633,849
1.1353,810
1.136967,721
1.138633,836
1.1403,759
1.141967,683
1.143633,676
1.1453,733
1.146967,719
1.148633,705
1.1503,579
1.151967,692
1.153633,806
1.1553,817
1.156967,873
1.158633,910
1.1603,921
1.161967,949
1.163633,727
1.1653,872
1.166967,750
1.168633,731
1.1703,712
1.171967,738
1.173633,764
1.1753,790
1.176967,816
1.178633,727
1.1803,772
1.181967,909
1.183633,620
1.1853,670
1.186967,859
1.188633,749
1.1903,813
1.191967,650
1.193633,855
1.1953,810
1.196967,790
1.198633,787
