"SampleName","A2Rd2_02-47"
"Target Mass 1",
"Column Name","IA-3 (3um, 4.6X100)"
"Channel","QDa 1: SIR Ch1"
0.00195,413
0.003616667,475
0.005283333,616
0.00695,582
0.008616666,394
0.01028333,523
0.01195,595
0.01361667,640
0.01528333,590
0.01695,547
0.01861667,474
0.02028333,632
0.02195,512
0.02361667,483
0.02528333,486
0.02695,522
0.02861667,550
0.03028333,553
0.03195,600
0.03361667,626
0.03528333,479
0.03695,659
0.03861667,732
0.04028333,627
0.04195,496
0.04361667,498
0.04528333,671
0.04695,645
0.04861667,577
0.05028334,555
0.05195,556
0.05361667,617
0.05528333,623
0.05695,540
0.05861667,540
0.06028333,618
0.06195,514
0.06361666,655
0.06528334,444
0.06695,521
0.06861667,547
0.07028333,569
0.07195,407
0.07361667,562
0.07528333,419
0.07695,628
0.07861666,533
0.08028334,522
0.08195,481
0.08361667,486
0.08528333,491
0.08695,551
0.08861667,549
0.09028333,559
0.09195,570
0.09361666,547
0.09528334,524
0.09695,485
0.09861667,452
0.1002833,481
0.10195,578
0.1036167,533
0.1052833,488
0.10695,616
0.1086167,449
0.1102833,561
0.11195,455
0.1136167,526
0.1152833,441
0.11695,493
0.1186167,544
0.1202833,530
0.12195,417
0.1236167,522
0.1252833,608
0.12695,588
0.1286167,634
0.1302833,616
0.13195,473
0.1336167,483
0.1352833,493
0.13695,591
0.1386167,599
0.1402833,607
0.14195,649
0.1436167,510
0.1452833,541
0.14695,643
0.1486167,506
0.1502833,589
0.15195,642
0.1536167,545
0.1552833,547
0.15695,443
0.1586167,454
0.1602833,510
0.16195,507
0.1636167,522
0.1652833,441
0.16695,526
0.1686167,580
0.1702833,634
0.17195,436
0.1736167,422
0.1752833,541
0.17695,385
0.1786167,480
0.1802833,579
0.18195,568
0.1836167,435
0.1852833,493
0.18695,502
0.1886167,608
0.1902833,567
0.19195,558
0.1936167,519
0.1952833,519
0.19695,519
0.1986167,470
0.2002833,420
0.20195,489
0.2036167,451
0.2052833,493
0.20695,535
0.2086167,399
0.2102833,555
0.21195,526
0.2136167,529
0.2152833,484
0.21695,477
0.2186167,487
0.2202833,473
0.22195,494
0.2236167,487
0.2252833,479
0.22695,520
0.2286167,513
0.2302833,506
0.23195,604
0.2336167,623
0.2352833,456
0.23695,551
0.2386167,516
0.2402833,480
0.24195,580
0.2436167,554
0.2452833,491
0.2469667,498
0.2486167,512
0.2502833,502
0.25195,492
0.2536167,522
0.2552833,551
0.25695,440
0.2586167,514
0.2602833,451
0.26195,421
0.2636167,379
0.2652833,500
0.26695,476
0.2686167,348
0.2702833,504
0.27195,501
0.2736167,459
0.2752833,536
0.27695,434
0.2786167,521
0.2802833,510
0.28195,433
0.2836167,484
0.2852833,536
0.28695,682
0.2886167,626
0.2902833,509
0.29195,574
0.2936167,531
0.2952833,535
0.29695,439
0.2986333,465
0.3002833,616
0.30195,637
0.3036167,677
0.3052833,544
0.30695,687
0.3086167,553
0.3102833,601
0.31195,689
0.3136167,721
0.3153,565
0.31695,575
0.3186167,648
0.3202833,674
0.32195,668
0.3236167,542
0.3252833,668
0.32695,533
0.3286167,537
0.3302833,479
0.33195,493
0.3336333,507
0.3352833,640
0.33695,654
0.3386167,469
0.3402833,510
0.34195,528
0.3436167,563
0.3453,533
0.3469667,504
0.3486167,510
0.3503,516
0.35195,495
0.3536167,522
0.3552833,561
0.35695,601
0.3586167,577
0.3602833,585
0.3619667,508
0.3636167,864
0.3652833,1444
0.36695,1652
0.3686333,2747
0.3703,3418
0.3719667,3639
0.3736167,3617
0.3753,3845
0.37695,4109
0.3786333,4290
0.3802833,4471
0.38195,4406
0.3836167,4509
0.3853,4414
0.3869667,3766
0.3886333,3493
0.3902833,2606
0.39195,2494
0.3936167,1975
0.3953,1407
0.3969667,1437
0.3986167,1066
0.4002833,1172
0.40195,1137
0.4036333,1198
0.4053,998
0.40695,1172
0.4086333,1165
0.4103,1136
0.4119667,1298
0.4136333,1343
0.4153,1256
0.41695,1261
0.4186167,1388
0.4203,1379
0.4219667,1369
0.4236333,1368
0.4253,1366
0.4269667,1367
0.4286333,1368
0.4302833,1363
0.43195,1770
0.4336167,1752
0.4352833,2928
0.43695,4371
0.4386333,6476
0.4403,11040
0.4419667,15820
0.4436333,23460
0.4453,35920
0.4469667,47648
0.4486167,62304
0.4503,77504
0.45195,92432
0.4536333,107904
0.4553,116320
0.4569667,127920
0.4586333,136704
0.4603,143808
0.4619667,145856
0.4636333,148672
0.4653,151872
0.4669667,156864
0.4686333,159168
0.4703,167360
0.4719667,176512
0.4736333,183872
0.4753,188928
0.4769667,193664
0.4786333,197312
0.4803,193408
0.4819667,187904
0.4836333,175424
0.4853,160832
0.4869667,144256
0.4886333,122880
0.4903,106048
0.4919667,91744
0.4936333,73184
0.4953,61440
0.4969667,49984
0.4986333,41968
0.5003,31308
0.5019667,25536
0.5036333,21152
0.5053,16880
0.5069667,13960
0.5086333,11204
0.5103,9452
0.5119666,7787
0.5136333,6895
0.5153,6097
0.5169666,5164
0.5186333,4934
0.5203,4403
0.5219667,4084
0.5236334,3897
0.5253,3310
0.5269667,3103
0.5286334,3040
0.5303,2796
0.5319667,2685
0.5336334,2872
0.5353,2695
0.5369667,2351
0.5386333,2201
0.5403,2478
0.5419667,2169
0.5436333,2312
0.5453,2044
0.5469667,2090
0.5486333,1696
0.5503,2016
0.5519667,1622
0.5536333,1798
0.5553,1724
0.5569667,1918
0.5586333,1540
0.5603,1461
0.5619667,1687
0.5636333,1553
0.5653,1617
0.5669667,1543
0.5686333,1463
0.5703,1397
0.5719666,1295
0.5736333,1333
0.5753,1372
0.5769666,1313
0.5786333,1321
0.5803,1231
0.5819666,1423
0.5836333,1340
0.5853,1257
0.5869667,1378
0.5886334,1303
0.5903,1179
0.5919667,1182
0.5936334,1275
0.5953,1529
0.5969667,1497
0.5986333,1292
0.6003,1378
0.6019667,1417
0.6036333,1205
0.6053,1532
0.6069667,1553
0.6086333,1329
0.6103,1224
0.6119667,1308
0.6136333,1331
0.6153,1251
0.6169667,1261
0.6186333,1174
0.6203,1127
0.6219667,1142
0.6236333,1148
0.6253,1154
0.6269667,1020
0.6286333,1039
0.6303,1057
0.6319667,1068
0.6336333,1076
0.6353,1034
0.6369666,953
0.6386333,872
0.6403,910
0.6419666,949
0.6436333,979
0.6453,1009
0.6469667,870
0.6486334,1100
0.6503,1006
0.6519667,1096
0.6536334,797
0.6553,898
0.6569667,1056
0.6586334,839
0.6603,978
0.6619667,795
0.6636333,748
0.6653,869
0.6669667,770
0.6686333,781
0.6703,712
0.6719667,752
0.6736333,780
0.6753,780
0.6769667,814
0.6786333,717
0.6803,918
0.6819667,990
0.6836333,765
0.6853,640
0.6869667,1045
0.6886333,808
0.6903,806
0.6919667,942
0.6936333,758
0.6953,740
0.6969666,855
0.6986333,790
0.7003,778
0.7019666,916
0.7036333,894
0.7053,674
0.7069666,698
0.7086333,856
0.7103,722
0.7119667,751
0.7136334,779
0.7153,735
0.7169667,727
0.7186334,719
0.7203,770
0.7219667,791
0.7236333,779
0.7253,695
0.7269667,762
0.7286333,686
0.7303,611
0.7319667,879
0.7336333,888
0.7353,763
0.7369667,903
0.7386333,546
0.7403,841
0.7419667,690
0.7436333,738
0.7453,918
0.7469667,815
0.7486333,928
0.7503,698
0.7519667,891
0.7536333,898
0.7553,847
0.7569667,902
0.7586333,849
0.7603,687
0.7619666,816
0.7636333,866
0.7653,775
0.7669666,751
0.7686333,798
0.7703,844
0.7719667,664
0.7736334,861
0.7753,608
0.7769667,922
0.7786334,619
0.7803,709
0.7819667,767
0.7836334,636
0.7853,778
0.7869667,843
0.7886333,660
0.7903,833
0.7919667,886
0.7936333,845
0.7953,699
0.7969667,667
0.7986333,717
0.8003,795
0.8019667,895
0.8036333,888
0.8053,692
0.8069667,697
0.8086333,683
0.8103,767
0.8119667,722
0.8136333,678
0.8153,718
0.8169667,787
0.8186333,767
0.8203,747
0.8219666,810
0.8236333,779
0.8253,748
0.8269666,969
0.8286333,1033
0.8303,832
0.8319666,772
0.8336333,812
0.8353,949
0.8369667,945
0.8386334,780
0.8403,852
0.8419667,818
0.8436334,918
0.8453,931
0.8469667,945
0.8486333,930
0.8503,846
0.8519667,820
0.8536333,944
0.8553,818
0.8569667,883
0.8586333,726
0.8603,862
0.8619667,645
0.8636333,864
0.8653,794
0.8669667,802
0.8686333,698
0.8703,657
0.8719667,782
0.8736333,798
0.8753,716
0.8769667,844
0.8786333,1090
0.8803,1138
0.8819667,1820
0.8836333,2077
0.8853,2337
0.8869666,2760
0.8886333,2967
0.8903,3203
0.8919666,3262
0.8936333,3054
0.8953,3309
0.8969667,3564
0.8986334,3849
0.9003,3847
0.9019667,3574
0.9036334,3858
0.9053,3709
0.9069667,3686
0.9086334,3709
0.9103,3858
0.9119667,3872
0.9136333,3672
0.9153,3841
0.9169667,3455
0.9186333,3895
0.9203,3983
0.9219667,3434
0.9236333,3567
0.9253,3700
0.9269667,3655
0.9286333,3565
0.9303,3718
0.9319667,3549
0.9336333,3588
0.9353,3457
0.9369667,3534
0.9386333,3399
0.9403,3250
0.9419667,3161
0.9436333,3009
0.9453,2724
0.9469666,2857
0.9486333,2498
0.9503,2548
0.9519666,2518
0.9536333,2689
0.9553,2287
0.9569666,2280
0.9586333,2108
0.9603,2197
0.9619667,1885
0.9636334,1800
0.9653,1678
0.9669667,1696
0.9686334,1551
0.9703,1296
0.9719667,1443
0.9736333,1167
0.9753,1342
0.9769667,1049
0.9786333,1071
0.9803,1157
0.9819667,869
0.9836333,782
0.9853,1000
0.9869667,769
0.9886333,797
0.9903,1000
0.9919667,675
0.9936333,579
0.9953,601
0.9969667,550
0.9986333,793
1.0003,793
1.001967,635
1.003633,671
1.0053,734
1.006967,532
1.008633,556
1.0103,544
1.011967,601
1.013633,659
1.0153,600
1.016967,542
1.018633,426
1.0203,572
1.021967,475
1.023633,531
1.0253,695
1.026967,773
1.028633,690
1.0303,725
1.031967,599
1.033633,599
1.0353,575
1.036967,424
1.038633,626
1.0403,765
1.041967,671
1.043633,697
1.0453,568
1.046967,674
1.048633,652
1.0503,628
1.051967,568
1.053633,648
1.0553,656
1.056967,664
1.058633,560
1.0603,605
1.061967,672
1.063633,734
1.0653,726
1.066967,704
1.068633,619
1.0703,565
1.071967,749
1.073633,727
1.0753,793
1.076967,611
1.078633,810
1.0803,595
1.081967,510
1.083633,800
1.0853,669
1.086967,689
1.088633,696
1.0903,675
1.091967,688
1.093633,595
1.0953,617
1.096967,639
1.098633,615
1.1003,515
1.101967,651
1.103633,613
1.1053,641
1.106967,670
1.108633,656
1.1103,641
1.111967,651
1.113633,671
1.1153,691
1.116967,725
1.118633,561
1.1203,591
1.121967,604
1.123633,623
1.1253,642
1.126967,640
1.128633,639
1.1303,655
1.131967,702
1.133633,692
1.1353,631
1.136967,615
1.138633,630
1.1403,650
1.141967,629
1.143633,607
1.1453,541
1.146967,475
1.148633,570
1.1503,665
1.151967,632
1.153633,650
1.1553,668
1.156967,660
1.158633,651
1.1603,611
1.161967,801
1.163633,803
1.1653,704
1.166967,720
1.168633,676
1.1703,703
1.171967,729
1.173633,724
1.1753,697
1.176967,670
1.178633,812
1.1803,837
1.181967,883
1.183633,789
1.1853,672
1.186967,768
1.188633,788
1.1903,655
1.191967,755
1.193633,824
1.1953,514
1.196967,768
1.198633,743
