"SampleName","A2Rd2_02-91"
"Target Mass 1",
"Column Name","IA-3 (3um, 4.6X100)"
"Channel","QDa 1: SIR Ch2"
0.00195,484
0.003616667,581
0.005283333,777
0.00695,748
0.008616666,779
0.01028333,921
0.01195,954
0.01361667,847
0.01528333,782
0.01695,863
0.01861667,850
0.02028333,837
0.02195,877
0.02361667,916
0.02528333,906
0.02695,812
0.02861667,956
0.03028333,954
0.03195,1026
0.03361667,1120
0.03528333,814
0.03695,897
0.03861667,951
0.04028333,1008
0.04195,986
0.04361667,965
0.04528333,984
0.04695,1004
0.04861667,993
0.05028334,931
0.05195,868
0.05361667,883
0.05528333,883
0.05695,883
0.05861667,890
0.06028333,897
0.06195,981
0.06361666,1155
0.06528334,1091
0.06695,1112
0.06861667,1036
0.07028333,785
0.07195,930
0.07361667,1074
0.07528333,986
0.07695,857
0.07861666,1056
0.08028334,810
0.08195,881
0.08361667,965
0.08528333,881
0.08695,935
0.08861667,946
0.09028333,811
0.09195,964
0.09361666,717
0.09528334,755
0.09695,794
0.09861667,958
0.1002833,979
0.10195,911
0.1036167,855
0.1052833,875
0.10695,977
0.1086167,974
0.1102833,786
0.11195,1011
0.1136167,985
0.1152833,799
0.11695,757
0.1186167,866
0.1202833,939
0.12195,886
0.1236167,886
0.1252833,887
0.12695,888
0.1286167,889
0.1302833,919
0.13195,949
0.1336167,905
0.1352833,861
0.13695,801
0.1386167,910
0.1402833,945
0.14195,951
0.1436167,797
0.1452833,715
0.14695,843
0.1486167,1022
0.1502833,985
0.15195,819
0.1536167,796
0.1552833,877
0.15695,848
0.1586167,819
0.1602833,956
0.16195,894
0.1636167,831
0.1652833,970
0.16695,766
0.1686167,799
0.1702833,620
0.17195,877
0.1736167,938
0.1752833,889
0.17695,962
0.1786167,913
0.1802833,864
0.18195,908
0.1836167,894
0.1852833,930
0.18695,895
0.1886167,914
0.1902833,822
0.19195,910
0.1936167,810
0.1952833,884
0.19695,957
0.1986167,1007
0.2002833,850
0.20195,833
0.2036167,963
0.2052833,904
0.20695,944
0.2086167,906
0.2102833,983
0.21195,929
0.2136167,874
0.2152833,897
0.21695,974
0.2186167,960
0.2202833,946
0.22195,1044
0.2236167,1059
0.2252833,1190
0.22695,1170
0.2286167,1244
0.2302833,1212
0.23195,1180
0.2336167,1036
0.2352833,1139
0.23695,1240
0.2386167,1092
0.2402833,1158
0.24195,1191
0.2436167,1195
0.2452833,1199
0.24695,1217
0.2486167,1044
0.2502833,1335
0.25195,1184
0.2536167,1181
0.2552833,1177
0.25695,1002
0.2586167,1103
0.2602833,981
0.26195,966
0.2636167,1059
0.2652833,1024
0.26695,1095
0.2686167,1031
0.2702833,1140
0.27195,1191
0.2736167,898
0.2752833,1217
0.27695,1161
0.2786167,1107
0.2803,886
0.28195,1198
0.2836167,1095
0.2852833,1038
0.28695,980
0.2886167,987
0.2902833,1175
0.29195,1187
0.2936167,871
0.2952833,1117
0.29695,1195
0.2986333,1166
0.3002833,919
0.30195,1108
0.3036167,1281
0.3052833,914
0.30695,1097
0.3086333,1304
0.3102833,1143
0.31195,1086
0.3136167,1248
0.3153,1392
0.31695,1311
0.3186167,1219
0.3202833,1196
0.32195,1291
0.3236167,1431
0.3252833,1371
0.32695,1311
0.3286167,1360
0.3302833,1205
0.33195,1167
0.3336333,1398
0.3352833,1229
0.33695,1162
0.3386167,1389
0.3402833,1083
0.34195,980
0.3436167,1254
0.3452833,1122
0.34695,1285
0.3486167,1274
0.3503,1271
0.35195,1190
0.3536167,1120
0.3553,1282
0.35695,1321
0.3586333,1302
0.3602833,1282
0.36195,1156
0.3636333,1526
0.3653,2016
0.36695,2766
0.3686333,3219
0.3702833,3009
0.3719667,2729
0.3736167,2908
0.3752833,2901
0.37695,2495
0.3786167,2642
0.3803,2298
0.38195,2408
0.3836167,2503
0.3853,1966
0.38695,1650
0.3886333,1606
0.3903,1073
0.39195,895
0.3936167,851
0.3952833,717
0.3969667,630
0.3986167,729
0.4002833,524
0.40195,522
0.4036333,522
0.4053,407
0.4069667,492
0.4086333,455
0.4102833,492
0.41195,530
0.4136333,788
0.4152833,771
0.41695,708
0.4186167,726
0.4203,713
0.4219667,714
0.4236333,716
0.4253,675
0.4269667,634
0.4286167,725
0.4303,933
0.43195,878
0.4336167,823
0.4352833,767
0.43695,933
0.4386333,943
0.4403,976
0.4419667,956
0.4436167,935
0.4453,1139
0.4469667,1184
0.4486333,1226
0.4503,1008
0.4519667,1197
0.4536333,940
0.4553,1035
0.4569667,1131
0.4586333,1333
0.4603,1455
0.4619667,1393
0.4636333,1162
0.4653,1140
0.4669667,1241
0.4686333,1237
0.4703,1233
0.4719667,1269
0.4736333,1156
0.4753,1231
0.4769667,975
0.4786333,1049
0.4803,1189
0.4819667,1169
0.4836333,1149
0.4853,1146
0.4869667,1219
0.4886333,1218
0.4903,1217
0.4919667,1227
0.4936333,1238
0.4953,1272
0.4969667,1156
0.4986333,969
0.5003,1083
0.5019667,992
0.5036333,982
0.5053,973
0.5069667,848
0.5086333,1080
0.5103,986
0.5119666,925
0.5136333,1014
0.5153,981
0.5169666,963
0.5186333,945
0.5203,957
0.5219667,970
0.5236334,961
0.5253,937
0.5269667,913
0.5286334,895
0.5303,1006
0.5319667,1003
0.5336334,1000
0.5353,1017
0.5369667,948
0.5386333,914
0.5403,984
0.5419667,1131
0.5436333,1081
0.5453,851
0.5469667,839
0.5486333,1059
0.5503,1027
0.5519667,884
0.5536333,862
0.5553,840
0.5569667,846
0.5586333,852
0.5603,886
0.5619667,920
0.5636333,1007
0.5653,934
0.5669667,860
0.5686333,1015
0.5703,905
0.5719666,952
0.5736333,877
0.5753,889
0.5769666,942
0.5786333,995
0.5803,947
0.5819666,900
0.5836333,836
0.5853,771
0.5869667,880
0.5886334,853
0.5903,825
0.5919667,918
0.5936334,948
0.5953,978
0.5969667,761
0.5986333,1030
0.6003,937
0.6019667,1116
0.6036333,1010
0.6053,1185
0.6069667,1035
0.6086333,997
0.6103,823
0.6119667,1062
0.6136333,1062
0.6153,944
0.6169667,786
0.6186333,887
0.6203,883
0.6219667,854
0.6236333,825
0.6253,829
0.6269667,879
0.6286333,930
0.6303,936
0.6319667,943
0.6336333,797
0.6353,1036
0.6369666,820
0.6386333,999
0.6403,871
0.6419666,969
0.6436333,914
0.6453,909
0.6469667,865
0.6486334,947
0.6503,925
0.6519667,903
0.6536334,821
0.6553,1105
0.6569667,1036
0.6586334,1136
0.6603,1017
0.6619667,942
0.6636333,902
0.6653,967
0.6669667,861
0.6686333,797
0.6703,877
0.6719667,938
0.6736333,996
0.6753,797
0.6769667,851
0.6786333,846
0.6803,828
0.6819667,813
0.6836333,799
0.6853,977
0.6869667,963
0.6886333,884
0.6903,755
0.6919667,768
0.6936333,805
0.6953,842
0.6969666,953
0.6986333,945
0.7003,944
0.7019666,924
0.7036333,715
0.7053,840
0.7069666,1087
0.7086333,997
0.7103,889
0.7119667,906
0.7136334,817
0.7153,1006
0.7169667,1064
0.7186334,978
0.7203,988
0.7219667,1005
0.7236333,928
0.7253,945
0.7269667,897
0.7286333,933
0.7303,901
0.7319667,856
0.7336333,900
0.7353,943
0.7369667,944
0.7386333,945
0.7403,769
0.7419667,805
0.7436333,996
0.7453,1038
0.7469667,761
0.7486333,998
0.7503,876
0.7519667,817
0.7536333,781
0.7553,868
0.7569667,796
0.7586333,803
0.7603,811
0.7619666,963
0.7636333,1299
0.7653,1182
0.7669666,818
0.7686333,921
0.7703,813
0.7719667,941
0.7736334,860
0.7753,839
0.7769667,1062
0.7786334,1021
0.7803,685
0.7819667,1015
0.7836334,774
0.7853,708
0.7869667,903
0.7886333,936
0.7903,969
0.7919667,935
0.7936333,901
0.7953,1074
0.7969667,1071
0.7986333,1001
0.8003,1050
0.8019667,971
0.8036333,913
0.8053,939
0.8069667,965
0.8086333,935
0.8103,962
0.8119667,1065
0.8136333,1039
0.8153,1145
0.8169667,869
0.8186333,950
0.8203,957
0.8219666,887
0.8236333,817
0.8253,1029
0.8269666,941
0.8286333,997
0.8303,913
0.8319666,940
0.8336333,967
0.8353,1055
0.8369667,1034
0.8386334,1044
0.8403,998
0.8419667,1023
0.8436334,894
0.8453,1023
0.8469667,906
0.8486333,1023
0.8503,926
0.8519667,999
0.8536333,1011
0.8553,899
0.8569667,848
0.8586333,938
0.8603,1093
0.8619667,1029
0.8636333,1014
0.8653,848
0.8669667,862
0.8686333,873
0.8703,852
0.8719667,832
0.8736333,743
0.8753,899
0.8769667,781
0.8786333,961
0.8803,983
0.8819667,1082
0.8836333,1037
0.8853,1180
0.8869666,1201
0.8886333,1222
0.8903,1062
0.8919666,1432
0.8936333,1323
0.8953,1007
0.8969667,1345
0.8986334,1305
0.9003,1398
0.9019667,1197
0.9036334,1260
0.9053,1293
0.9069667,1164
0.9086334,1144
0.9103,1368
0.9119667,1345
0.9136333,1063
0.9153,1304
0.9169667,1361
0.9186333,1334
0.9203,1387
0.9219667,1547
0.9236333,1040
0.9253,1142
0.9269667,995
0.9286333,1627
0.9303,1485
0.9319667,1181
0.9336333,1155
0.9353,1080
0.9369667,1140
0.9386333,1182
0.9403,1295
0.9419667,1269
0.9436333,1244
0.9453,1188
0.9469666,1293
0.9486333,1223
0.9503,1187
0.9519666,1156
0.9536333,1202
0.9553,1081
0.9569666,1129
0.9586333,1128
0.9603,1081
0.9619667,922
0.9636334,1008
0.9653,1071
0.9669667,1013
0.9686334,955
0.9703,1107
0.9719667,775
0.9736333,923
0.9753,985
0.9769667,893
0.9786333,801
0.9803,883
0.9819667,1020
0.9836333,1147
0.9853,1045
0.9869667,821
0.9886333,1065
0.9903,1117
0.9919667,980
0.9936333,869
0.9953,832
0.9969667,839
0.9986333,806
1.0003,791
1.001967,797
1.003633,979
1.0053,891
1.006967,804
1.008633,895
1.0103,965
1.011967,900
1.013633,976
1.0153,757
1.016967,908
1.018633,692
1.0203,758
1.021967,1032
1.023633,930
1.0253,1014
1.026967,837
1.028633,886
1.0303,864
1.031967,1081
1.033633,1123
1.0353,1049
1.036967,886
1.038633,1138
1.0403,1137
1.041967,910
1.043633,883
1.0453,1097
1.046967,981
1.048633,888
1.0503,893
1.051967,916
1.053633,906
1.0553,897
1.056967,925
1.058633,927
1.0603,964
1.061967,994
1.063633,968
1.0653,979
1.066967,969
1.068633,954
1.0703,939
1.071967,895
1.073633,827
1.0753,758
1.076967,994
1.078633,1061
1.0803,1041
1.081967,869
1.083633,859
1.0853,1086
1.086967,900
1.088633,1082
1.0903,1025
1.091967,853
1.093633,1041
1.0953,761
1.096967,809
1.098633,962
1.1003,801
1.101967,868
1.103633,896
1.1053,821
1.106967,963
1.108633,975
1.1103,921
1.111967,944
1.113633,882
1.1153,811
1.116967,876
1.118633,776
1.1203,792
1.121967,882
1.123633,807
1.1253,732
1.126967,841
1.128633,840
1.1303,807
1.131967,773
1.133633,916
1.1353,940
1.136967,875
1.138633,726
1.1403,839
1.141967,843
1.143633,868
1.1453,850
1.146967,831
1.148633,887
1.1503,943
1.151967,928
1.153633,870
1.1553,899
1.156967,914
1.158633,710
1.1603,844
1.161967,894
1.163633,959
1.1653,860
1.166967,872
1.168633,883
1.1703,873
1.171967,863
1.173633,840
1.1753,968
1.176967,678
1.178633,909
1.1803,789
1.181967,822
1.183633,857
1.1853,781
1.186967,705
1.188633,735
1.1903,738
1.191967,742
1.193633,813
1.1953,859
1.196967,883
1.198633,906
