"SampleName","A2Rd2_02-51"
"Target Mass 1",
"Column Name","IA-3 (3um, 4.6X100)"
"Channel","QDa 1: SIR Ch1"
0.00195,274
0.003616667,485
0.005283333,503
0.00695,546
0.008616666,424
0.01028333,587
0.01195,533
0.01361667,525
0.01528333,481
0.01695,528
0.01861667,523
0.02028333,518
0.02195,537
0.02361667,556
0.02528333,547
0.02695,478
0.02861667,537
0.03028333,478
0.03195,498
0.03361667,533
0.03528333,539
0.03695,507
0.03861667,470
0.04028333,413
0.04195,384
0.04361667,464
0.04528333,582
0.04695,600
0.04861667,588
0.05028334,512
0.05195,480
0.05361667,400
0.05528333,439
0.05695,477
0.05861667,475
0.06028333,473
0.06195,490
0.06361666,441
0.06528334,438
0.06695,484
0.06861667,366
0.07028333,396
0.07195,597
0.07361667,542
0.07528333,451
0.07695,572
0.07861666,504
0.08028334,460
0.08195,543
0.08361667,520
0.08528333,494
0.08695,370
0.08861667,425
0.09028333,388
0.09195,452
0.09361666,516
0.09528334,500
0.09695,460
0.09861667,401
0.1002833,351
0.10195,378
0.1036167,521
0.1052833,502
0.10695,603
0.1086167,508
0.1102833,443
0.11195,563
0.1136167,481
0.1152833,427
0.11695,428
0.1186167,459
0.1202833,491
0.12195,385
0.1236167,445
0.1252833,460
0.12695,463
0.1286167,512
0.1302833,505
0.13195,404
0.1336167,493
0.1352833,465
0.13695,437
0.1386167,413
0.1402833,390
0.14195,441
0.1436167,410
0.1452833,379
0.14695,364
0.1486167,349
0.1502833,358
0.15195,367
0.1536167,380
0.1552833,373
0.15695,366
0.1586167,360
0.1602833,363
0.16195,367
0.1636167,325
0.1652833,283
0.16695,460
0.1686167,487
0.1702833,472
0.17195,481
0.1736167,295
0.1752833,577
0.17695,389
0.1786167,562
0.1802833,386
0.18195,379
0.1836167,452
0.1852833,436
0.18695,420
0.1886167,385
0.1902833,375
0.19195,365
0.1936167,396
0.1952833,428
0.19695,476
0.1986167,461
0.2002833,449
0.20195,541
0.2036167,576
0.2052833,404
0.20695,459
0.2086167,630
0.2102833,436
0.21195,547
0.2136167,434
0.2152833,352
0.21695,474
0.2186167,439
0.2202833,403
0.22195,402
0.2236167,431
0.2252833,460
0.22695,507
0.2286167,471
0.2302833,434
0.23195,447
0.2336167,460
0.2352833,596
0.23695,575
0.2386167,518
0.2402833,325
0.24195,426
0.2436167,460
0.2453,442
0.24695,424
0.2486167,378
0.2502833,436
0.25195,321
0.2536167,469
0.2552833,423
0.25695,467
0.2586167,480
0.2602833,539
0.26195,556
0.2636333,484
0.2652833,454
0.26695,496
0.2686167,456
0.2702833,415
0.27195,389
0.2736167,451
0.2752833,478
0.27695,505
0.2786167,346
0.2803,486
0.28195,475
0.2836167,574
0.2852833,529
0.28695,485
0.2886167,551
0.2902833,506
0.29195,374
0.2936167,468
0.2952833,442
0.29695,501
0.2986333,408
0.3002833,545
0.30195,372
0.3036167,425
0.3052833,444
0.30695,463
0.3086167,572
0.3102833,650
0.31195,608
0.3136167,519
0.3153,629
0.31695,475
0.3186167,451
0.3203,657
0.32195,464
0.3236167,632
0.3252833,510
0.32695,685
0.3286167,445
0.3302833,348
0.33195,469
0.3336333,445
0.3352833,424
0.3369667,404
0.3386167,444
0.3402833,485
0.34195,542
0.3436167,555
0.3452833,511
0.34695,467
0.3486167,572
0.3503,628
0.3519667,726
0.3536333,688
0.3553,508
0.3569667,519
0.3586333,493
0.3602833,536
0.3619667,748
0.3636167,830
0.3653,1191
0.36695,1544
0.3686333,2997
0.3703,3268
0.3719667,3824
0.3736333,3717
0.3753,3702
0.3769667,4057
0.3786333,4495
0.3802833,5138
0.3819667,4988
0.3836167,4718
0.3853,4783
0.3869667,3791
0.3886333,3314
0.3903,3118
0.3919667,2400
0.3936333,2186
0.3952833,1584
0.39695,1677
0.3986333,1178
0.4003,1277
0.4019667,1039
0.4036333,1313
0.4053,1229
0.4069667,1074
0.4086333,1271
0.4103,1218
0.4119667,1124
0.4136333,1467
0.4153,1411
0.4169667,1413
0.4186333,1416
0.4203,1431
0.4219667,1467
0.4236333,1504
0.4253,1541
0.4269667,1741
0.4286333,1711
0.4303,1653
0.4319667,1711
0.4336333,2208
0.4353,2790
0.4369667,4118
0.4386333,6663
0.4403,10896
0.4419667,16332
0.4436333,24320
0.4453,35232
0.4469667,47904
0.4486333,63280
0.4503,79584
0.4519667,94384
0.4536333,108256
0.4553,120864
0.4569667,132224
0.4586333,142912
0.4603,148544
0.4619667,152128
0.4636333,155072
0.4653,157056
0.4669667,159040
0.4686333,164800
0.4703,173376
0.4719667,181952
0.4736333,187968
0.4753,195712
0.4769667,200512
0.4786333,202624
0.4803,200384
0.4819667,191872
0.4836333,182592
0.4853,165184
0.4869667,150080
0.4886333,133632
0.4903,111552
0.4919667,95920
0.4936333,79744
0.4953,64560
0.4969667,51712
0.4986333,42960
0.5003,35664
0.5019667,29140
0.5036333,22696
0.5053,17496
0.5069667,15016
0.5086333,12568
0.5103,10392
0.5119666,8584
0.5136333,7338
0.5153,6262
0.5169666,5693
0.5186333,4959
0.5203,4885
0.5219667,4450
0.5236334,3542
0.5253,3764
0.5269667,3087
0.5286334,3364
0.5303,3486
0.5319667,2814
0.5336334,2806
0.5353,2782
0.5369667,2866
0.5386333,2458
0.5403,2496
0.5419667,2172
0.5436333,2448
0.5453,2458
0.5469667,2208
0.5486333,2100
0.5503,1887
0.5519667,1905
0.5536333,2155
0.5553,1560
0.5569667,1426
0.5586333,1792
0.5603,1799
0.5619667,1282
0.5636333,1463
0.5653,1486
0.5669667,1446
0.5686333,1442
0.5703,1437
0.5719666,1372
0.5736333,1471
0.5753,1142
0.5769666,1256
0.5786333,1380
0.5803,1347
0.5819666,1237
0.5836333,1263
0.5853,1381
0.5869667,1332
0.5886334,1354
0.5903,1387
0.5919667,1300
0.5936334,1125
0.5953,1282
0.5969667,1393
0.5986333,1426
0.6003,1333
0.6019667,1480
0.6036333,1092
0.6053,1185
0.6069667,1294
0.6086333,1336
0.6103,1333
0.6119667,1330
0.6136333,1221
0.6153,1301
0.6169667,1302
0.6186333,1106
0.6203,1200
0.6219667,1378
0.6236333,1223
0.6253,1312
0.6269667,1259
0.6286333,1159
0.6303,1328
0.6319667,1075
0.6336333,1059
0.6353,995
0.6369666,1024
0.6386333,1052
0.6403,1017
0.6419666,982
0.6436333,1160
0.6453,1179
0.6469667,884
0.6486334,1094
0.6503,1103
0.6519667,870
0.6536334,826
0.6553,935
0.6569667,836
0.6586334,852
0.6603,848
0.6619667,796
0.6636333,744
0.6653,732
0.6669667,720
0.6686333,747
0.6703,774
0.6719667,766
0.6736333,759
0.6753,728
0.6769667,738
0.6786333,699
0.6803,802
0.6819667,820
0.6836333,766
0.6853,721
0.6869667,677
0.6886333,705
0.6903,733
0.6919667,718
0.6936333,702
0.6953,691
0.6969666,729
0.6986333,711
0.7003,693
0.7019666,680
0.7036333,667
0.7053,657
0.7069666,646
0.7086333,677
0.7103,658
0.7119667,639
0.7136334,636
0.7153,632
0.7169667,778
0.7186334,749
0.7203,844
0.7219667,728
0.7236333,755
0.7253,608
0.7269667,772
0.7286333,561
0.7303,687
0.7319667,801
0.7336333,694
0.7353,649
0.7369667,757
0.7386333,674
0.7403,802
0.7419667,598
0.7436333,765
0.7453,624
0.7469667,655
0.7486333,528
0.7503,574
0.7519667,717
0.7536333,669
0.7553,660
0.7569667,666
0.7586333,671
0.7603,608
0.7619666,689
0.7636333,634
0.7653,713
0.7669666,769
0.7686333,808
0.7703,676
0.7719667,689
0.7736334,719
0.7753,644
0.7769667,811
0.7786334,813
0.7803,822
0.7819667,793
0.7836334,845
0.7853,639
0.7869667,629
0.7886333,809
0.7903,480
0.7919667,670
0.7936333,533
0.7953,636
0.7969667,723
0.7986333,794
0.8003,703
0.8019667,824
0.8036333,558
0.8053,760
0.8069667,753
0.8086333,716
0.8103,566
0.8119667,691
0.8136333,693
0.8153,664
0.8169667,676
0.8186333,688
0.8203,721
0.8219666,754
0.8236333,736
0.8253,727
0.8269666,749
0.8286333,755
0.8303,719
0.8319666,692
0.8336333,606
0.8353,533
0.8369667,703
0.8386334,747
0.8403,579
0.8419667,783
0.8436334,584
0.8453,764
0.8469667,650
0.8486333,701
0.8503,587
0.8519667,718
0.8536333,653
0.8553,676
0.8569667,681
0.8586333,621
0.8603,634
0.8619667,645
0.8636333,655
0.8653,734
0.8669667,652
0.8686333,570
0.8703,563
0.8719667,485
0.8736333,546
0.8753,607
0.8769667,790
0.8786333,862
0.8803,1453
0.8819667,1541
0.8836333,1862
0.8853,2040
0.8869666,2450
0.8886333,2365
0.8903,2534
0.8919666,2661
0.8936333,2788
0.8953,2705
0.8969667,2499
0.8986334,2782
0.9003,2763
0.9019667,2744
0.9036334,2686
0.9053,2724
0.9069667,2748
0.9086334,2687
0.9103,2626
0.9119667,2580
0.9136333,2534
0.9153,2400
0.9169667,2566
0.9186333,2732
0.9203,3073
0.9219667,3013
0.9236333,2614
0.9253,2940
0.9269667,2886
0.9286333,2419
0.9303,2770
0.9319667,2914
0.9336333,2515
0.9353,2484
0.9369667,2640
0.9386333,2632
0.9403,2623
0.9419667,2333
0.9436333,2530
0.9453,2115
0.9469666,2343
0.9486333,2133
0.9503,2226
0.9519666,2164
0.9536333,1925
0.9553,1930
0.9569666,1870
0.9586333,1550
0.9603,1502
0.9619667,1446
0.9636334,1312
0.9653,1275
0.9669667,1240
0.9686334,1079
0.9703,1046
0.9719667,1114
0.9736333,1072
0.9753,1030
0.9769667,959
0.9786333,979
0.9803,998
0.9819667,903
0.9836333,909
0.9853,601
0.9869667,791
0.9886333,737
0.9903,722
0.9919667,613
0.9936333,697
0.9953,599
0.9969667,620
0.9986333,642
1.0003,618
1.001967,594
1.003633,592
1.0053,562
1.006967,532
1.008633,571
1.0103,407
1.011967,445
1.013633,540
1.0153,437
1.016967,606
1.018633,584
1.0203,640
1.021967,634
1.023633,663
1.0253,593
1.026967,513
1.028633,504
1.0303,549
1.031967,553
1.033633,611
1.0353,632
1.036967,520
1.038633,602
1.0403,653
1.041967,565
1.043633,602
1.0453,640
1.046967,470
1.048633,720
1.0503,579
1.051967,539
1.053633,498
1.0553,602
1.056967,619
1.058633,591
1.0603,485
1.061967,558
1.063633,519
1.0653,583
1.066967,548
1.068633,512
1.0703,504
1.071967,495
1.073633,440
1.0753,604
1.076967,627
1.078633,432
1.0803,637
1.081967,504
1.083633,640
1.0853,551
1.086967,668
1.088633,677
1.0903,752
1.091967,475
1.093633,601
1.0953,485
1.096967,537
1.098633,578
1.1003,488
1.101967,571
1.103633,521
1.1053,472
1.106967,487
1.108633,650
1.1103,745
1.111967,652
1.113633,560
1.1153,535
1.116967,683
1.118633,499
1.1203,539
1.121967,582
1.123633,562
1.1253,540
1.126967,547
1.128633,592
1.1303,638
1.131967,615
1.133633,651
1.1353,479
1.136967,579
1.138633,574
1.1403,590
1.141967,606
1.143633,581
1.1453,555
1.146967,697
1.148633,730
1.1503,691
1.151967,677
1.153633,815
1.1553,538
1.156967,615
1.158633,563
1.1603,466
1.161967,530
1.163633,556
1.1653,583
1.166967,733
1.168633,766
1.1703,677
1.171967,589
1.173633,537
1.1753,638
1.176967,595
1.178633,665
1.1803,622
1.181967,708
1.183633,531
1.1853,651
1.186967,587
1.188633,569
1.1903,540
1.191967,636
1.193633,623
1.1953,795
1.196967,810
1.198633,525
