"SampleName","A2Rd2_02-54"
"Target Mass 1",
"Column Name","IA-3 (3um, 4.6X100)"
"Channel","QDa 1: SIR Ch1"
0.00195,343
0.003616667,434
0.005283333,651
0.00695,419
0.008616666,663
0.01028333,597
0.01195,592
0.01361667,512
0.01528333,546
0.01695,599
0.01861667,533
0.02028333,466
0.02195,418
0.02361667,555
0.02528333,571
0.02695,508
0.02861667,465
0.03028333,588
0.03195,578
0.03361667,675
0.03528333,654
0.03695,535
0.03861667,470
0.04028333,479
0.04195,505
0.04361667,476
0.04528333,447
0.04695,495
0.04861667,542
0.05028334,516
0.05195,601
0.05361667,590
0.05528333,579
0.05695,628
0.05861667,516
0.06028333,611
0.06195,431
0.06361666,516
0.06528334,490
0.06695,459
0.06861667,427
0.07028333,489
0.07195,552
0.07361667,581
0.07528333,505
0.07695,531
0.07861666,558
0.08028334,493
0.08195,510
0.08361667,565
0.08528333,458
0.08695,521
0.08861667,482
0.09028333,502
0.09195,478
0.09361666,477
0.09528334,477
0.09695,564
0.09861667,529
0.1002833,494
0.10195,455
0.1036167,487
0.1052833,481
0.10695,475
0.1086167,462
0.1102833,484
0.11195,505
0.1136167,466
0.1152833,426
0.11695,575
0.1186167,548
0.1202833,522
0.12195,406
0.1236167,533
0.1252833,558
0.12695,523
0.1286167,490
0.1302833,517
0.13195,544
0.1336167,527
0.1352833,514
0.13695,559
0.1386167,560
0.1402833,565
0.14195,570
0.1436167,497
0.1452833,551
0.14695,435
0.1486167,565
0.1502833,445
0.15195,601
0.1536167,489
0.1552833,457
0.15695,488
0.1586167,470
0.1602833,452
0.16195,422
0.1636167,549
0.1652833,586
0.16695,585
0.1686167,547
0.1702833,546
0.17195,561
0.1736167,431
0.1752833,522
0.17695,623
0.1786167,637
0.1802833,484
0.18195,544
0.1836167,543
0.1852833,542
0.18695,600
0.1886167,425
0.1902833,598
0.19195,483
0.1936167,501
0.1952833,530
0.19695,440
0.1986167,500
0.2002833,546
0.20195,437
0.2036167,555
0.2052833,517
0.20695,552
0.2086167,519
0.2102833,506
0.21195,493
0.2136167,513
0.2152833,431
0.21695,507
0.2186167,583
0.2202833,526
0.22195,441
0.2236167,581
0.2252833,555
0.22695,465
0.2286167,473
0.2302833,481
0.23195,491
0.2336167,501
0.2352833,576
0.23695,578
0.2386167,539
0.2402833,501
0.24195,474
0.2436167,532
0.2452833,565
0.24695,598
0.2486167,515
0.2502833,367
0.25195,524
0.2536167,623
0.2552833,668
0.25695,434
0.2586333,563
0.2602833,586
0.26195,432
0.2636333,602
0.2652833,443
0.2669667,471
0.2686167,461
0.2703,530
0.27195,372
0.2736167,591
0.2752833,412
0.27695,653
0.2786167,500
0.2803,511
0.28195,469
0.2836167,493
0.2852833,507
0.28695,587
0.2886167,595
0.2902833,484
0.29195,462
0.2936167,381
0.2952833,495
0.29695,620
0.2986333,591
0.3002833,553
0.30195,616
0.3036333,486
0.3052833,520
0.30695,496
0.3086333,507
0.3102833,519
0.31195,514
0.3136167,509
0.3153,516
0.31695,527
0.3186167,526
0.3203,525
0.3219667,582
0.3236167,556
0.3252833,530
0.32695,561
0.3286167,548
0.3302833,480
0.33195,577
0.3336333,576
0.3352833,572
0.3369667,438
0.3386333,518
0.3403,436
0.34195,538
0.3436167,532
0.3452833,526
0.34695,561
0.3486167,454
0.3503,491
0.35195,633
0.3536167,568
0.3553,604
0.3569667,510
0.3586333,506
0.3602833,661
0.3619667,638
0.3636167,892
0.3652833,1356
0.36695,1967
0.3686333,2167
0.3703,2828
0.3719667,2913
0.3736333,3762
0.3753,3360
0.37695,4249
0.3786167,3985
0.3803,4571
0.3819667,4334
0.3836333,4097
0.3853,3972
0.3869667,3569
0.3886333,3118
0.3903,2742
0.3919667,2201
0.3936333,1766
0.3953,1673
0.3969667,1485
0.3986333,1311
0.4003,1257
0.4019667,1359
0.4036333,1123
0.4053,1229
0.4069667,1044
0.4086333,1084
0.4103,1320
0.4119667,1275
0.4136333,1229
0.4153,1191
0.4169667,1327
0.4186333,1388
0.4203,1371
0.4219667,1371
0.4236333,1372
0.4253,1422
0.4269667,1472
0.4286333,1508
0.4303,1627
0.4319667,2022
0.4336333,2729
0.4353,3745
0.4369667,5870
0.4386333,9116
0.4403,13980
0.4419667,22484
0.4436333,33392
0.4453,47824
0.4469667,62016
0.4486333,76544
0.4503,92720
0.4519667,109152
0.4536333,123920
0.4553,133376
0.4569667,141056
0.4586333,150464
0.4603,155136
0.4619667,157504
0.4636333,161408
0.4653,162560
0.4669667,166400
0.4686333,172032
0.4703,181312
0.4719667,185984
0.4736333,193920
0.4753,201920
0.4769667,204160
0.4786333,201984
0.4803,198400
0.4819667,189824
0.4836333,179392
0.4853,164800
0.4869667,139072
0.4886333,123040
0.4903,104320
0.4919667,88944
0.4936333,74736
0.4953,61744
0.4969667,48656
0.4986333,39264
0.5003,31224
0.5019667,25568
0.5036333,20292
0.5053,16384
0.5069667,13868
0.5086333,11372
0.5103,9568
0.5119666,8740
0.5136333,7337
0.5153,6271
0.5169666,5393
0.5186333,4907
0.5203,4802
0.5219667,4282
0.5236334,3833
0.5253,3794
0.5269667,3280
0.5286334,3299
0.5303,3159
0.5319667,3093
0.5336334,2738
0.5353,3167
0.5369667,2649
0.5386333,2700
0.5403,2518
0.5419667,2462
0.5436333,2486
0.5453,2391
0.5469667,2436
0.5486333,2152
0.5503,2107
0.5519667,1741
0.5536333,2124
0.5553,1759
0.5569667,1921
0.5586333,2048
0.5603,1879
0.5619667,1576
0.5636333,1742
0.5653,1645
0.5669667,1612
0.5686333,1400
0.5703,1713
0.5719666,1599
0.5736333,1558
0.5753,1432
0.5769666,1317
0.5786333,1264
0.5803,1242
0.5819666,1221
0.5836333,1560
0.5853,1686
0.5869667,1554
0.5886334,1325
0.5903,1208
0.5919667,1418
0.5936334,1540
0.5953,1463
0.5969667,1502
0.5986333,1541
0.6003,1447
0.6019667,1153
0.6036333,1413
0.6053,1431
0.6069667,1448
0.6086333,1569
0.6103,1217
0.6119667,1387
0.6136333,1373
0.6153,1386
0.6169667,1382
0.6186333,1249
0.6203,1286
0.6219667,1323
0.6236333,1081
0.6253,1295
0.6269667,1163
0.6286333,1090
0.6303,1017
0.6319667,1243
0.6336333,1314
0.6353,1172
0.6369666,1183
0.6386333,1090
0.6403,1118
0.6419666,1039
0.6436333,895
0.6453,953
0.6469667,854
0.6486334,836
0.6503,911
0.6519667,985
0.6536334,966
0.6553,1023
0.6569667,965
0.6586334,690
0.6603,1146
0.6619667,896
0.6636333,939
0.6653,792
0.6669667,918
0.6686333,750
0.6703,998
0.6719667,1053
0.6736333,956
0.6753,902
0.6769667,1075
0.6786333,903
0.6803,975
0.6819667,968
0.6836333,781
0.6853,744
0.6869667,992
0.6886333,961
0.6903,766
0.6919667,753
0.6936333,679
0.6953,727
0.6969666,775
0.6986333,807
0.7003,840
0.7019666,791
0.7036333,678
0.7053,812
0.7069666,822
0.7086333,815
0.7103,823
0.7119667,831
0.7136334,671
0.7153,813
0.7169667,744
0.7186334,881
0.7203,856
0.7219667,794
0.7236333,732
0.7253,1006
0.7269667,950
0.7286333,732
0.7303,752
0.7319667,716
0.7336333,738
0.7353,761
0.7369667,801
0.7386333,793
0.7403,786
0.7419667,736
0.7436333,682
0.7453,706
0.7469667,819
0.7486333,834
0.7503,750
0.7519667,902
0.7536333,928
0.7553,920
0.7569667,877
0.7586333,1026
0.7603,688
0.7619666,830
0.7636333,689
0.7653,761
0.7669666,796
0.7686333,674
0.7703,789
0.7719667,807
0.7736334,692
0.7753,746
0.7769667,726
0.7786334,706
0.7803,648
0.7819667,818
0.7836334,868
0.7853,738
0.7869667,930
0.7886333,638
0.7903,793
0.7919667,813
0.7936333,659
0.7953,803
0.7969667,628
0.7986333,730
0.8003,781
0.8019667,729
0.8036333,666
0.8053,645
0.8069667,810
0.8086333,855
0.8103,668
0.8119667,852
0.8136333,658
0.8153,800
0.8169667,767
0.8186333,728
0.8203,689
0.8219666,749
0.8236333,670
0.8253,837
0.8269666,741
0.8286333,644
0.8303,913
0.8319666,646
0.8336333,970
0.8353,668
0.8369667,776
0.8386334,759
0.8403,813
0.8419667,831
0.8436334,661
0.8453,812
0.8469667,642
0.8486333,913
0.8503,883
0.8519667,624
0.8536333,749
0.8553,856
0.8569667,772
0.8586333,818
0.8603,672
0.8619667,761
0.8636333,803
0.8653,615
0.8669667,591
0.8686333,795
0.8703,666
0.8719667,767
0.8736333,757
0.8753,715
0.8769667,1095
0.8786333,1107
0.8803,1324
0.8819667,1782
0.8836333,2068
0.8853,2226
0.8869666,2926
0.8886333,2614
0.8903,3017
0.8919666,3230
0.8936333,3209
0.8953,2894
0.8969667,2901
0.8986334,2947
0.9003,3276
0.9019667,3582
0.9036334,3515
0.9053,3721
0.9069667,3754
0.9086334,3428
0.9103,3529
0.9119667,3678
0.9136333,3663
0.9153,3869
0.9169667,3946
0.9186333,3558
0.9203,3299
0.9219667,3573
0.9236333,3591
0.9253,3216
0.9269667,3243
0.9286333,3448
0.9303,3319
0.9319667,3190
0.9336333,3112
0.9353,3239
0.9369667,2866
0.9386333,2957
0.9403,3051
0.9419667,2849
0.9436333,2658
0.9453,2362
0.9469666,2730
0.9486333,2339
0.9503,2645
0.9519666,2551
0.9536333,2099
0.9553,2242
0.9569666,2022
0.9586333,1703
0.9603,1895
0.9619667,1825
0.9636334,1648
0.9653,1408
0.9669667,1589
0.9686334,1461
0.9703,1256
0.9719667,1362
0.9736333,1224
0.9753,909
0.9769667,1011
0.9786333,904
0.9803,1018
0.9819667,819
0.9836333,848
0.9853,762
0.9869667,813
0.9886333,748
0.9903,681
0.9919667,693
0.9936333,472
0.9953,736
0.9969667,719
0.9986333,643
1.0003,525
1.001967,524
1.003633,689
1.0053,610
1.006967,532
1.008633,606
1.0103,572
1.011967,673
1.013633,627
1.0153,555
1.016967,429
1.018633,673
1.0203,733
1.021967,734
1.023633,698
1.0253,713
1.026967,577
1.028633,750
1.0303,534
1.031967,667
1.033633,582
1.0353,521
1.036967,630
1.038633,661
1.0403,696
1.041967,536
1.043633,701
1.0453,584
1.046967,428
1.048633,613
1.0503,536
1.051967,577
1.053633,429
1.0553,638
1.056967,675
1.058633,607
1.0603,687
1.061967,638
1.063633,661
1.0653,591
1.066967,626
1.068633,505
1.0703,561
1.071967,617
1.073633,540
1.0753,548
1.076967,555
1.078633,561
1.0803,537
1.081967,512
1.083633,689
1.0853,656
1.086967,627
1.088633,712
1.0903,657
1.091967,763
1.093633,548
1.0953,612
1.096967,581
1.098633,562
1.1003,543
1.101967,572
1.103633,573
1.1053,574
1.106967,588
1.108633,655
1.1103,626
1.111967,598
1.113633,685
1.1153,573
1.116967,610
1.118633,509
1.1203,574
1.121967,640
1.123633,570
1.1253,640
1.126967,659
1.128633,666
1.1303,600
1.131967,611
1.133633,633
1.1353,654
1.136967,648
1.138633,667
1.1403,669
1.141967,535
1.143633,624
1.1453,723
1.146967,466
1.148633,743
1.1503,698
1.151967,635
1.153633,717
1.1553,579
1.156967,546
1.158633,754
1.1603,744
1.161967,573
1.163633,544
1.1653,728
1.166967,669
1.168633,679
1.1703,614
1.171967,606
1.173633,612
1.1753,594
1.176967,576
1.178633,661
1.1803,655
1.181967,632
1.183633,610
1.1853,511
1.186967,508
1.188633,683
1.1903,714
1.191967,651
1.193633,668
1.1953,427
1.196967,721
1.198633,690
