"SampleName","A2Rd2_02-71"
"Target Mass 1",
"Column Name","IA-3 (3um, 4.6X100)"
"Channel","QDa 1: SIR Ch2"
0.00195,435
0.003616667,614
0.005283333,632
0.00695,924
0.008616666,889
0.01028333,819
0.01195,893
0.01361667,966
0.01528333,1081
0.01695,1093
0.01861667,709
0.02028333,787
0.02195,742
0.02361667,836
0.02528333,811
0.02695,899
0.02861667,929
0.03028333,960
0.03195,979
0.03361667,911
0.03528333,832
0.03695,1056
0.03861667,1139
0.04028333,1159
0.04195,1086
0.04361667,969
0.04528333,1045
0.04695,1084
0.04861667,982
0.05028334,1115
0.05195,1120
0.05361667,1087
0.05528333,837
0.05695,1032
0.05861667,985
0.06028333,943
0.06195,1017
0.06361666,877
0.06528334,1033
0.06695,764
0.06861667,1052
0.07028333,835
0.07195,1046
0.07361667,937
0.07528333,799
0.07695,1050
0.07861666,925
0.08028334,800
0.08195,952
0.08361667,1029
0.08528333,1041
0.08695,1101
0.08861667,837
0.09028333,1062
0.09195,935
0.09361666,1090
0.09528334,1145
0.09695,882
0.09861667,1107
0.1002833,749
0.10195,954
0.1036167,984
0.1052833,953
0.10695,945
0.1086167,937
0.1102833,932
0.11195,858
0.1136167,877
0.1152833,888
0.11695,899
0.1186167,793
0.1202833,974
0.12195,1003
0.1236167,1020
0.1252833,1040
0.12695,1061
0.1286167,966
0.1302833,999
0.13195,969
0.1336167,797
0.1352833,951
0.13695,947
0.1386167,1011
0.1402833,974
0.14195,868
0.1436167,1115
0.1452833,1094
0.14695,830
0.1486167,989
0.1502833,1025
0.15195,906
0.1536167,901
0.1552833,1029
0.15695,911
0.1586167,986
0.1602833,748
0.16195,1070
0.1636167,1133
0.1652833,934
0.16695,970
0.1686167,1007
0.1702833,885
0.17195,977
0.1736167,814
0.1752833,932
0.17695,969
0.1786167,936
0.1802833,1031
0.18195,940
0.1836167,849
0.1852833,900
0.18695,915
0.1886167,1043
0.1902833,672
0.19195,921
0.1936167,924
0.1952833,927
0.19695,889
0.1986167,850
0.2002833,924
0.20195,998
0.2036167,1051
0.2052833,968
0.20695,981
0.2086167,946
0.2102833,966
0.21195,986
0.2136167,1220
0.2152833,1214
0.21695,1099
0.2186167,1220
0.2202833,945
0.22195,1295
0.2236167,1081
0.2252833,1218
0.22695,1056
0.2286167,1186
0.2302833,1046
0.23195,921
0.2336167,1052
0.2352833,1184
0.23695,1093
0.2386167,1003
0.2402833,1283
0.24195,1262
0.2436167,1329
0.2452833,1189
0.24695,1240
0.2486167,1120
0.2502833,1133
0.25195,1146
0.2536167,1127
0.2552833,1108
0.25695,1032
0.2586167,1009
0.2602833,1138
0.26195,1154
0.2636167,1176
0.2652833,999
0.26695,1082
0.2686167,1165
0.2702833,951
0.27195,1003
0.2736167,982
0.2752833,961
0.27695,1002
0.2786167,1043
0.2803,1125
0.28195,1226
0.2836167,1151
0.2852833,859
0.28695,939
0.2886167,1157
0.2902833,1006
0.29195,1038
0.2936167,998
0.2952833,1038
0.29695,1036
0.2986333,974
0.3002833,1016
0.30195,1058
0.3036167,1033
0.3052833,1034
0.3069667,1115
0.3086167,1081
0.3102833,1048
0.31195,1200
0.3136167,1138
0.3153,1077
0.3169667,1254
0.3186167,1256
0.3202833,1257
0.32195,1258
0.3236167,1282
0.3252833,1272
0.32695,1262
0.3286167,1344
0.3302833,1020
0.33195,1206
0.3336333,1407
0.3352833,1393
0.33695,1312
0.3386167,1099
0.3402833,1163
0.34195,1297
0.3436167,1384
0.3452833,1245
0.34695,1211
0.3486333,1322
0.3503,1268
0.35195,1360
0.3536167,1345
0.3552833,1291
0.3569667,1357
0.3586167,1367
0.3602833,1268
0.3619667,1264
0.3636167,1564
0.3653,2197
0.3669667,3372
0.3686333,3029
0.3702833,3550
0.3719667,3507
0.3736333,2768
0.3752833,3089
0.37695,2897
0.3786167,3181
0.3803,3135
0.3819667,2846
0.3836167,2588
0.3853,2464
0.38695,2004
0.3886333,1352
0.3903,1374
0.3919667,981
0.3936167,829
0.3953,846
0.39695,523
0.3986333,472
0.4002833,596
0.40195,515
0.4036333,638
0.4053,672
0.4069667,555
0.4086333,585
0.4102833,616
0.41195,530
0.4136333,632
0.4153,620
0.4169667,760
0.4186333,769
0.4203,794
0.4219667,852
0.4236333,841
0.4253,768
0.4269667,869
0.4286333,691
0.4303,816
0.4319667,941
0.4336333,807
0.4353,852
0.4369667,905
0.4386333,958
0.4403,1004
0.4419667,1166
0.4436333,1109
0.4453,1255
0.4469667,1248
0.4486333,1362
0.4503,1328
0.4519667,1179
0.4536333,1413
0.4553,1191
0.4569667,1191
0.4586333,1458
0.4603,1246
0.4619667,1304
0.4636333,1361
0.4653,1451
0.4669667,1329
0.4686333,1207
0.4703,1303
0.4719667,1400
0.4736333,1377
0.4753,1355
0.4769667,1561
0.4786333,1524
0.4803,1403
0.4819667,1558
0.4836333,1671
0.4853,1325
0.4869667,1330
0.4886333,1473
0.4903,1268
0.4919667,1131
0.4936333,1401
0.4953,1204
0.4969667,1249
0.4986333,1099
0.5003,1131
0.5019667,976
0.5036333,1436
0.5053,1329
0.5069667,1272
0.5086333,1106
0.5103,851
0.5119666,1014
0.5136333,850
0.5153,740
0.5169666,1116
0.5186333,979
0.5203,884
0.5219667,1085
0.5236334,1129
0.5253,973
0.5269667,1014
0.5286334,963
0.5303,977
0.5319667,992
0.5336334,1183
0.5353,1210
0.5369667,1106
0.5386333,1065
0.5403,963
0.5419667,876
0.5436333,968
0.5453,919
0.5469667,1056
0.5486333,1029
0.5503,854
0.5519667,994
0.5536333,894
0.5553,904
0.5569667,799
0.5586333,821
0.5603,881
0.5619667,837
0.5636333,863
0.5653,1064
0.5669667,1038
0.5686333,994
0.5703,1003
0.5719666,946
0.5736333,960
0.5753,881
0.5769666,983
0.5786333,1012
0.5803,999
0.5819666,1001
0.5836333,1004
0.5853,859
0.5869667,1064
0.5886334,974
0.5903,1124
0.5919667,1031
0.5936334,982
0.5953,1007
0.5969667,1031
0.5986333,1023
0.6003,1015
0.6019667,1004
0.6036333,876
0.6053,885
0.6069667,895
0.6086333,893
0.6103,884
0.6119667,876
0.6136333,906
0.6153,948
0.6169667,921
0.6186333,894
0.6203,887
0.6219667,880
0.6236333,883
0.6253,885
0.6269667,941
0.6286333,997
0.6303,778
0.6319667,844
0.6336333,892
0.6353,940
0.6369666,942
0.6386333,800
0.6403,657
0.6419666,892
0.6436333,800
0.6453,873
0.6469667,1027
0.6486334,1106
0.6503,1064
0.6519667,921
0.6536334,744
0.6553,795
0.6569667,836
0.6586334,876
0.6603,871
0.6619667,866
0.6636333,710
0.6653,938
0.6669667,810
0.6686333,1048
0.6703,972
0.6719667,798
0.6736333,931
0.6753,830
0.6769667,888
0.6786333,663
0.6803,787
0.6819667,657
0.6836333,921
0.6853,857
0.6869667,999
0.6886333,974
0.6903,714
0.6919667,937
0.6936333,922
0.6953,1056
0.6969666,1015
0.6986333,976
0.7003,908
0.7019666,761
0.7036333,953
0.7053,1062
0.7069666,1127
0.7086333,1028
0.7103,835
0.7119667,787
0.7136334,824
0.7153,783
0.7169667,743
0.7186334,790
0.7203,980
0.7219667,949
0.7236333,848
0.7253,715
0.7269667,917
0.7286333,974
0.7303,1015
0.7319667,983
0.7336333,834
0.7353,922
0.7369667,799
0.7386333,677
0.7403,933
0.7419667,996
0.7436333,940
0.7453,751
0.7469667,919
0.7486333,1019
0.7503,954
0.7519667,889
0.7536333,651
0.7553,712
0.7569667,772
0.7586333,876
0.7603,861
0.7619666,763
0.7636333,1037
0.7653,1003
0.7669666,903
0.7686333,645
0.7703,869
0.7719667,983
0.7736334,841
0.7753,909
0.7769667,940
0.7786334,921
0.7803,880
0.7819667,839
0.7836334,836
0.7853,852
0.7869667,908
0.7886333,915
0.7903,916
0.7919667,916
0.7936333,984
0.7953,974
0.7969667,971
0.7986333,1010
0.8003,1049
0.8019667,917
0.8036333,959
0.8053,1047
0.8069667,904
0.8086333,962
0.8103,930
0.8119667,856
0.8136333,795
0.8153,866
0.8169667,783
0.8186333,873
0.8203,897
0.8219666,921
0.8236333,935
0.8253,949
0.8269666,959
0.8286333,1026
0.8303,1012
0.8319666,933
0.8336333,853
0.8353,963
0.8369667,799
0.8386334,962
0.8403,784
0.8419667,968
0.8436334,938
0.8453,1146
0.8469667,1017
0.8486333,804
0.8503,892
0.8519667,756
0.8536333,914
0.8553,790
0.8569667,950
0.8586333,863
0.8603,776
0.8619667,939
0.8636333,893
0.8653,889
0.8669667,822
0.8686333,754
0.8703,894
0.8719667,852
0.8736333,900
0.8753,1050
0.8769667,1032
0.8786333,1059
0.8803,1062
0.8819667,1057
0.8836333,1167
0.8853,1140
0.8869666,1114
0.8886333,1136
0.8903,1159
0.8919666,1106
0.8936333,1054
0.8953,1100
0.8969667,1145
0.8986334,1160
0.9003,1174
0.9019667,1203
0.9036334,1049
0.9053,1274
0.9069667,1176
0.9086334,1233
0.9103,1291
0.9119667,1312
0.9136333,1291
0.9153,1212
0.9169667,1134
0.9186333,1379
0.9203,1527
0.9219667,1368
0.9236333,1477
0.9253,1139
0.9269667,1442
0.9286333,842
0.9303,1133
0.9319667,1009
0.9336333,1185
0.9353,1258
0.9369667,1198
0.9386333,1149
0.9403,1197
0.9419667,1226
0.9436333,1254
0.9453,1192
0.9469666,1080
0.9486333,1054
0.9503,1124
0.9519666,1047
0.9536333,970
0.9553,1165
0.9569666,1106
0.9586333,1047
0.9603,1164
0.9619667,934
0.9636334,1042
0.9653,1122
0.9669667,984
0.9686334,1206
0.9703,899
0.9719667,871
0.9736333,751
0.9753,951
0.9769667,989
0.9786333,857
0.9803,842
0.9819667,920
0.9836333,895
0.9853,869
0.9869667,930
0.9886333,829
0.9903,931
0.9919667,1011
0.9936333,803
0.9953,895
0.9969667,843
0.9986333,941
1.0003,902
1.001967,852
1.003633,801
1.0053,882
1.006967,922
1.008633,919
1.0103,915
1.011967,910
1.013633,937
1.0153,881
1.016967,919
1.018633,709
1.0203,774
1.021967,809
1.023633,816
1.0253,779
1.026967,869
1.028633,971
1.0303,935
1.031967,898
1.033633,782
1.0353,760
1.036967,875
1.038633,796
1.0403,894
1.041967,851
1.043633,828
1.0453,897
1.046967,967
1.048633,733
1.0503,873
1.051967,734
1.053633,755
1.0553,776
1.056967,1026
1.058633,974
1.0603,976
1.061967,862
1.063633,789
1.0653,900
1.066967,751
1.068633,917
1.0703,754
1.071967,753
1.073633,781
1.0753,810
1.076967,709
1.078633,679
1.0803,756
1.081967,757
1.083633,758
1.0853,754
1.086967,750
1.088633,732
1.0903,947
1.091967,925
1.093633,725
1.0953,881
1.096967,899
1.098633,878
1.1003,765
1.101967,811
1.103633,773
1.1053,765
1.106967,757
1.108633,968
1.1103,1035
1.111967,732
1.113633,846
1.1153,885
1.116967,956
1.118633,985
1.1203,912
1.121967,697
1.123633,927
1.1253,788
1.126967,942
1.128633,914
1.1303,845
1.131967,777
1.133633,1073
1.1353,1003
1.136967,860
1.138633,899
1.1403,950
1.141967,1002
1.143633,792
1.1453,924
1.146967,938
1.148633,839
1.1503,883
1.151967,869
1.153633,856
1.1553,853
1.156967,850
1.158633,885
1.1603,751
1.161967,779
1.163633,814
1.1653,994
1.166967,1010
1.168633,785
1.1703,655
1.171967,729
1.173633,963
1.1753,911
1.176967,804
1.178633,859
1.1803,792
1.181967,892
1.183633,921
1.1853,929
1.186967,892
1.188633,847
1.1903,921
1.191967,848
1.193633,901
1.1953,954
1.196967,767
1.198633,892
