"SampleName","A2Rd2_02-92"
"Target Mass 1",
"Column Name","IA-3 (3um, 4.6X100)"
"Channel","QDa 1: SIR Ch1"
0.00195,383
0.003616667,643
0.005283333,537
0.00695,593
0.008616666,658
0.01028333,676
0.01195,590
0.01361667,624
0.01528333,688
0.01695,455
0.01861667,627
0.02028333,535
0.02195,592
0.02361667,605
0.02528333,618
0.02695,574
0.02861667,602
0.03028333,631
0.03195,591
0.03361667,600
0.03528333,604
0.03695,607
0.03861667,502
0.04028333,618
0.04195,592
0.04361667,566
0.04528333,590
0.04695,635
0.04861667,667
0.05028334,652
0.05195,523
0.05361667,676
0.05528333,576
0.05695,607
0.05861667,618
0.06028333,629
0.06195,568
0.06361666,435
0.06528334,552
0.06695,611
0.06861667,567
0.07028333,549
0.07195,531
0.07361667,514
0.07528333,497
0.07695,548
0.07861666,517
0.08028334,486
0.08195,576
0.08361667,671
0.08528333,643
0.08695,480
0.08861667,470
0.09028333,557
0.09195,583
0.09361666,576
0.09528334,569
0.09695,541
0.09861667,578
0.1002833,601
0.10195,464
0.1036167,530
0.1052833,596
0.10695,680
0.1086167,595
0.1102833,607
0.11195,627
0.1136167,592
0.1152833,521
0.11695,635
0.1186167,679
0.1202833,561
0.12195,656
0.1236167,677
0.1252833,711
0.12695,595
0.1286167,740
0.1302833,651
0.13195,626
0.1336167,592
0.1352833,611
0.13695,630
0.1386167,500
0.1402833,525
0.14195,558
0.1436167,463
0.1452833,497
0.14695,531
0.1486167,531
0.1502833,531
0.15195,512
0.1536167,535
0.1552833,557
0.15695,560
0.1586167,629
0.1602833,561
0.16195,492
0.1636167,445
0.1652833,579
0.16695,579
0.1686167,616
0.1702833,498
0.17195,525
0.1736167,571
0.1752833,548
0.17695,584
0.1786167,535
0.1802833,591
0.18195,412
0.1836167,500
0.1852833,716
0.18695,642
0.1886167,639
0.1902833,352
0.19195,542
0.1936167,700
0.1952833,603
0.19695,628
0.1986167,600
0.2002833,548
0.20195,495
0.2036167,513
0.2052833,565
0.20695,580
0.2086167,561
0.2102833,515
0.21195,565
0.2136167,556
0.2152833,547
0.21695,569
0.2186167,590
0.2202833,545
0.22195,500
0.2236167,613
0.2252833,626
0.22695,562
0.2286333,445
0.2302833,535
0.23195,500
0.2336167,448
0.2352833,468
0.23695,511
0.2386167,508
0.2402833,482
0.24195,612
0.2436167,715
0.2452833,640
0.24695,565
0.2486167,503
0.2502833,470
0.25195,510
0.2536167,516
0.2552833,521
0.25695,524
0.2586167,527
0.2602833,666
0.26195,583
0.2636333,501
0.2652833,480
0.26695,539
0.2686167,531
0.2703,524
0.27195,495
0.2736167,550
0.2752833,554
0.2769667,603
0.2786167,549
0.2803,496
0.28195,644
0.2836167,623
0.2852833,601
0.28695,596
0.2886167,591
0.2902833,518
0.29195,559
0.2936167,520
0.2952833,592
0.29695,607
0.2986333,555
0.3002833,617
0.30195,603
0.3036167,589
0.3052833,543
0.30695,550
0.3086167,597
0.3102833,571
0.31195,545
0.3136167,613
0.3153,496
0.31695,559
0.3186167,624
0.3203,485
0.32195,621
0.3236167,475
0.3252833,516
0.32695,733
0.3286167,656
0.3302833,571
0.33195,730
0.3336333,485
0.3352833,519
0.33695,565
0.3386333,525
0.3402833,474
0.34195,569
0.3436167,535
0.3452833,487
0.34695,585
0.3486333,654
0.3503,686
0.35195,576
0.3536333,550
0.3553,570
0.3569667,571
0.3586167,572
0.3603,593
0.36195,615
0.3636167,970
0.3652833,1197
0.3669667,1991
0.3686333,2644
0.3703,3377
0.3719667,3006
0.3736167,2909
0.3753,3224
0.37695,3322
0.3786167,3453
0.3802833,3557
0.3819667,3660
0.3836333,3911
0.3853,3935
0.3869667,3270
0.3886333,3433
0.3903,2657
0.3919667,2271
0.3936167,1872
0.3952833,1480
0.3969667,1477
0.3986167,1482
0.4003,1345
0.4019667,1385
0.4036333,1426
0.4053,1351
0.4069667,1351
0.4086333,1352
0.4103,1485
0.4119667,1512
0.4136333,1659
0.4153,1593
0.4169667,1506
0.4186333,1397
0.4203,1288
0.4219667,1757
0.4236333,1800
0.4253,1490
0.4269667,1734
0.4286333,1670
0.4303,1606
0.4319667,1719
0.4336333,2681
0.4353,3247
0.4369667,4699
0.4386333,7806
0.4403,10892
0.4419667,19128
0.4436333,30116
0.4453,43632
0.4469667,59600
0.4486333,78560
0.4503,97456
0.4519667,115760
0.4536333,132160
0.4553,144448
0.4569667,161024
0.4586333,169216
0.4603,173696
0.4619667,176384
0.4636333,178688
0.4653,176384
0.4669667,175680
0.4686333,175360
0.4703,176704
0.4719667,179520
0.4736333,181568
0.4753,189312
0.4769667,192448
0.4786333,195712
0.4803,195392
0.4819667,196288
0.4836333,193344
0.4853,182592
0.4869667,169984
0.4886333,156352
0.4903,140544
0.4919667,125376
0.4936333,107392
0.4953,93296
0.4969667,78016
0.4986333,64544
0.5003,54336
0.5019667,45344
0.5036333,37360
0.5053,30820
0.5069667,24620
0.5086333,20904
0.5103,17352
0.5119666,14336
0.5136333,13032
0.5153,10044
0.5169666,9464
0.5186333,8204
0.5203,7056
0.5219667,6181
0.5236334,5849
0.5253,5031
0.5269667,5006
0.5286334,4543
0.5303,4525
0.5319667,3770
0.5336334,3963
0.5353,3534
0.5369667,3349
0.5386333,3366
0.5403,3012
0.5419667,2903
0.5436333,2701
0.5453,2939
0.5469667,2533
0.5486333,2492
0.5503,2206
0.5519667,2466
0.5536333,2166
0.5553,2510
0.5569667,2071
0.5586333,2322
0.5603,1988
0.5619667,1996
0.5636333,2122
0.5653,2066
0.5669667,1796
0.5686333,1782
0.5703,1773
0.5719666,1766
0.5736333,1759
0.5753,1711
0.5769666,1749
0.5786333,1443
0.5803,1866
0.5819666,1467
0.5836333,1306
0.5853,1547
0.5869667,1438
0.5886334,1504
0.5903,1184
0.5919667,1565
0.5936334,1746
0.5953,1275
0.5969667,1553
0.5986333,1293
0.6003,1335
0.6019667,1615
0.6036333,1473
0.6053,1593
0.6069667,1463
0.6086333,1638
0.6103,1195
0.6119667,1349
0.6136333,1550
0.6153,1150
0.6169667,1486
0.6186333,1249
0.6203,1314
0.6219667,1311
0.6236333,1377
0.6253,1094
0.6269667,1148
0.6286333,1260
0.6303,1233
0.6319667,983
0.6336333,1226
0.6353,1147
0.6369666,1230
0.6386333,1168
0.6403,1099
0.6419666,1202
0.6436333,1228
0.6453,1067
0.6469667,1083
0.6486334,1021
0.6503,1047
0.6519667,1030
0.6536334,1033
0.6553,896
0.6569667,1016
0.6586334,1010
0.6603,1039
0.6619667,1012
0.6636333,985
0.6653,955
0.6669667,925
0.6686333,987
0.6703,947
0.6719667,906
0.6736333,771
0.6753,779
0.6769667,881
0.6786333,872
0.6803,839
0.6819667,805
0.6836333,753
0.6853,852
0.6869667,959
0.6886333,946
0.6903,933
0.6919667,898
0.6936333,739
0.6953,962
0.6969666,985
0.6986333,817
0.7003,807
0.7019666,806
0.7036333,763
0.7053,811
0.7069666,860
0.7086333,649
0.7103,740
0.7119667,692
0.7136334,857
0.7153,894
0.7169667,644
0.7186334,719
0.7203,741
0.7219667,793
0.7236333,813
0.7253,834
0.7269667,772
0.7286333,733
0.7303,830
0.7319667,798
0.7336333,704
0.7353,772
0.7369667,780
0.7386333,817
0.7403,855
0.7419667,830
0.7436333,773
0.7453,774
0.7469667,734
0.7486333,775
0.7503,817
0.7519667,824
0.7536333,824
0.7553,824
0.7569667,735
0.7586333,782
0.7603,793
0.7619666,737
0.7636333,703
0.7653,678
0.7669666,921
0.7686333,902
0.7703,667
0.7719667,796
0.7736334,611
0.7753,657
0.7769667,683
0.7786334,688
0.7803,693
0.7819667,821
0.7836334,806
0.7853,572
0.7869667,697
0.7886333,748
0.7903,737
0.7919667,777
0.7936333,736
0.7953,659
0.7969667,741
0.7986333,662
0.8003,550
0.8019667,600
0.8036333,557
0.8053,586
0.8069667,616
0.8086333,593
0.8103,631
0.8119667,638
0.8136333,644
0.8153,718
0.8169667,523
0.8186333,774
0.8203,786
0.8219666,533
0.8236333,895
0.8253,687
0.8269666,598
0.8286333,779
0.8303,686
0.8319666,641
0.8336333,663
0.8353,687
0.8369667,678
0.8386334,668
0.8403,711
0.8419667,716
0.8436334,702
0.8453,688
0.8469667,605
0.8486333,722
0.8503,639
0.8519667,663
0.8536333,654
0.8553,598
0.8569667,541
0.8586333,664
0.8603,651
0.8619667,596
0.8636333,691
0.8653,652
0.8669667,675
0.8686333,721
0.8703,526
0.8719667,675
0.8736333,672
0.8753,666
0.8769667,695
0.8786333,787
0.8803,934
0.8819667,1248
0.8836333,1284
0.8853,1550
0.8869666,1372
0.8886333,1609
0.8903,1933
0.8919666,1928
0.8936333,1987
0.8953,1887
0.8969667,2003
0.8986334,2149
0.9003,2069
0.9019667,1892
0.9036334,2056
0.9053,2020
0.9069667,1780
0.9086334,1717
0.9103,1934
0.9119667,1726
0.9136333,1778
0.9153,1830
0.9169667,1742
0.9186333,2055
0.9203,2065
0.9219667,2015
0.9236333,1913
0.9253,1810
0.9269667,1999
0.9286333,2072
0.9303,1865
0.9319667,1852
0.9336333,1929
0.9353,1825
0.9369667,1954
0.9386333,2020
0.9403,1640
0.9419667,1726
0.9436333,1705
0.9453,1686
0.9469666,1668
0.9486333,1356
0.9503,1433
0.9519666,1365
0.9536333,1439
0.9553,1513
0.9569666,1541
0.9586333,1264
0.9603,1597
0.9619667,1197
0.9636334,1063
0.9653,1368
0.9669667,1206
0.9686334,1282
0.9703,1159
0.9719667,1086
0.9736333,966
0.9753,1027
0.9769667,921
0.9786333,940
0.9803,690
0.9819667,847
0.9836333,686
0.9853,696
0.9869667,749
0.9886333,625
0.9903,686
0.9919667,707
0.9936333,712
0.9953,595
0.9969667,694
0.9986333,518
1.0003,566
1.001967,509
1.003633,588
1.0053,496
1.006967,529
1.008633,529
1.0103,529
1.011967,545
1.013633,543
1.0153,541
1.016967,500
1.018633,459
1.0203,472
1.021967,485
1.023633,483
1.0253,482
1.026967,547
1.028633,587
1.0303,564
1.031967,566
1.033633,587
1.0353,491
1.036967,544
1.038633,559
1.0403,575
1.041967,563
1.043633,581
1.0453,482
1.046967,578
1.048633,590
1.0503,475
1.051967,457
1.053633,446
1.0553,561
1.056967,558
1.058633,556
1.0603,560
1.061967,530
1.063633,491
1.0653,543
1.066967,548
1.068633,649
1.0703,632
1.071967,549
1.073633,549
1.0753,557
1.076967,527
1.078633,498
1.0803,560
1.081967,624
1.083633,666
1.0853,628
1.086967,523
1.088633,442
1.0903,450
1.091967,514
1.093633,504
1.0953,493
1.096967,461
1.098633,464
1.1003,466
1.101967,699
1.103633,650
1.1053,723
1.106967,461
1.108633,460
1.1103,596
1.111967,621
1.113633,466
1.1153,465
1.116967,577
1.118633,577
1.1203,517
1.121967,578
1.123633,533
1.1253,400
1.126967,574
1.128633,560
1.1303,547
1.131967,524
1.133633,552
1.1353,579
1.136967,601
1.138633,624
1.1403,550
1.141967,594
1.143633,638
1.1453,608
1.146967,447
1.148633,546
1.1503,699
1.151967,665
1.153633,642
1.1553,644
1.156967,643
1.158633,560
1.1603,530
1.161967,526
1.163633,522
1.1653,579
1.166967,589
1.168633,533
1.1703,560
1.171967,557
1.173633,555
1.1753,567
1.176967,558
1.178633,549
1.1803,568
1.181967,487
1.183633,534
1.1853,617
1.186967,599
1.188633,596
1.1903,553
1.191967,510
1.193633,583
1.1953,575
1.196967,566
1.198633,517
