"SampleName","A2Rd2_02-82"
"Target Mass 1",
"Column Name","IA-3 (3um, 4.6X100)"
"Channel","QDa 1: SIR Ch2"
0.00195,508
0.003616667,625
0.005283333,573
0.00695,715
0.008616666,777
0.01028333,838
0.01195,1039
0.01361667,988
0.01528333,922
0.01695,845
0.01861667,860
0.02028333,893
0.02195,1001
0.02361667,974
0.02528333,755
0.02695,828
0.02861667,1037
0.03028333,1131
0.03195,970
0.03361667,1015
0.03528333,869
0.03695,980
0.03861667,933
0.04028333,975
0.04195,963
0.04361667,980
0.04528333,998
0.04695,1011
0.04861667,1025
0.05028334,959
0.05195,1045
0.05361667,999
0.05528333,953
0.05695,934
0.05861667,956
0.06028333,853
0.06195,854
0.06361666,854
0.06528334,862
0.06695,870
0.06861667,914
0.07028333,912
0.07195,911
0.07361667,910
0.07528333,910
0.07695,977
0.07861666,1064
0.08028334,1089
0.08195,926
0.08361667,817
0.08528333,943
0.08695,1023
0.08861667,1058
0.09028333,963
0.09195,845
0.09361666,856
0.09528334,927
0.09695,788
0.09861667,785
0.1002833,782
0.10195,853
0.1036167,891
0.1052833,929
0.10695,941
0.1086167,915
0.1102833,889
0.11195,888
0.1136167,947
0.1152833,982
0.11695,987
0.1186167,853
0.1202833,847
0.12195,841
0.1236167,1118
0.1252833,1078
0.12695,961
0.1286167,944
0.1302833,889
0.13195,996
0.1336167,809
0.1352833,967
0.13695,951
0.1386167,957
0.1402833,959
0.14195,840
0.1436167,852
0.1452833,872
0.14695,995
0.1486167,976
0.1502833,984
0.15195,946
0.1536167,837
0.1552833,983
0.15695,883
0.1586167,876
0.1602833,870
0.16195,766
0.1636167,896
0.1652833,947
0.16695,859
0.1686167,942
0.1702833,982
0.17195,830
0.1736167,751
0.1753,991
0.17695,1145
0.1786167,1152
0.1802833,900
0.18195,1029
0.1836167,911
0.1852833,920
0.18695,879
0.1886167,882
0.1902833,884
0.19195,828
0.1936167,816
0.1952833,758
0.19695,720
0.1986167,683
0.2002833,819
0.20195,920
0.2036167,1051
0.2052833,1012
0.20695,935
0.2086167,791
0.2103,857
0.21195,855
0.2136167,980
0.2152833,978
0.21695,975
0.2186167,928
0.2202833,963
0.22195,975
0.2236167,843
0.2253,1058
0.22695,1022
0.2286333,974
0.2302833,926
0.23195,1053
0.2336167,1147
0.2352833,1082
0.23695,952
0.2386333,1016
0.2402833,1080
0.24195,1236
0.2436167,1249
0.2453,1208
0.24695,1166
0.2486167,1034
0.2502833,1269
0.25195,1103
0.2536167,1395
0.2552833,1349
0.25695,954
0.2586167,1076
0.2602833,1333
0.26195,1166
0.2636333,1128
0.2652833,1127
0.26695,1019
0.2686167,924
0.2702833,1123
0.2719667,1013
0.2736333,1052
0.2753,1148
0.27695,1177
0.2786167,1085
0.2803,1022
0.28195,914
0.2836167,960
0.2852833,997
0.2869667,923
0.2886333,945
0.2902833,968
0.29195,953
0.2936167,938
0.2952833,933
0.2969667,918
0.2986333,902
0.3002833,1043
0.30195,1060
0.3036167,1047
0.3053,1033
0.30695,1142
0.3086167,1156
0.3102833,1285
0.31195,1297
0.3136333,1372
0.3153,1248
0.3169667,1134
0.3186333,1245
0.3203,1211
0.3219667,1245
0.3236333,1218
0.3253,1192
0.3269667,1270
0.3286167,1034
0.3303,1087
0.33195,1136
0.3336333,1214
0.3353,1243
0.3369667,1203
0.3386333,1162
0.3403,1097
0.3419667,1126
0.3436333,1308
0.3452833,1260
0.3469667,1159
0.3486167,1058
0.3503,1169
0.3519667,1281
0.3536333,979
0.3553,1462
0.3569667,1356
0.3586333,1494
0.3603,1255
0.3619667,1264
0.3636333,1386
0.3653,2219
0.3669667,2557
0.3686333,3346
0.3703,3221
0.3719667,3256
0.3736333,3094
0.3753,2878
0.3769667,2696
0.3786333,2463
0.3803,2531
0.3819667,2598
0.3836333,2555
0.3853,2134
0.3869667,1953
0.3886333,1630
0.3903,1192
0.3919667,1042
0.3936333,880
0.3953,617
0.3969667,508
0.3986333,551
0.4003,431
0.4019667,405
0.4036333,571
0.4053,393
0.4069667,468
0.4086333,539
0.4103,521
0.4119667,503
0.4136333,504
0.4153,505
0.4169667,587
0.4186333,623
0.4203,659
0.4219667,681
0.4236333,703
0.4253,563
0.4269667,602
0.4286333,720
0.4303,694
0.4319667,668
0.4336333,759
0.4353,920
0.4369667,909
0.4386333,800
0.4403,962
0.4419667,969
0.4436333,1018
0.4453,981
0.4469667,1209
0.4486333,1161
0.4503,1234
0.4519667,1143
0.4536333,1114
0.4553,1373
0.4569667,1381
0.4586333,1374
0.4603,1385
0.4619667,1397
0.4636333,1366
0.4653,1335
0.4669667,1158
0.4686333,1521
0.4703,1454
0.4719667,1464
0.4736333,1535
0.4753,1522
0.4769667,1500
0.4786333,1479
0.4803,1302
0.4819667,1240
0.4836333,1434
0.4853,1538
0.4869667,1514
0.4886333,1303
0.4903,1309
0.4919667,1286
0.4936333,1201
0.4953,1117
0.4969667,1259
0.4986333,1196
0.5003,1059
0.5019667,1079
0.5036333,1000
0.5053,1021
0.5069667,926
0.5086333,1028
0.5103,1040
0.5119666,873
0.5136333,940
0.5153,967
0.5169666,930
0.5186333,765
0.5203,999
0.5219667,928
0.5236334,973
0.5253,961
0.5269667,936
0.5286334,883
0.5303,969
0.5319667,916
0.5336334,863
0.5353,867
0.5369667,877
0.5386333,887
0.5403,1005
0.5419667,957
0.5436333,910
0.5453,1014
0.5469667,923
0.5486333,933
0.5503,1125
0.5519667,1077
0.5536333,935
0.5553,1010
0.5569667,969
0.5586333,869
0.5603,888
0.5619667,878
0.5636333,898
0.5653,917
0.5669667,784
0.5686333,831
0.5703,839
0.5719666,847
0.5736333,974
0.5753,919
0.5769666,863
0.5786333,899
0.5803,997
0.5819666,1129
0.5836333,1062
0.5853,978
0.5869667,944
0.5886334,1063
0.5903,1027
0.5919667,866
0.5936334,835
0.5953,940
0.5969667,925
0.5986333,950
0.6003,952
0.6019667,890
0.6036333,939
0.6053,872
0.6069667,901
0.6086333,931
0.6103,902
0.6119667,837
0.6136333,943
0.6153,843
0.6169667,1008
0.6186333,949
0.6203,956
0.6219667,951
0.6236333,950
0.6253,962
0.6269667,975
0.6286333,983
0.6303,992
0.6319667,874
0.6336333,857
0.6353,931
0.6369666,958
0.6386333,942
0.6403,926
0.6419666,1001
0.6436333,910
0.6453,820
0.6469667,928
0.6486334,905
0.6503,956
0.6519667,791
0.6536334,1045
0.6553,940
0.6569667,1067
0.6586334,901
0.6603,890
0.6619667,844
0.6636333,925
0.6653,919
0.6669667,912
0.6686333,818
0.6703,908
0.6719667,977
0.6736333,1041
0.6753,991
0.6769667,994
0.6786333,1179
0.6803,1169
0.6819667,1458
0.6836333,1461
0.6853,1711
0.6869667,1628
0.6886333,1811
0.6903,1888
0.6919667,1965
0.6936333,2376
0.6953,2261
0.6969666,2765
0.6986333,2674
0.7003,2516
0.7019666,2554
0.7036333,2591
0.7053,2583
0.7069666,2130
0.7086333,2116
0.7103,2259
0.7119667,2387
0.7136334,2449
0.7153,2065
0.7169667,1916
0.7186334,2062
0.7203,2091
0.7219667,2140
0.7236333,2189
0.7253,1856
0.7269667,2081
0.7286333,1733
0.7303,1835
0.7319667,1946
0.7336333,1692
0.7353,1958
0.7369667,1525
0.7386333,1714
0.7403,1314
0.7419667,1339
0.7436333,1499
0.7453,1517
0.7469667,1251
0.7486333,1257
0.7503,1141
0.7519667,1248
0.7536333,868
0.7553,1143
0.7569667,1074
0.7586333,967
0.7603,914
0.7619666,935
0.7636333,879
0.7653,857
0.7669666,835
0.7686333,874
0.7703,913
0.7719667,1137
0.7736334,1182
0.7753,997
0.7769667,972
0.7786334,1213
0.7803,1471
0.7819667,1679
0.7836334,1590
0.7853,1732
0.7869667,1980
0.7886333,2463
0.7903,2550
0.7919667,2624
0.7936333,3383
0.7953,3178
0.7969667,3716
0.7986333,3537
0.8003,3722
0.8019667,3906
0.8036333,4674
0.8053,4397
0.8069667,4673
0.8086333,4270
0.8103,4298
0.8119667,3639
0.8136333,4055
0.8153,4110
0.8169667,3354
0.8186333,3722
0.8203,3036
0.8219666,3534
0.8236333,3192
0.8253,3690
0.8269666,3227
0.8286333,3070
0.8303,3449
0.8319666,3322
0.8336333,3460
0.8353,3413
0.8369667,2749
0.8386334,3153
0.8403,2629
0.8419667,2521
0.8436334,2722
0.8453,2098
0.8469667,1964
0.8486333,2062
0.8503,1924
0.8519667,2127
0.8536333,1620
0.8553,1571
0.8569667,1760
0.8586333,1566
0.8603,1569
0.8619667,1285
0.8636333,1207
0.8653,1293
0.8669667,1181
0.8686333,1225
0.8703,1026
0.8719667,965
0.8736333,1016
0.8753,1013
0.8769667,1256
0.8786333,1318
0.8803,1379
0.8819667,1637
0.8836333,1631
0.8853,1746
0.8869666,1616
0.8886333,1635
0.8903,1764
0.8919666,1504
0.8936333,1467
0.8953,1732
0.8969667,1463
0.8986334,1739
0.9003,1672
0.9019667,1663
0.9036334,1740
0.9053,1537
0.9069667,1500
0.9086334,1584
0.9103,1573
0.9119667,1276
0.9136333,1450
0.9153,1819
0.9169667,1642
0.9186333,1451
0.9203,1311
0.9219667,1426
0.9236333,1440
0.9253,1380
0.9269667,1319
0.9286333,1268
0.9303,1580
0.9319667,1529
0.9336333,1563
0.9353,1422
0.9369667,1415
0.9386333,1362
0.9403,1575
0.9419667,1471
0.9436333,1366
0.9453,1463
0.9469666,1487
0.9486333,1401
0.9503,1398
0.9519666,1402
0.9536333,1400
0.9553,1315
0.9569666,1396
0.9586333,1528
0.9603,1511
0.9619667,1494
0.9636334,1703
0.9653,1861
0.9669667,2052
0.9686334,2237
0.9703,2521
0.9719667,2407
0.9736333,2850
0.9753,2684
0.9769667,3182
0.9786333,3412
0.9803,3477
0.9819667,3819
0.9836333,3919
0.9853,4020
0.9869667,3987
0.9886333,4090
0.9903,4194
0.9919667,3852
0.9936333,3704
0.9953,4341
0.9969667,4392
0.9986333,4034
1.0003,4177
1.001967,3773
1.003633,3792
1.0053,3737
1.006967,3663
1.008633,3689
1.0103,3017
1.011967,3404
1.013633,3366
1.0153,3598
1.016967,3617
1.018633,3436
1.0203,3256
1.021967,3152
1.023633,3696
1.0253,3525
1.026967,3753
1.028633,3423
1.0303,3682
1.031967,3098
1.033633,2986
1.0353,2890
1.036967,2915
1.038633,2888
1.0403,2816
1.041967,2414
1.043633,2446
1.0453,2401
1.046967,2280
1.048633,2173
1.0503,2374
1.051967,2171
1.053633,1923
1.0553,1874
1.056967,2057
1.058633,2121
1.0603,1966
1.061967,2060
1.063633,1959
1.0653,2067
1.066967,2108
1.068633,1960
1.0703,1926
1.071967,2407
1.073633,2306
1.0753,2193
1.076967,2152
1.078633,2346
1.0803,2217
1.081967,1929
1.083633,2210
1.0853,2039
1.086967,2322
1.088633,2158
1.0903,2087
1.091967,1985
1.093633,2166
1.0953,1969
1.096967,2021
1.098633,1704
1.1003,1942
1.101967,1888
1.103633,2011
1.1053,1956
1.106967,1858
1.108633,1970
1.1103,1961
1.111967,1611
1.113633,2074
1.1153,2019
1.116967,1872
1.118633,1947
1.1203,1715
1.121967,1737
1.123633,1530
1.1253,1643
1.126967,1736
1.128633,1431
1.1303,1585
1.131967,1424
1.133633,1591
1.1353,1524
1.136967,1243
1.138633,1326
1.1403,1365
1.141967,1266
1.143633,1222
1.1453,1324
1.146967,1217
1.148633,1158
1.1503,988
1.151967,1333
1.153633,1257
1.1553,1050
1.156967,1192
1.158633,1055
1.1603,1088
1.161967,972
1.163633,1052
1.1653,999
1.166967,947
1.168633,1062
1.1703,1070
1.171967,1068
1.173633,986
1.1753,1099
1.176967,985
1.178633,1078
1.1803,1126
1.181967,1028
1.183633,852
1.1853,1147
1.186967,780
1.188633,977
1.1903,885
1.191967,1042
1.193633,1106
1.1953,879
1.196967,1029
1.198633,904
