"SampleName","A2Rd2_02-2"
"Target Mass 1",
"Column Name","IA-3 (3um, 4.6X100)"
"Channel","QDa 1: SIR Ch1"
0.00195,356
0.003616667,550
0.005283333,506
0.00695,624
0.008616666,626
0.01028333,629
0.01195,538
0.01361667,496
0.01528333,566
0.01695,459
0.01861667,491
0.02028333,524
0.02195,590
0.02361667,575
0.02528333,523
0.02695,472
0.02861667,561
0.03028333,509
0.03195,504
0.03361667,499
0.03528333,504
0.03695,544
0.03861667,584
0.04028333,543
0.04195,503
0.04361667,530
0.04528333,558
0.04695,572
0.04861667,624
0.05028334,604
0.05195,533
0.05361667,463
0.05528333,576
0.05695,545
0.05861667,470
0.06028333,508
0.06195,491
0.06361666,475
0.06528334,362
0.06695,559
0.06861667,559
0.07028333,515
0.07195,537
0.07361667,503
0.07528333,520
0.07695,585
0.07861666,599
0.08028334,542
0.08195,589
0.08361667,579
0.08528333,674
0.08695,610
0.08861667,546
0.09028333,580
0.09195,472
0.09361666,583
0.09528334,515
0.09695,544
0.09861667,574
0.1002833,560
0.10195,554
0.1036167,548
0.1052833,380
0.10695,457
0.1086167,577
0.1102833,459
0.11195,594
0.1136167,630
0.1152833,507
0.11695,548
0.1186167,605
0.1202833,506
0.12195,545
0.1236167,639
0.1252833,490
0.12695,566
0.1286167,556
0.1302833,566
0.13195,479
0.1336167,424
0.1352833,588
0.13695,487
0.1386167,370
0.1402833,503
0.14195,539
0.1436167,529
0.1452833,518
0.14695,491
0.1486167,449
0.1502833,475
0.15195,424
0.1536167,665
0.1552833,673
0.15695,677
0.1586167,487
0.1602833,517
0.16195,572
0.1636167,496
0.1652833,535
0.16695,574
0.1686167,581
0.1702833,481
0.17195,492
0.1736167,548
0.1752833,430
0.17695,593
0.1786167,531
0.1802833,554
0.18195,565
0.1836167,580
0.1852833,475
0.18695,459
0.1886167,462
0.1902833,465
0.19195,382
0.1936167,533
0.1952833,538
0.19695,478
0.1986167,475
0.2002833,472
0.20195,496
0.2036167,443
0.2052833,476
0.20695,562
0.2086167,519
0.2102833,476
0.21195,494
0.2136167,511
0.2152833,377
0.21695,559
0.2186167,609
0.2202833,562
0.22195,492
0.2236167,492
0.2252833,449
0.22695,496
0.2286167,486
0.2302833,475
0.23195,434
0.2336167,508
0.2352833,487
0.23695,581
0.2386167,581
0.2402833,433
0.24195,567
0.2436167,416
0.2452833,442
0.24695,468
0.2486167,410
0.2502833,485
0.25195,483
0.2536167,429
0.2552833,374
0.25695,396
0.2586167,418
0.2602833,555
0.26195,527
0.2636333,501
0.2652833,426
0.26695,490
0.2686167,488
0.2702833,487
0.27195,502
0.2736167,415
0.2752833,571
0.27695,530
0.2786167,489
0.2803,480
0.28195,471
0.2836167,461
0.2852833,517
0.28695,486
0.2886333,454
0.2902833,426
0.29195,437
0.2936167,531
0.2952833,526
0.29695,495
0.2986333,463
0.3002833,408
0.30195,454
0.3036167,428
0.3053,402
0.30695,442
0.3086167,483
0.3102833,613
0.31195,636
0.3136333,664
0.3153,568
0.31695,574
0.3186167,561
0.3202833,532
0.3219667,494
0.3236167,522
0.3252833,550
0.32695,601
0.3286167,619
0.3302833,405
0.33195,630
0.3336333,617
0.3353,486
0.33695,444
0.3386333,574
0.3403,448
0.34195,434
0.3436333,636
0.3452833,632
0.34695,634
0.3486167,459
0.3503,468
0.35195,630
0.3536333,567
0.3553,564
0.3569667,415
0.3586167,486
0.3602833,557
0.36195,644
0.3636167,891
0.3652833,1213
0.3669667,1918
0.3686333,3720
0.3702833,4653
0.3719667,4978
0.3736333,5402
0.3753,6153
0.37695,7411
0.3786167,6800
0.3803,6691
0.38195,6244
0.3836333,5212
0.3853,4985
0.3869667,4063
0.3886333,3334
0.3903,2916
0.3919667,2052
0.3936333,1708
0.3952833,1441
0.3969667,1603
0.3986333,972
0.4003,1053
0.4019667,1226
0.4036333,1128
0.4053,1006
0.4069667,1427
0.4086333,1446
0.4103,1343
0.4119667,1444
0.4136333,1216
0.4153,1421
0.4169667,1558
0.4186333,1621
0.4203,1280
0.4219667,1582
0.4236333,1528
0.4253,1562
0.4269667,1872
0.4286333,1950
0.4303,2005
0.4319667,1751
0.4336333,2575
0.4353,3100
0.4369667,5115
0.4386333,7297
0.4403,10824
0.4419667,15204
0.4436333,24948
0.4453,34544
0.4469667,47632
0.4486333,60288
0.4503,76720
0.4519667,92000
0.4536333,110672
0.4553,123920
0.4569667,141312
0.4586333,153408
0.4603,164928
0.4619667,180224
0.4636333,189760
0.4653,202560
0.4669667,214720
0.4686333,224704
0.4703,246528
0.4719667,256448
0.4736333,277632
0.4753,288448
0.4769667,294912
0.4786333,296704
0.4803,286400
0.4819667,275840
0.4836333,252736
0.4853,229952
0.4869667,206144
0.4886333,176320
0.4903,149760
0.4919667,125936
0.4936333,104560
0.4953,85328
0.4969667,70128
0.4986333,54416
0.5003,42576
0.5019667,33264
0.5036333,26268
0.5053,22044
0.5069667,16892
0.5086333,12660
0.5103,11980
0.5119666,10256
0.5136333,9180
0.5153,7621
0.5169666,7048
0.5186333,6219
0.5203,5809
0.5219667,5368
0.5236334,5549
0.5253,4608
0.5269667,4478
0.5286334,4142
0.5303,3613
0.5319667,4103
0.5336334,3756
0.5353,3814
0.5369667,3520
0.5386333,3181
0.5403,3054
0.5419667,2720
0.5436333,2892
0.5453,2799
0.5469667,2716
0.5486333,2557
0.5503,2624
0.5519667,2670
0.5536333,2357
0.5553,2176
0.5569667,2283
0.5586333,2275
0.5603,2078
0.5619667,2104
0.5636333,2167
0.5653,1882
0.5669667,1924
0.5686333,1656
0.5703,1924
0.5719666,1716
0.5736333,1421
0.5753,1836
0.5769666,1394
0.5786333,1650
0.5803,1499
0.5819666,1587
0.5836333,1536
0.5853,1628
0.5869667,1629
0.5886334,1254
0.5903,1411
0.5919667,1516
0.5936334,1621
0.5953,1397
0.5969667,1488
0.5986333,1474
0.6003,1421
0.6019667,1491
0.6036333,1479
0.6053,1327
0.6069667,1633
0.6086333,1570
0.6103,1709
0.6119667,1442
0.6136333,1487
0.6153,1757
0.6169667,1371
0.6186333,1625
0.6203,1157
0.6219667,1433
0.6236333,1406
0.6253,1179
0.6269667,1252
0.6286333,1247
0.6303,1216
0.6319667,1204
0.6336333,1245
0.6353,1221
0.6369666,1197
0.6386333,1157
0.6403,988
0.6419666,1030
0.6436333,1130
0.6453,1022
0.6469667,1030
0.6486334,882
0.6503,1147
0.6519667,1094
0.6536334,872
0.6553,1181
0.6569667,807
0.6586334,851
0.6603,942
0.6619667,909
0.6636333,851
0.6653,793
0.6669667,857
0.6686333,921
0.6703,945
0.6719667,793
0.6736333,957
0.6753,940
0.6769667,937
0.6786333,678
0.6803,913
0.6819667,846
0.6836333,889
0.6853,791
0.6869667,914
0.6886333,784
0.6903,829
0.6919667,788
0.6936333,871
0.6953,867
0.6969666,745
0.6986333,886
0.7003,878
0.7019666,925
0.7036333,920
0.7053,867
0.7069666,716
0.7086333,703
0.7103,678
0.7119667,644
0.7136334,611
0.7153,709
0.7169667,807
0.7186334,768
0.7203,733
0.7219667,789
0.7236333,639
0.7253,747
0.7269667,709
0.7286333,670
0.7303,715
0.7319667,732
0.7336333,774
0.7353,632
0.7369667,868
0.7386333,829
0.7403,643
0.7419667,583
0.7436333,726
0.7453,699
0.7469667,671
0.7486333,613
0.7503,645
0.7519667,741
0.7536333,790
0.7553,784
0.7569667,707
0.7586333,735
0.7603,646
0.7619666,606
0.7636333,752
0.7653,791
0.7669666,740
0.7686333,698
0.7703,667
0.7719667,760
0.7736334,706
0.7753,577
0.7769667,729
0.7786334,718
0.7803,646
0.7819667,635
0.7836334,753
0.7853,706
0.7869667,742
0.7886333,772
0.7903,673
0.7919667,632
0.7936333,780
0.7953,565
0.7969667,745
0.7986333,610
0.8003,689
0.8019667,475
0.8036333,492
0.8053,660
0.8069667,636
0.8086333,758
0.8103,646
0.8119667,709
0.8136333,726
0.8153,585
0.8169667,663
0.8186333,757
0.8203,573
0.8219666,645
0.8236333,739
0.8253,733
0.8269666,747
0.8286333,489
0.8303,631
0.8319666,674
0.8336333,631
0.8353,539
0.8369667,612
0.8386334,596
0.8403,580
0.8419667,583
0.8436334,587
0.8453,694
0.8469667,729
0.8486333,530
0.8503,680
0.8519667,696
0.8536333,557
0.8553,649
0.8569667,598
0.8586333,631
0.8603,673
0.8619667,537
0.8636333,669
0.8653,549
0.8669667,606
0.8686333,634
0.8703,589
0.8719667,544
0.8736333,569
0.8753,563
0.8769667,557
0.8786333,605
0.8803,602
0.8819667,905
0.8836333,1168
0.8853,1460
0.8869666,1330
0.8886333,1780
0.8903,1636
0.8919666,1774
0.8936333,1639
0.8953,1740
0.8969667,1841
0.8986334,2124
0.9003,2118
0.9019667,1913
0.9036334,2043
0.9053,2161
0.9069667,2088
0.9086334,2016
0.9103,2068
0.9119667,2247
0.9136333,2286
0.9153,1833
0.9169667,1798
0.9186333,2046
0.9203,1981
0.9219667,2160
0.9236333,2171
0.9253,2182
0.9269667,2018
0.9286333,2053
0.9303,2088
0.9319667,2120
0.9336333,2007
0.9353,1980
0.9369667,1946
0.9386333,1912
0.9403,1915
0.9419667,1917
0.9436333,1758
0.9453,1930
0.9469666,2058
0.9486333,1684
0.9503,1898
0.9519666,1873
0.9536333,1466
0.9553,1650
0.9569666,1295
0.9586333,1231
0.9603,1212
0.9619667,1068
0.9636334,1239
0.9653,1294
0.9669667,1289
0.9686334,1128
0.9703,975
0.9719667,851
0.9736333,939
0.9753,888
0.9769667,712
0.9786333,697
0.9803,832
0.9819667,842
0.9836333,496
0.9853,778
0.9869667,618
0.9886333,645
0.9903,657
0.9919667,559
0.9936333,594
0.9953,481
0.9969667,513
0.9986333,540
1.0003,523
1.001967,549
1.003633,574
1.0053,538
1.006967,502
1.008633,452
1.0103,367
1.011967,456
1.013633,500
1.0153,484
1.016967,493
1.018633,502
1.0203,517
1.021967,448
1.023633,480
1.0253,534
1.026967,484
1.028633,582
1.0303,605
1.031967,543
1.033633,438
1.0353,552
1.036967,445
1.038633,420
1.0403,570
1.041967,564
1.043633,477
1.0453,596
1.046967,440
1.048633,501
1.0503,424
1.051967,381
1.053633,611
1.0553,557
1.056967,539
1.058633,571
1.0603,468
1.061967,415
1.063633,576
1.0653,519
1.066967,466
1.068633,548
1.0703,494
1.071967,440
1.073633,381
1.0753,556
1.076967,513
1.078633,470
1.0803,520
1.081967,555
1.083633,570
1.0853,569
1.086967,568
1.088633,526
1.0903,484
1.091967,422
1.093633,503
1.0953,479
1.096967,543
1.098633,536
1.1003,529
1.101967,573
1.103633,617
1.1053,559
1.106967,502
1.108633,585
1.1103,632
1.111967,416
1.113633,492
1.1153,439
1.116967,542
1.118633,506
1.1203,544
1.121967,488
1.123633,660
1.1253,627
1.126967,451
1.128633,533
1.1303,535
1.131967,497
1.133633,504
1.1353,511
1.136967,474
1.138633,436
1.1403,421
1.141967,557
1.143633,571
1.1453,490
1.146967,599
1.148633,559
1.1503,603
1.151967,556
1.153633,585
1.1553,584
1.156967,582
1.158633,467
1.1603,521
1.161967,584
1.163633,479
1.1653,672
1.166967,719
1.168633,559
1.1703,500
1.171967,608
1.173633,470
1.1753,460
1.176967,596
1.178633,523
1.1803,517
1.181967,590
1.183633,639
1.1853,589
1.186967,408
1.188633,623
1.1903,434
1.191967,451
1.193633,484
1.1953,557
1.196967,522
1.198633,489
