"SampleName","A2Rd2_02-28"
"Target Mass 1",
"Column Name","IA-3 (3um, 4.6X100)"
"Channel","QDa 1: SIR Ch1"
0.00195,424
0.003616667,579
0.005283333,576
0.00695,486
0.008616666,513
0.01028333,564
0.01195,476
0.01361667,489
0.01528333,501
0.01695,644
0.01861667,619
0.02028333,514
0.02195,684
0.02361667,506
0.02528333,571
0.02695,567
0.02861667,529
0.03028333,547
0.03195,553
0.03361667,558
0.03528333,465
0.03695,520
0.03861667,511
0.04028333,493
0.04195,531
0.04361667,568
0.04528333,570
0.04695,555
0.04861667,540
0.05028334,588
0.05195,471
0.05361667,630
0.05528333,527
0.05695,561
0.05861667,561
0.06028333,577
0.06195,507
0.06361666,515
0.06528334,479
0.06695,443
0.06861667,522
0.07028333,439
0.07195,460
0.07361667,481
0.07528333,492
0.07695,502
0.07861666,513
0.08028334,560
0.08195,658
0.08361667,678
0.08528333,509
0.08695,489
0.08861667,417
0.09028333,458
0.09195,511
0.09361666,492
0.09528334,474
0.09695,493
0.09861667,513
0.1002833,440
0.10195,609
0.1036167,537
0.1052833,465
0.10695,398
0.1086167,497
0.1102833,478
0.11195,459
0.1136167,496
0.1152833,499
0.11695,502
0.1186167,503
0.1202833,511
0.12195,414
0.1236167,533
0.1252833,551
0.12695,569
0.1286167,584
0.1302833,572
0.13195,561
0.1336167,544
0.1352833,528
0.13695,504
0.1386167,417
0.1402833,482
0.14195,528
0.1436167,537
0.1452833,546
0.14695,613
0.1486167,661
0.1502833,649
0.15195,423
0.1536167,609
0.1552833,653
0.15695,543
0.1586167,613
0.1602833,622
0.16195,423
0.1636167,431
0.1652833,506
0.16695,522
0.1686167,552
0.1702833,487
0.17195,423
0.1736167,615
0.1752833,538
0.17695,463
0.1786167,617
0.1802833,565
0.18195,429
0.1836167,509
0.1852833,619
0.18695,503
0.1886167,489
0.1902833,646
0.19195,529
0.1936167,645
0.1952833,524
0.19695,534
0.1986167,513
0.2002833,451
0.20195,576
0.2036167,546
0.2052833,453
0.20695,597
0.2086167,402
0.2102833,474
0.21195,435
0.2136167,510
0.2152833,535
0.21695,561
0.2186167,573
0.2202833,594
0.22195,523
0.2236167,608
0.2252833,538
0.22695,574
0.2286167,494
0.2302833,540
0.23195,526
0.2336333,511
0.2352833,405
0.23695,568
0.2386167,495
0.2402833,590
0.24195,375
0.2436167,597
0.2453,412
0.24695,518
0.2486167,455
0.2503,558
0.25195,569
0.2536167,376
0.2552833,500
0.25695,549
0.2586167,451
0.2602833,507
0.26195,490
0.2636333,591
0.2652833,575
0.2669667,452
0.2686167,511
0.2702833,568
0.27195,515
0.2736167,504
0.2752833,513
0.27695,566
0.2786167,565
0.2803,565
0.28195,482
0.2836167,518
0.2852833,476
0.28695,563
0.2886167,616
0.2902833,389
0.29195,551
0.2936167,505
0.2952833,458
0.29695,493
0.2986333,527
0.3003,548
0.3019667,461
0.3036167,436
0.3052833,411
0.30695,439
0.3086333,561
0.3102833,543
0.3119667,591
0.3136167,550
0.3153,616
0.3169667,582
0.3186333,500
0.3202833,665
0.3219667,610
0.3236167,699
0.3253,711
0.32695,506
0.3286167,638
0.3302833,495
0.33195,609
0.3336333,489
0.3353,504
0.33695,524
0.3386333,485
0.3402833,575
0.34195,357
0.3436167,316
0.3453,532
0.34695,590
0.3486333,437
0.3503,498
0.3519667,558
0.3536333,530
0.3553,515
0.35695,581
0.3586333,562
0.3603,516
0.36195,842
0.3636333,1007
0.3653,1112
0.3669667,1493
0.3686333,2564
0.3703,3397
0.3719667,3465
0.3736333,4527
0.3753,4454
0.3769667,4716
0.3786333,4771
0.3803,5683
0.3819667,5749
0.3836333,5151
0.3853,4546
0.3869667,4733
0.3886333,3966
0.3903,3352
0.3919667,2861
0.3936333,2197
0.3953,1654
0.3969667,1343
0.3986333,1436
0.4003,1210
0.4019667,1484
0.4036333,1204
0.4053,986
0.4069667,1187
0.4086333,1267
0.4103,1046
0.4119667,1130
0.4136333,1125
0.4153,1120
0.4169667,1352
0.4186333,1372
0.4203,1360
0.4219667,1171
0.4236333,1116
0.4253,1266
0.4269667,1288
0.4286333,1314
0.4303,1339
0.4319667,1216
0.4336333,1962
0.4353,2600
0.4369667,4264
0.4386333,6593
0.4403,10312
0.4419667,16068
0.4436333,24656
0.4453,36128
0.4469667,48096
0.4486333,63408
0.4503,83072
0.4519667,98752
0.4536333,115168
0.4553,128464
0.4569667,140928
0.4586333,149824
0.4603,156736
0.4619667,167488
0.4636333,169024
0.4653,175680
0.4669667,183936
0.4686333,186752
0.4703,202112
0.4719667,206656
0.4736333,220352
0.4753,226944
0.4769667,228224
0.4786333,227136
0.4803,218752
0.4819667,200000
0.4836333,183744
0.4853,166592
0.4869667,143872
0.4886333,126672
0.4903,104896
0.4919667,88352
0.4936333,71152
0.4953,59024
0.4969667,45744
0.4986333,35568
0.5003,28656
0.5019667,21812
0.5036333,18780
0.5053,14852
0.5069667,12320
0.5086333,9900
0.5103,8872
0.5119666,7585
0.5136333,6256
0.5153,5995
0.5169666,5370
0.5186333,4432
0.5203,4495
0.5219667,4036
0.5236334,3785
0.5253,3235
0.5269667,3480
0.5286334,3290
0.5303,2893
0.5319667,2595
0.5336334,2540
0.5353,2486
0.5369667,2479
0.5386333,2386
0.5403,2444
0.5419667,2394
0.5436333,2438
0.5453,2315
0.5469667,1937
0.5486333,1938
0.5503,1992
0.5519667,1902
0.5536333,1480
0.5553,2136
0.5569667,1734
0.5586333,1598
0.5603,1661
0.5619667,1649
0.5636333,1350
0.5653,1604
0.5669667,1585
0.5686333,1368
0.5703,1552
0.5719666,1323
0.5736333,1253
0.5753,1402
0.5769666,1363
0.5786333,1592
0.5803,1515
0.5819666,1591
0.5836333,1482
0.5853,1373
0.5869667,1363
0.5886334,1393
0.5903,1348
0.5919667,1334
0.5936334,1320
0.5953,1277
0.5969667,1336
0.5986333,1356
0.6003,1045
0.6019667,1288
0.6036333,1138
0.6053,1235
0.6069667,1336
0.6086333,1376
0.6103,976
0.6119667,1128
0.6136333,1186
0.6153,1173
0.6169667,1169
0.6186333,1185
0.6203,1169
0.6219667,1154
0.6236333,1285
0.6253,1314
0.6269667,1343
0.6286333,1051
0.6303,877
0.6319667,971
0.6336333,1074
0.6353,1130
0.6369666,999
0.6386333,942
0.6403,878
0.6419666,962
0.6436333,902
0.6453,839
0.6469667,976
0.6486334,809
0.6503,858
0.6519667,908
0.6536334,879
0.6553,893
0.6569667,907
0.6586334,1010
0.6603,1014
0.6619667,990
0.6636333,886
0.6653,788
0.6669667,1017
0.6686333,887
0.6703,821
0.6719667,923
0.6736333,833
0.6753,898
0.6769667,733
0.6786333,791
0.6803,750
0.6819667,764
0.6836333,777
0.6853,756
0.6869667,753
0.6886333,763
0.6903,842
0.6919667,892
0.6936333,951
0.6953,751
0.6969666,876
0.6986333,833
0.7003,859
0.7019666,923
0.7036333,688
0.7053,732
0.7069666,737
0.7086333,734
0.7103,745
0.7119667,682
0.7136334,619
0.7153,746
0.7169667,723
0.7186334,700
0.7203,745
0.7219667,791
0.7236333,772
0.7253,764
0.7269667,749
0.7286333,721
0.7303,854
0.7319667,872
0.7336333,726
0.7353,693
0.7369667,717
0.7386333,710
0.7403,783
0.7419667,787
0.7436333,740
0.7453,779
0.7469667,870
0.7486333,869
0.7503,831
0.7519667,671
0.7536333,672
0.7553,910
0.7569667,864
0.7586333,678
0.7603,770
0.7619666,763
0.7636333,775
0.7653,786
0.7669666,881
0.7686333,878
0.7703,844
0.7719667,848
0.7736334,835
0.7753,857
0.7769667,752
0.7786334,768
0.7803,830
0.7819667,839
0.7836334,848
0.7853,787
0.7869667,731
0.7886333,900
0.7903,672
0.7919667,897
0.7936333,668
0.7953,807
0.7969667,675
0.7986333,675
0.8003,675
0.8019667,800
0.8036333,870
0.8053,933
0.8069667,941
0.8086333,839
0.8103,747
0.8119667,857
0.8136333,678
0.8153,811
0.8169667,747
0.8186333,810
0.8203,872
0.8219666,845
0.8236333,818
0.8253,790
0.8269666,908
0.8286333,880
0.8303,940
0.8319666,911
0.8336333,882
0.8353,912
0.8369667,820
0.8386334,761
0.8403,784
0.8419667,806
0.8436334,879
0.8453,830
0.8469667,782
0.8486333,754
0.8503,848
0.8519667,930
0.8536333,1069
0.8553,981
0.8569667,860
0.8586333,938
0.8603,892
0.8619667,899
0.8636333,843
0.8653,817
0.8669667,605
0.8686333,754
0.8703,659
0.8719667,705
0.8736333,681
0.8753,658
0.8769667,1149
0.8786333,1110
0.8803,1550
0.8819667,2038
0.8836333,2494
0.8853,2423
0.8869666,2810
0.8886333,2996
0.8903,3634
0.8919666,3432
0.8936333,3402
0.8953,3918
0.8969667,3896
0.8986334,3434
0.9003,3571
0.9019667,3879
0.9036334,3894
0.9053,3806
0.9069667,3749
0.9086334,3210
0.9103,3407
0.9119667,3413
0.9136333,3541
0.9153,3536
0.9169667,3532
0.9186333,3450
0.9203,3453
0.9219667,3455
0.9236333,3150
0.9253,3473
0.9269667,3504
0.9286333,3154
0.9303,3485
0.9319667,3544
0.9336333,3369
0.9353,3241
0.9369667,2837
0.9386333,3237
0.9403,3174
0.9419667,2855
0.9436333,2711
0.9453,2676
0.9469666,2642
0.9486333,2681
0.9503,2489
0.9519666,2375
0.9536333,2314
0.9553,2382
0.9569666,1930
0.9586333,2027
0.9603,1986
0.9619667,1880
0.9636334,1548
0.9653,1406
0.9669667,1505
0.9686334,1421
0.9703,1354
0.9719667,1417
0.9736333,1090
0.9753,1356
0.9769667,998
0.9786333,1048
0.9803,1041
0.9819667,956
0.9836333,853
0.9853,707
0.9869667,879
0.9886333,862
0.9903,797
0.9919667,661
0.9936333,649
0.9953,668
0.9969667,677
0.9986333,474
1.0003,746
1.001967,761
1.003633,534
1.0053,462
1.006967,633
1.008633,606
1.0103,626
1.011967,621
1.013633,616
1.0153,516
1.016967,517
1.018633,599
1.0203,532
1.021967,465
1.023633,666
1.0253,691
1.026967,753
1.028633,548
1.0303,661
1.031967,670
1.033633,703
1.0353,411
1.036967,634
1.038633,747
1.0403,591
1.041967,709
1.043633,715
1.0453,598
1.046967,644
1.048633,533
1.0503,723
1.051967,759
1.053633,540
1.0553,693
1.056967,605
1.058633,651
1.0603,697
1.061967,693
1.063633,701
1.0653,733
1.066967,746
1.068633,541
1.0703,713
1.071967,563
1.073633,654
1.0753,441
1.076967,714
1.078633,696
1.0803,592
1.081967,720
1.083633,601
1.0853,623
1.086967,615
1.088633,647
1.0903,647
1.091967,728
1.093633,748
1.0953,676
1.096967,611
1.098633,753
1.1003,622
1.101967,746
1.103633,784
1.1053,653
1.106967,658
1.108633,787
1.1103,725
1.111967,527
1.113633,731
1.1153,696
1.116967,491
1.118633,878
1.1203,696
1.121967,746
1.123633,822
1.1253,680
1.126967,761
1.128633,710
1.1303,701
1.131967,708
1.133633,714
1.1353,689
1.136967,591
1.138633,601
1.1403,606
1.141967,611
1.143633,701
1.1453,726
1.146967,723
1.148633,694
1.1503,665
1.151967,635
1.153633,823
1.1553,815
1.156967,601
1.158633,726
1.1603,762
1.161967,765
1.163633,678
1.1653,691
1.166967,781
1.168633,788
1.1703,737
1.171967,744
1.173633,751
1.1753,742
1.176967,732
1.178633,759
1.1803,787
1.181967,785
1.183633,829
1.1853,856
1.186967,932
1.188633,673
1.1903,918
1.191967,627
1.193633,756
1.1953,873
1.196967,827
1.198633,789
