"SampleName","A2Rd2_02-38"
"Target Mass 1",
"Column Name","IA-3 (3um, 4.6X100)"
"Channel","QDa 1: SIR Ch2"
0.00195,553
0.003616667,502
0.005283333,568
0.00695,715
0.008616666,761
0.01028333,905
0.01195,828
0.01361667,874
0.01528333,921
0.01695,843
0.01861667,857
0.02028333,872
0.02195,849
0.02361667,862
0.02528333,876
0.02695,853
0.02861667,902
0.03028333,950
0.03195,975
0.03361667,698
0.03528333,921
0.03695,827
0.03861667,1007
0.04028333,1028
0.04195,1133
0.04361667,1048
0.04528333,1048
0.04695,838
0.04861667,1066
0.05028334,872
0.05195,773
0.05361667,1114
0.05528333,921
0.05695,1159
0.05861667,837
0.06028333,1105
0.06195,957
0.06361666,1031
0.06528334,1083
0.06695,914
0.06861667,769
0.07028333,1032
0.07195,1090
0.07361667,1252
0.07528333,883
0.07695,846
0.07861666,925
0.08028334,940
0.08195,883
0.08361667,858
0.08528333,916
0.08695,894
0.08861667,954
0.09028333,1013
0.09195,798
0.09361666,1063
0.09528334,978
0.09695,723
0.09861667,553
0.1002833,888
0.10195,757
0.1036167,791
0.1052833,846
0.10695,919
0.1086167,951
0.1102833,991
0.11195,944
0.1136167,883
0.1152833,847
0.11695,818
0.1186167,789
0.1202833,922
0.12195,939
0.1236167,896
0.1252833,889
0.12695,927
0.1286167,886
0.1302833,845
0.13195,715
0.1336167,803
0.1352833,867
0.13695,860
0.1386167,774
0.1402833,867
0.14195,832
0.1436167,891
0.1452833,853
0.14695,712
0.1486167,858
0.1502833,868
0.15195,850
0.1536167,861
0.1552833,871
0.15695,791
0.1586167,893
0.1602833,847
0.16195,802
0.1636167,735
0.1652833,794
0.16695,798
0.1686167,802
0.1702833,819
0.17195,837
0.1736167,762
0.1752833,849
0.17695,739
0.1786167,696
0.1802833,933
0.18195,834
0.1836167,863
0.1852833,740
0.18695,790
0.1886167,817
0.1902833,844
0.19195,840
0.1936167,836
0.1952833,829
0.19695,821
0.1986167,849
0.2002833,970
0.20195,905
0.2036167,841
0.2052833,742
0.20695,871
0.2086167,814
0.2102833,872
0.21195,865
0.2136167,890
0.2152833,915
0.21695,942
0.2186167,968
0.2202833,1039
0.22195,1110
0.2236167,1240
0.2252833,1217
0.22695,938
0.2286333,999
0.2302833,1081
0.23195,1163
0.2336167,1147
0.2352833,1228
0.23695,980
0.2386167,1285
0.2402833,959
0.24195,1412
0.2436167,1160
0.2453,1308
0.24695,1104
0.2486167,1342
0.2502833,1340
0.25195,1299
0.2536167,1330
0.2552833,1165
0.25695,907
0.2586167,1194
0.2602833,1176
0.26195,1039
0.2636333,1001
0.2652833,873
0.26695,922
0.2686167,1041
0.2703,930
0.27195,1078
0.2736333,1050
0.2752833,1066
0.27695,1216
0.2786333,1120
0.2803,1023
0.28195,780
0.2836167,864
0.2852833,983
0.2869667,1021
0.2886167,1051
0.2903,892
0.29195,877
0.2936167,950
0.2952833,879
0.29695,809
0.2986333,1027
0.3002833,1032
0.30195,956
0.3036333,1045
0.3052833,1053
0.30695,1205
0.3086167,1138
0.3103,1117
0.31195,1123
0.3136167,1139
0.3153,1155
0.3169667,1369
0.3186167,1607
0.3202833,1466
0.32195,1241
0.3236333,1195
0.3252833,1353
0.3269667,1297
0.3286333,1382
0.3303,1129
0.33195,1022
0.3336333,1264
0.3353,1187
0.3369667,1112
0.3386167,1250
0.3403,1213
0.3419667,1141
0.3436333,1439
0.3452833,1463
0.3469667,1385
0.3486167,1480
0.3503,1272
0.35195,1200
0.3536333,1031
0.3552833,1316
0.3569667,1151
0.3586167,1490
0.3603,1351
0.36195,1548
0.3636333,1171
0.3652833,2284
0.3669667,3273
0.3686333,3439
0.3703,4043
0.3719667,3593
0.3736333,3206
0.3753,3315
0.3769667,3159
0.3786333,3288
0.3803,3417
0.3819667,3072
0.3836333,2687
0.3853,2644
0.3869667,1849
0.3886333,1654
0.3903,1217
0.3919667,951
0.3936333,839
0.3953,705
0.3969667,561
0.3986333,641
0.4003,481
0.4019667,490
0.4036333,496
0.4053,426
0.4069667,533
0.4086333,466
0.4103,439
0.4119667,699
0.4136333,790
0.4153,765
0.4169667,576
0.4186333,869
0.4203,695
0.4219667,547
0.4236333,662
0.4253,689
0.4269667,693
0.4286333,626
0.4303,730
0.4319667,812
0.4336333,865
0.4353,830
0.4369667,778
0.4386333,725
0.4403,992
0.4419667,1003
0.4436333,1037
0.4453,997
0.4469667,957
0.4486333,1050
0.4503,897
0.4519667,1086
0.4536333,1109
0.4553,1115
0.4569667,1009
0.4586333,1114
0.4603,1140
0.4619667,1110
0.4636333,1080
0.4653,1182
0.4669667,1285
0.4686333,1551
0.4703,1532
0.4719667,1549
0.4736333,1075
0.4753,1184
0.4769667,1242
0.4786333,1189
0.4803,1137
0.4819667,1148
0.4836333,1158
0.4853,1342
0.4869667,1330
0.4886333,1257
0.4903,1120
0.4919667,1387
0.4936333,1017
0.4953,1064
0.4969667,829
0.4986333,1013
0.5003,1058
0.5019667,1137
0.5036333,889
0.5053,873
0.5069667,810
0.5086333,751
0.5103,905
0.5119666,899
0.5136333,893
0.5153,923
0.5169666,842
0.5186333,858
0.5203,945
0.5219667,955
0.5236334,961
0.5253,952
0.5269667,779
0.5286334,894
0.5303,798
0.5319667,897
0.5336334,1110
0.5353,1079
0.5369667,734
0.5386333,953
0.5403,876
0.5419667,772
0.5436333,848
0.5453,920
0.5469667,992
0.5486333,883
0.5503,926
0.5519667,980
0.5536333,965
0.5553,907
0.5569667,848
0.5586333,1107
0.5603,1093
0.5619667,935
0.5636333,891
0.5653,857
0.5669667,842
0.5686333,854
0.5703,838
0.5719666,883
0.5736333,728
0.5753,859
0.5769666,998
0.5786333,966
0.5803,933
0.5819666,972
0.5836333,936
0.5853,986
0.5869667,879
0.5886334,948
0.5903,867
0.5919667,970
0.5936334,790
0.5953,865
0.5969667,778
0.5986333,776
0.6003,916
0.6019667,859
0.6036333,793
0.6053,887
0.6069667,887
0.6086333,871
0.6103,855
0.6119667,840
0.6136333,826
0.6153,812
0.6169667,822
0.6186333,929
0.6203,920
0.6219667,912
0.6236333,1008
0.6253,1048
0.6269667,1051
0.6286333,1093
0.6303,1136
0.6319667,1105
0.6336333,846
0.6353,864
0.6369666,969
0.6386333,1048
0.6403,1128
0.6419666,1047
0.6436333,1173
0.6453,974
0.6469667,1048
0.6486334,835
0.6503,1032
0.6519667,945
0.6536334,1094
0.6553,905
0.6569667,881
0.6586334,846
0.6603,908
0.6619667,903
0.6636333,899
0.6653,894
0.6669667,889
0.6686333,972
0.6703,1056
0.6719667,1496
0.6736333,1516
0.6753,1930
0.6769667,2074
0.6786333,3065
0.6803,3625
0.6819667,4534
0.6836333,5290
0.6853,6742
0.6869667,8560
0.6886333,10328
0.6903,10548
0.6919667,13812
0.6936333,15484
0.6953,16740
0.6969666,17360
0.6986333,18676
0.7003,19712
0.7019666,19408
0.7036333,19404
0.7053,19704
0.7069666,19348
0.7086333,18924
0.7103,18500
0.7119667,19140
0.7136334,18424
0.7153,19224
0.7169667,19056
0.7186334,18888
0.7203,17324
0.7219667,18284
0.7236333,17148
0.7253,15880
0.7269667,14672
0.7286333,14056
0.7303,12580
0.7319667,10608
0.7336333,10296
0.7353,8724
0.7369667,7727
0.7386333,6826
0.7403,6415
0.7419667,5368
0.7436333,4647
0.7453,4450
0.7469667,3853
0.7486333,3406
0.7503,2668
0.7519667,2834
0.7536333,2440
0.7553,2351
0.7569667,2033
0.7586333,2169
0.7603,1938
0.7619666,1607
0.7636333,1696
0.7653,1629
0.7669666,1719
0.7686333,1423
0.7703,1340
0.7719667,1229
0.7736334,1616
0.7753,1924
0.7769667,2195
0.7786334,2489
0.7803,2800
0.7819667,3612
0.7836334,4296
0.7853,5640
0.7869667,6697
0.7886333,7926
0.7903,9484
0.7919667,11608
0.7936333,13384
0.7953,14608
0.7969667,17996
0.7986333,19780
0.8003,19484
0.8019667,20720
0.8036333,20844
0.8053,20972
0.8069667,21420
0.8086333,21868
0.8103,23712
0.8119667,23112
0.8136333,21488
0.8153,21564
0.8169667,21732
0.8186333,20448
0.8203,21212
0.8219666,21288
0.8236333,21516
0.8253,21452
0.8269666,19936
0.8286333,19612
0.8303,19352
0.8319666,18452
0.8336333,17536
0.8353,16900
0.8369667,15320
0.8386334,14316
0.8403,12932
0.8419667,11540
0.8436334,10288
0.8453,9296
0.8469667,7841
0.8486333,7575
0.8503,6499
0.8519667,5619
0.8536333,5342
0.8553,4606
0.8569667,4139
0.8586333,3848
0.8603,3730
0.8619667,3293
0.8636333,3181
0.8653,2993
0.8669667,2448
0.8686333,2196
0.8703,1971
0.8719667,1778
0.8736333,1659
0.8753,1857
0.8769667,1889
0.8786333,2060
0.8803,1974
0.8819667,2103
0.8836333,2220
0.8853,2276
0.8869666,2058
0.8886333,2259
0.8903,2292
0.8919666,2042
0.8936333,2000
0.8953,1687
0.8969667,2174
0.8986334,1849
0.9003,1988
0.9019667,2258
0.9036334,1937
0.9053,1995
0.9069667,1628
0.9086334,1826
0.9103,1710
0.9119667,1810
0.9136333,1680
0.9153,1654
0.9169667,1628
0.9186333,1414
0.9203,1449
0.9219667,1684
0.9236333,1721
0.9253,1508
0.9269667,1668
0.9286333,1464
0.9303,1384
0.9319667,1414
0.9336333,1464
0.9353,1394
0.9369667,1323
0.9386333,1422
0.9403,1589
0.9419667,1545
0.9436333,1570
0.9453,1596
0.9469666,1573
0.9486333,1653
0.9503,1734
0.9519666,2097
0.9536333,2359
0.9553,2788
0.9569666,3373
0.9586333,3961
0.9603,4218
0.9619667,5759
0.9636334,6283
0.9653,7633
0.9669667,10024
0.9686334,10472
0.9703,12676
0.9719667,15196
0.9736333,17840
0.9753,20564
0.9769667,22056
0.9786333,25900
0.9803,27928
0.9819667,29548
0.9836333,31900
0.9853,32976
0.9869667,35840
0.9886333,36624
0.9903,39024
0.9919667,38864
0.9936333,39360
0.9953,39312
0.9969667,38032
0.9986333,38880
1.0003,38784
1.001967,39328
1.003633,37744
1.0053,37760
1.006967,37824
1.008633,36448
1.0103,37056
1.011967,38960
1.013633,38656
1.0153,37104
1.016967,39136
1.018633,38640
1.0203,40016
1.021967,38064
1.023633,36896
1.0253,35248
1.026967,35008
1.028633,34176
1.0303,32244
1.031967,28852
1.033633,28500
1.0353,26052
1.036967,22920
1.038633,21600
1.0403,20612
1.041967,18172
1.043633,16992
1.0453,15540
1.046967,14704
1.048633,12796
1.0503,13036
1.051967,11972
1.053633,11480
1.0553,10852
1.056967,10624
1.058633,10552
1.0603,10624
1.061967,10276
1.063633,11144
1.0653,11556
1.066967,12060
1.068633,12176
1.0703,11732
1.071967,11904
1.073633,12076
1.0753,12848
1.076967,12848
1.078633,12704
1.0803,12564
1.081967,12932
1.083633,13300
1.0853,13580
1.086967,13368
1.088633,13156
1.0903,12244
1.091967,12916
1.093633,12696
1.0953,13132
1.096967,13036
1.098633,12360
1.1003,11860
1.101967,13032
1.103633,13152
1.1053,11660
1.106967,12404
1.108633,11924
1.1103,12660
1.111967,11420
1.113633,11080
1.1153,11700
1.116967,10896
1.118633,10236
1.1203,10592
1.121967,9860
1.123633,9864
1.1253,8948
1.126967,8532
1.128633,6935
1.1303,7620
1.131967,6759
1.133633,6507
1.1353,6215
1.136967,5349
1.138633,5514
1.1403,4725
1.141967,4348
1.143633,4652
1.1453,3994
1.146967,3707
1.148633,3921
1.1503,3488
1.151967,3449
1.153633,3397
1.1553,2985
1.156967,3272
1.158633,2427
1.1603,2348
1.161967,2807
1.163633,2080
1.1653,2499
1.166967,2195
1.168633,2107
1.1703,1867
1.171967,1801
1.173633,1868
1.1753,1833
1.176967,1798
1.178633,1810
1.1803,1821
1.181967,1433
1.183633,1624
1.1853,1836
1.186967,1879
1.188633,1788
1.1903,1639
1.191967,1783
1.193633,2031
1.1953,2091
1.196967,2229
1.198633,2257
