"SampleName","A2Rd2_02-66"
"Target Mass 1",
"Column Name","IA-3 (3um, 4.6X100)"
"Channel","QDa 1: SIR Ch2"
0.00195,526
0.003616667,860
0.005283333,898
0.00695,848
0.008616666,763
0.01028333,985
0.01195,1079
0.01361667,1001
0.01528333,923
0.01695,1003
0.01861667,952
0.02028333,1043
0.02195,890
0.02361667,855
0.02528333,897
0.02695,938
0.02861667,1002
0.03028333,938
0.03195,873
0.03361667,978
0.03528333,972
0.03695,1235
0.03861667,1194
0.04028333,1153
0.04195,1191
0.04361667,1048
0.04528333,1215
0.04695,907
0.04861667,1216
0.05028334,1123
0.05195,1038
0.05361667,893
0.05528333,994
0.05695,966
0.05861667,938
0.06028333,1052
0.06195,1099
0.06361666,891
0.06528334,1082
0.06695,1029
0.06861667,975
0.07028333,990
0.07195,1003
0.07361667,1016
0.07528333,1019
0.07695,1022
0.07861666,1021
0.08028334,1051
0.08195,1082
0.08361667,1012
0.08528333,943
0.08695,951
0.08861667,1004
0.09028333,1057
0.09195,1017
0.09361666,1065
0.09528334,1004
0.09695,943
0.09861667,877
0.1002833,1060
0.10195,826
0.1036167,921
0.1052833,1017
0.10695,1201
0.1086167,1107
0.1102833,1030
0.11195,968
0.1136167,1124
0.1152833,893
0.11695,1029
0.1186167,1123
0.1202833,929
0.12195,1134
0.1236167,907
0.1252833,923
0.12695,1007
0.1286167,978
0.1302833,1001
0.13195,1000
0.1336167,998
0.1352833,913
0.13695,904
0.1386167,929
0.1402833,1064
0.14195,1040
0.1436167,1015
0.1452833,1138
0.14695,867
0.1486167,906
0.1502833,918
0.15195,885
0.1536167,852
0.1552833,888
0.15695,925
0.1586333,804
0.1602833,636
0.16195,1019
0.1636167,1074
0.1652833,999
0.16695,887
0.1686167,1008
0.1702833,992
0.17195,835
0.1736167,1106
0.1752833,960
0.17695,1123
0.1786167,767
0.1802833,903
0.18195,811
0.1836167,830
0.1852833,849
0.18695,913
0.1886167,908
0.1902833,870
0.19195,833
0.1936333,913
0.1953,793
0.19695,850
0.1986167,907
0.2002833,1090
0.20195,1131
0.2036167,1102
0.2052833,1165
0.20695,958
0.2086167,1268
0.2103,881
0.21195,1004
0.2136167,1319
0.2152833,1016
0.21695,1204
0.2186167,1053
0.2202833,1134
0.22195,1124
0.2236167,1259
0.2252833,1221
0.22695,1324
0.2286167,1247
0.2302833,1265
0.23195,1187
0.2336167,1109
0.2352833,1135
0.23695,1161
0.2386167,1255
0.2403,1258
0.24195,1261
0.2436333,1311
0.2452833,1154
0.24695,1412
0.2486167,1062
0.2502833,1492
0.25195,1572
0.2536167,1345
0.2552833,1333
0.2569667,1288
0.2586167,1394
0.2602833,1201
0.26195,1167
0.2636333,1369
0.2652833,1207
0.26695,1114
0.2686167,1066
0.2702833,1278
0.27195,1241
0.2736167,1205
0.2752833,1300
0.27695,1275
0.2786167,1251
0.2803,1208
0.28195,1165
0.2836167,1126
0.2852833,1131
0.28695,1176
0.2886167,1222
0.2902833,995
0.29195,1314
0.2936333,1241
0.2952833,1049
0.29695,1132
0.2986333,1216
0.3002833,1192
0.30195,1168
0.3036167,1038
0.3052833,1416
0.30695,1306
0.3086167,1110
0.3102833,1275
0.31195,1549
0.3136167,1466
0.3153,1298
0.31695,1431
0.3186167,1505
0.3203,1557
0.32195,1430
0.3236167,1513
0.3253,1335
0.32695,1400
0.3286167,1509
0.3302833,1274
0.33195,1159
0.3336333,1505
0.3352833,1401
0.3369667,1216
0.3386333,1435
0.3403,1461
0.3419667,1561
0.3436333,1574
0.3452833,1587
0.34695,1213
0.3486167,1520
0.3503,1581
0.35195,1400
0.3536333,1261
0.3552833,1393
0.3569667,1494
0.3586333,1432
0.3602833,1486
0.36195,1428
0.3636167,1780
0.3652833,1835
0.36695,2705
0.3686333,2987
0.3702833,3077
0.3719667,2926
0.3736333,2831
0.3753,2537
0.3769667,2301
0.3786333,2507
0.3802833,2451
0.3819667,2505
0.3836333,2286
0.3853,2157
0.3869667,1573
0.3886333,1871
0.3903,1411
0.3919667,842
0.3936333,942
0.3953,602
0.3969667,514
0.3986333,559
0.4003,528
0.4019667,497
0.4036333,529
0.4053,509
0.4069667,479
0.4086333,460
0.4103,501
0.4119667,502
0.4136333,504
0.4153,532
0.4169667,561
0.4186333,805
0.4203,958
0.4219667,806
0.4236333,805
0.4253,705
0.4269667,895
0.4286333,1080
0.4303,1018
0.4319667,894
0.4336333,1050
0.4353,856
0.4369667,854
0.4386333,738
0.4403,954
0.4419667,1098
0.4436333,1040
0.4453,1188
0.4469667,1173
0.4486333,1066
0.4503,1105
0.4519667,1144
0.4536333,1218
0.4553,1291
0.4569667,1380
0.4586333,1291
0.4603,1274
0.4619667,1299
0.4636333,1324
0.4653,1315
0.4669667,1306
0.4686333,1306
0.4703,1409
0.4719667,1114
0.4736333,1310
0.4753,1306
0.4769667,1265
0.4786333,1285
0.4803,1311
0.4819667,1292
0.4836333,1284
0.4853,1331
0.4869667,1047
0.4886333,1227
0.4903,1192
0.4919667,1130
0.4936333,1065
0.4953,989
0.4969667,897
0.4986333,956
0.5003,969
0.5019667,938
0.5036333,907
0.5053,1019
0.5069667,831
0.5086333,920
0.5103,964
0.5119666,742
0.5136333,979
0.5153,1034
0.5169666,981
0.5186333,1049
0.5203,1017
0.5219667,825
0.5236334,901
0.5253,894
0.5269667,882
0.5286334,1136
0.5303,1081
0.5319667,1015
0.5336334,798
0.5353,1110
0.5369667,792
0.5386333,737
0.5403,873
0.5419667,1030
0.5436333,1029
0.5453,984
0.5469667,940
0.5486333,949
0.5503,990
0.5519667,983
0.5536333,969
0.5553,955
0.5569667,887
0.5586333,740
0.5603,1037
0.5619667,1171
0.5636333,1042
0.5653,1039
0.5669667,1133
0.5686333,1071
0.5703,1000
0.5719666,996
0.5736333,973
0.5753,951
0.5769666,984
0.5786333,828
0.5803,861
0.5819666,893
0.5836333,1002
0.5853,1167
0.5869667,1116
0.5886334,1060
0.5903,831
0.5919667,1013
0.5936334,833
0.5953,935
0.5969667,735
0.5986333,1000
0.6003,958
0.6019667,916
0.6036333,1060
0.6053,1019
0.6069667,968
0.6086333,785
0.6103,1039
0.6119667,948
0.6136333,905
0.6153,1026
0.6169667,872
0.6186333,1103
0.6203,989
0.6219667,875
0.6236333,1148
0.6253,1097
0.6269667,1016
0.6286333,1137
0.6303,980
0.6319667,1129
0.6336333,886
0.6353,975
0.6369666,1118
0.6386333,903
0.6403,943
0.6419666,1032
0.6436333,1034
0.6453,1036
0.6469667,1007
0.6486334,980
0.6503,977
0.6519667,975
0.6536334,1024
0.6553,1077
0.6569667,1080
0.6586334,1102
0.6603,1057
0.6619667,1012
0.6636333,962
0.6653,1156
0.6669667,1105
0.6686333,1177
0.6703,1316
0.6719667,1455
0.6736333,1783
0.6753,2437
0.6769667,2981
0.6786333,3533
0.6803,4694
0.6819667,5929
0.6836333,6355
0.6853,8348
0.6869667,10080
0.6886333,11700
0.6903,14260
0.6919667,14812
0.6936333,16340
0.6953,18248
0.6969666,18548
0.6986333,20796
0.7003,20044
0.7019666,19580
0.7036333,19324
0.7053,18248
0.7069666,19164
0.7086333,18488
0.7103,17724
0.7119667,18468
0.7136334,18132
0.7153,16940
0.7169667,16268
0.7186334,16648
0.7203,16496
0.7219667,16480
0.7236333,15276
0.7253,15196
0.7269667,13652
0.7286333,14216
0.7303,12020
0.7319667,11536
0.7336333,9652
0.7353,9096
0.7369667,9312
0.7386333,7488
0.7403,6487
0.7419667,5952
0.7436333,5299
0.7453,4700
0.7469667,3720
0.7486333,3897
0.7503,3259
0.7519667,2715
0.7536333,2803
0.7553,2724
0.7569667,2411
0.7586333,2019
0.7603,2033
0.7619666,1974
0.7636333,1801
0.7653,1848
0.7669666,1747
0.7686333,1419
0.7703,1839
0.7719667,1770
0.7736334,1428
0.7753,1916
0.7769667,2003
0.7786334,2124
0.7803,2540
0.7819667,3240
0.7836334,3903
0.7853,4131
0.7869667,5213
0.7886333,6278
0.7903,6862
0.7919667,8048
0.7936333,9804
0.7953,10352
0.7969667,11696
0.7986333,12076
0.8003,12692
0.8019667,13168
0.8036333,14536
0.8053,13856
0.8069667,13416
0.8086333,13548
0.8103,12516
0.8119667,13300
0.8136333,12420
0.8153,12736
0.8169667,11424
0.8186333,11248
0.8203,11144
0.8219666,10908
0.8236333,11264
0.8253,11032
0.8269666,11384
0.8286333,11300
0.8303,10068
0.8319666,10412
0.8336333,10320
0.8353,10200
0.8369667,8400
0.8386334,8612
0.8403,7449
0.8419667,7422
0.8436334,6995
0.8453,6151
0.8469667,4917
0.8486333,4918
0.8503,4711
0.8519667,3999
0.8536333,4009
0.8553,3492
0.8569667,3064
0.8586333,3383
0.8603,2759
0.8619667,2652
0.8636333,2242
0.8653,2297
0.8669667,2143
0.8686333,2061
0.8703,2010
0.8719667,1605
0.8736333,1956
0.8753,1604
0.8769667,1481
0.8786333,1574
0.8803,1784
0.8819667,2071
0.8836333,2235
0.8853,2305
0.8869666,2198
0.8886333,2042
0.8903,2134
0.8919666,2029
0.8936333,1925
0.8953,2169
0.8969667,2081
0.8986334,2013
0.9003,1888
0.9019667,1860
0.9036334,1935
0.9053,1925
0.9069667,1915
0.9086334,1906
0.9103,1834
0.9119667,1479
0.9136333,1792
0.9153,1785
0.9169667,1783
0.9186333,1819
0.9203,1707
0.9219667,1595
0.9236333,1554
0.9253,1589
0.9269667,1624
0.9286333,1671
0.9303,1837
0.9319667,1844
0.9336333,1765
0.9353,1691
0.9369667,1769
0.9386333,1606
0.9403,1700
0.9419667,1715
0.9436333,1761
0.9453,1734
0.9469666,1707
0.9486333,1777
0.9503,2194
0.9519666,2604
0.9536333,3113
0.9553,3410
0.9569666,3656
0.9586333,4263
0.9603,5408
0.9619667,6500
0.9636334,7728
0.9653,9076
0.9669667,11488
0.9686334,13008
0.9703,15772
0.9719667,17592
0.9736333,19844
0.9753,22536
0.9769667,25748
0.9786333,27612
0.9803,30512
0.9819667,33904
0.9836333,34608
0.9853,35056
0.9869667,37200
0.9886333,38688
0.9903,38176
0.9919667,37760
0.9936333,37360
0.9953,38048
0.9969667,37440
0.9986333,36832
1.0003,35520
1.001967,35744
1.003633,35280
1.0053,33520
1.006967,33792
1.008633,32816
1.0103,33408
1.011967,34016
1.013633,33056
1.0153,33984
1.016967,34256
1.018633,33280
1.0203,34096
1.021967,34032
1.023633,33600
1.0253,33344
1.026967,32608
1.028633,31108
1.0303,30904
1.031967,29016
1.033633,26872
1.0353,27124
1.036967,23796
1.038633,23544
1.0403,21432
1.041967,20732
1.043633,18356
1.0453,16940
1.046967,16420
1.048633,16124
1.0503,15020
1.051967,15488
1.053633,15060
1.0553,14848
1.056967,14444
1.058633,14596
1.0603,14596
1.061967,15340
1.063633,16588
1.0653,16772
1.066967,17816
1.068633,17156
1.0703,18928
1.071967,19796
1.073633,19340
1.0753,18756
1.076967,20680
1.078633,20588
1.0803,19924
1.081967,19216
1.083633,19868
1.0853,19764
1.086967,19584
1.088633,19620
1.0903,19660
1.091967,19168
1.093633,19072
1.0953,17668
1.096967,18228
1.098633,17488
1.1003,17616
1.101967,17640
1.103633,17688
1.1053,16828
1.106967,16872
1.108633,17860
1.1103,17160
1.111967,16288
1.113633,17084
1.1153,16076
1.116967,15900
1.118633,16244
1.1203,15440
1.121967,14240
1.123633,13544
1.1253,13272
1.126967,12280
1.128633,12004
1.1303,11460
1.131967,10452
1.133633,9760
1.1353,8904
1.136967,8436
1.138633,8228
1.1403,7446
1.141967,7671
1.143633,6637
1.1453,6388
1.146967,6380
1.148633,5965
1.1503,4888
1.151967,4557
1.153633,4479
1.1553,4251
1.156967,4140
1.158633,3813
1.1603,2998
1.161967,3277
1.163633,3570
1.1653,3189
1.166967,2633
1.168633,3257
1.1703,2792
1.171967,2704
1.173633,2502
1.1753,2629
1.176967,2229
1.178633,2317
1.1803,2234
1.181967,2461
1.183633,2036
1.1853,2462
1.186967,2413
1.188633,2227
1.1903,2390
1.191967,2549
1.193633,2580
1.1953,2458
1.196967,2856
1.198633,2888
