"SampleName","A2Rd2_02-23"
"Target Mass 1",
"Column Name","IA-3 (3um, 4.6X100)"
"Channel","QDa 1: SIR Ch1"
0.00195,368
0.003616667,551
0.005283333,499
0.00695,463
0.008616666,482
0.01028333,501
0.01195,456
0.01361667,412
0.01528333,538
0.01695,480
0.01861667,509
0.02028333,511
0.02195,515
0.02361667,524
0.02528333,533
0.02695,545
0.02861667,606
0.03028333,347
0.03195,533
0.03361667,368
0.03528333,471
0.03695,467
0.03861667,447
0.04028333,540
0.04195,541
0.04361667,494
0.04528333,455
0.04695,443
0.04861667,417
0.05028334,422
0.05195,469
0.05361667,517
0.05528333,566
0.05695,374
0.05861667,375
0.06028333,539
0.06195,479
0.06361666,565
0.06528334,447
0.06695,436
0.06861667,424
0.07028333,405
0.07195,387
0.07361667,444
0.07528333,414
0.07695,384
0.07861666,447
0.08028334,538
0.08195,502
0.08361667,465
0.08528333,463
0.08695,365
0.08861667,557
0.09028333,547
0.09195,407
0.09361666,349
0.09528334,394
0.09695,540
0.09861667,561
0.1002833,488
0.10195,600
0.1036167,437
0.1052833,363
0.10695,469
0.1086167,435
0.1102833,401
0.11195,326
0.1136167,395
0.1152833,464
0.11695,301
0.1186167,487
0.1202833,454
0.12195,508
0.1236167,534
0.1252833,520
0.12695,526
0.1286167,531
0.1302833,526
0.13195,571
0.1336167,590
0.1352833,473
0.13695,462
0.1386167,546
0.1402833,579
0.14195,365
0.1436167,649
0.1452833,667
0.14695,520
0.1486167,474
0.1502833,424
0.15195,453
0.1536167,415
0.1552833,430
0.15695,468
0.1586167,454
0.1602833,439
0.16195,430
0.1636167,420
0.1652833,390
0.16695,416
0.1686167,441
0.1702833,404
0.17195,367
0.1736167,411
0.1752833,502
0.17695,480
0.1786167,460
0.1802833,368
0.18195,471
0.1836167,497
0.1852833,422
0.18695,347
0.1886167,501
0.1902833,431
0.19195,362
0.1936167,386
0.1952833,486
0.19695,465
0.1986167,477
0.2002833,411
0.20195,346
0.2036167,389
0.2052833,463
0.20695,511
0.2086167,542
0.2102833,497
0.21195,452
0.2136167,473
0.2152833,384
0.21695,384
0.2186167,384
0.2202833,419
0.22195,476
0.2236167,442
0.2252833,407
0.22695,460
0.2286167,512
0.2302833,303
0.23195,575
0.2336167,429
0.2352833,390
0.23695,408
0.2386167,384
0.2402833,556
0.24195,621
0.2436167,540
0.2452833,362
0.24695,447
0.2486167,470
0.2502833,421
0.25195,445
0.2536167,469
0.2552833,418
0.25695,488
0.2586167,445
0.2602833,421
0.26195,419
0.2636167,417
0.2652833,398
0.26695,379
0.2686167,480
0.2702833,579
0.27195,553
0.2736167,434
0.2752833,493
0.27695,451
0.2786167,388
0.2802833,535
0.28195,345
0.2836167,498
0.2852833,510
0.28695,275
0.2886167,346
0.2902833,431
0.29195,474
0.2936167,489
0.2952833,529
0.29695,542
0.2986333,488
0.3002833,501
0.30195,533
0.3036167,565
0.3052833,621
0.30695,351
0.3086167,616
0.3102833,522
0.31195,456
0.3136167,619
0.3153,552
0.31695,476
0.3186167,480
0.3202833,467
0.32195,459
0.3236167,481
0.3252833,465
0.3269667,450
0.3286167,556
0.3302833,564
0.33195,399
0.3336333,530
0.3352833,632
0.33695,501
0.3386167,377
0.3402833,574
0.34195,450
0.3436167,560
0.3452833,488
0.34695,523
0.3486167,471
0.3503,500
0.35195,529
0.3536167,463
0.3553,504
0.35695,505
0.3586167,502
0.3602833,500
0.36195,604
0.3636167,796
0.3652833,1083
0.36695,1625
0.3686333,2483
0.3702833,3236
0.3719667,3758
0.3736167,4185
0.3753,4896
0.3769667,4765
0.3786167,5077
0.3802833,5123
0.38195,5169
0.3836167,5303
0.3853,4774
0.38695,4519
0.3886333,3501
0.3903,2935
0.39195,2583
0.3936167,1741
0.3952833,1614
0.39695,1225
0.3986333,1413
0.4002833,889
0.40195,969
0.4036333,865
0.4053,910
0.4069667,953
0.4086333,952
0.4102833,951
0.4119667,969
0.4136333,963
0.4153,956
0.4169667,1058
0.4186333,1153
0.4203,1111
0.4219667,1044
0.4236333,970
0.4253,1133
0.4269667,1115
0.4286333,1224
0.4302833,1210
0.4319667,1301
0.4336167,1611
0.4353,2361
0.4369667,4113
0.4386333,6581
0.4403,10244
0.4419667,17012
0.4436333,25384
0.4453,38016
0.4469667,53984
0.4486333,71504
0.4503,92976
0.4519667,110736
0.4536333,131456
0.4553,148672
0.4569667,168704
0.4586333,182336
0.4603,194496
0.4619667,206528
0.4636333,221504
0.4653,229632
0.4669667,241664
0.4686333,253376
0.4703,264768
0.4719667,273088
0.4736333,288832
0.4753,296320
0.4769667,307264
0.4786333,302912
0.4803,290048
0.4819667,280896
0.4836333,259840
0.4853,239104
0.4869667,214912
0.4886333,185984
0.4903,161536
0.4919667,132800
0.4936333,110256
0.4953,93616
0.4969667,76288
0.4986333,61328
0.5003,48528
0.5019667,38480
0.5036333,31156
0.5053,26220
0.5069667,20152
0.5086333,16372
0.5103,12644
0.5119666,10936
0.5136333,8888
0.5153,7953
0.5169666,7555
0.5186333,6436
0.5203,6335
0.5219667,5819
0.5236334,5399
0.5253,5077
0.5269667,4592
0.5286334,3949
0.5303,4143
0.5319667,3819
0.5336334,3878
0.5353,3388
0.5369667,3473
0.5386333,3230
0.5403,2993
0.5419667,3266
0.5436333,2679
0.5453,2961
0.5469667,2575
0.5486333,2392
0.5503,2755
0.5519667,2375
0.5536333,2397
0.5553,2108
0.5569667,2213
0.5586333,1999
0.5603,1591
0.5619667,1975
0.5636333,2018
0.5653,1864
0.5669667,1720
0.5686333,1655
0.5703,1874
0.5719666,1805
0.5736333,1562
0.5753,1862
0.5769666,1777
0.5786333,1675
0.5803,1545
0.5819666,1511
0.5836333,1471
0.5853,1364
0.5869667,1634
0.5886334,1682
0.5903,1344
0.5919667,1648
0.5936334,1256
0.5953,1214
0.5969667,1583
0.5986333,1453
0.6003,1343
0.6019667,1476
0.6036333,1339
0.6053,1477
0.6069667,1395
0.6086333,1331
0.6103,1255
0.6119667,1183
0.6136333,1199
0.6153,876
0.6169667,1190
0.6186333,1174
0.6203,1235
0.6219667,1091
0.6236333,1253
0.6253,1135
0.6269667,1204
0.6286333,936
0.6303,1306
0.6319667,991
0.6336333,917
0.6353,1204
0.6369666,1038
0.6386333,1053
0.6403,961
0.6419666,910
0.6436333,1049
0.6453,756
0.6469667,1019
0.6486334,814
0.6503,1232
0.6519667,1133
0.6536334,853
0.6553,1008
0.6569667,980
0.6586334,935
0.6603,1017
0.6619667,727
0.6636333,763
0.6653,960
0.6669667,900
0.6686333,1069
0.6703,965
0.6719667,951
0.6736333,1059
0.6753,766
0.6769667,975
0.6786333,970
0.6803,890
0.6819667,797
0.6836333,850
0.6853,882
0.6869667,812
0.6886333,771
0.6903,725
0.6919667,739
0.6936333,739
0.6953,740
0.6969666,784
0.6986333,829
0.7003,805
0.7019666,782
0.7036333,739
0.7053,744
0.7069666,749
0.7086333,712
0.7103,824
0.7119667,822
0.7136334,973
0.7153,908
0.7169667,797
0.7186334,829
0.7203,807
0.7219667,785
0.7236333,800
0.7253,698
0.7269667,827
0.7286333,836
0.7303,805
0.7319667,859
0.7336333,822
0.7353,784
0.7369667,889
0.7386333,906
0.7403,647
0.7419667,834
0.7436333,811
0.7453,918
0.7469667,867
0.7486333,817
0.7503,850
0.7519667,814
0.7536333,833
0.7553,852
0.7569667,800
0.7586333,747
0.7603,728
0.7619666,709
0.7636333,691
0.7653,884
0.7669666,913
0.7686333,830
0.7703,631
0.7719667,945
0.7736334,853
0.7753,725
0.7769667,895
0.7786334,769
0.7803,643
0.7819667,706
0.7836334,674
0.7853,851
0.7869667,902
0.7886333,679
0.7903,743
0.7919667,903
0.7936333,822
0.7953,762
0.7969667,844
0.7986333,919
0.8003,947
0.8019667,697
0.8036333,848
0.8053,915
0.8069667,947
0.8086333,922
0.8103,878
0.8119667,843
0.8136333,885
0.8153,891
0.8169667,842
0.8186333,611
0.8203,791
0.8219666,978
0.8236333,835
0.8253,753
0.8269666,856
0.8286333,884
0.8303,787
0.8319666,861
0.8336333,935
0.8353,946
0.8369667,895
0.8386334,911
0.8403,983
0.8419667,964
0.8436334,945
0.8453,765
0.8469667,850
0.8486333,899
0.8503,891
0.8519667,825
0.8536333,760
0.8553,829
0.8569667,1051
0.8586333,1038
0.8603,971
0.8619667,678
0.8636333,838
0.8653,743
0.8669667,786
0.8686333,794
0.8703,801
0.8719667,721
0.8736333,868
0.8753,907
0.8769667,997
0.8786333,1220
0.8803,1362
0.8819667,1921
0.8836333,2248
0.8853,2666
0.8869666,2731
0.8886333,3103
0.8903,2955
0.8919666,3204
0.8936333,3390
0.8953,3346
0.8969667,3235
0.8986334,3450
0.9003,3365
0.9019667,3513
0.9036334,3355
0.9053,3329
0.9069667,3302
0.9086334,3352
0.9103,3402
0.9119667,2966
0.9136333,3484
0.9153,3350
0.9169667,3215
0.9186333,3291
0.9203,3366
0.9219667,3408
0.9236333,3180
0.9253,3300
0.9269667,3270
0.9286333,3265
0.9303,3276
0.9319667,2958
0.9336333,2805
0.9353,2560
0.9369667,2753
0.9386333,2945
0.9403,2527
0.9419667,3005
0.9436333,2810
0.9453,2590
0.9469666,2817
0.9486333,2411
0.9503,2657
0.9519666,2291
0.9536333,2304
0.9553,2216
0.9569666,2205
0.9586333,1697
0.9603,2052
0.9619667,1745
0.9636334,1813
0.9653,1797
0.9669667,1585
0.9686334,1424
0.9703,1427
0.9719667,1230
0.9736333,1339
0.9753,1015
0.9769667,1048
0.9786333,1065
0.9803,1160
0.9819667,903
0.9836333,883
0.9853,815
0.9869667,634
0.9886333,876
0.9903,698
0.9919667,770
0.9936333,746
0.9953,725
0.9969667,513
0.9986333,754
1.0003,623
1.001967,763
1.003633,660
1.0053,489
1.006967,658
1.008633,530
1.0103,623
1.011967,634
1.013633,572
1.0153,591
1.016967,610
1.018633,583
1.0203,555
1.021967,477
1.023633,607
1.0253,512
1.026967,550
1.028633,589
1.0303,621
1.031967,669
1.033633,653
1.0353,521
1.036967,485
1.038633,666
1.0403,682
1.041967,521
1.043633,526
1.0453,567
1.046967,488
1.048633,588
1.0503,560
1.051967,532
1.053633,576
1.0553,705
1.056967,710
1.058633,651
1.0603,574
1.061967,552
1.063633,743
1.0653,698
1.066967,701
1.068633,650
1.0703,642
1.071967,635
1.073633,610
1.0753,586
1.076967,562
1.078633,625
1.0803,532
1.081967,630
1.083633,685
1.0853,667
1.086967,709
1.088633,693
1.0903,676
1.091967,689
1.093633,742
1.0953,794
1.096967,804
1.098633,700
1.1003,741
1.101967,573
1.103633,704
1.1053,724
1.106967,613
1.108633,671
1.1103,592
1.111967,649
1.113633,671
1.1153,741
1.116967,743
1.118633,834
1.1203,596
1.121967,656
1.123633,739
1.1253,766
1.126967,573
1.128633,721
1.1303,619
1.131967,667
1.133633,602
1.1353,574
1.136967,720
1.138633,722
1.1403,506
1.141967,610
1.143633,826
1.1453,705
1.146967,657
1.148633,849
1.1503,694
1.151967,797
1.153633,657
1.1553,671
1.156967,686
1.158633,713
1.1603,741
1.161967,720
1.163633,769
1.1653,817
1.166967,632
1.168633,771
1.1703,753
1.171967,842
1.173633,773
1.1753,809
1.176967,815
1.178633,784
1.1803,782
1.181967,780
1.183633,831
1.1853,842
1.186967,791
1.188633,740
1.1903,911
1.191967,852
1.193633,793
1.1953,810
1.196967,826
1.198633,842
