"SampleName","A2Rd2_02-71"
"Target Mass 1",
"Column Name","IA-3 (3um, 4.6X100)"
"Channel","QDa 1: SIR Ch1"
0.00195,330
0.003616667,443
0.005283333,490
0.00695,551
0.008616666,442
0.01028333,470
0.01195,497
0.01361667,502
0.01528333,508
0.01695,597
0.01861667,651
0.02028333,625
0.02195,521
0.02361667,702
0.02528333,631
0.02695,627
0.02861667,665
0.03028333,578
0.03195,490
0.03361667,576
0.03528333,554
0.03695,459
0.03861667,562
0.04028333,557
0.04195,552
0.04361667,589
0.04528333,515
0.04695,453
0.04861667,518
0.05028334,459
0.05195,471
0.05361667,513
0.05528333,515
0.05695,517
0.05861667,573
0.06028333,616
0.06195,610
0.06361666,587
0.06528334,593
0.06695,573
0.06861667,512
0.07028333,507
0.07195,477
0.07361667,510
0.07528333,533
0.07695,555
0.07861666,586
0.08028334,602
0.08195,592
0.08361667,505
0.08528333,400
0.08695,516
0.08861667,463
0.09028333,528
0.09195,553
0.09361666,505
0.09528334,456
0.09695,600
0.09861667,618
0.1002833,637
0.10195,596
0.1036167,555
0.1052833,447
0.10695,644
0.1086167,491
0.1102833,554
0.11195,454
0.1136167,524
0.1152833,613
0.11695,642
0.1186167,448
0.1202833,471
0.12195,400
0.1236167,549
0.1252833,512
0.12695,476
0.1286167,419
0.1302833,464
0.13195,483
0.1336167,521
0.1352833,627
0.13695,587
0.1386167,476
0.1402833,559
0.14195,535
0.1436167,500
0.1452833,465
0.14695,540
0.1486167,377
0.1502833,555
0.15195,609
0.1536167,590
0.1552833,468
0.15695,483
0.1586167,620
0.1602833,614
0.16195,536
0.1636167,491
0.1652833,587
0.16695,461
0.1686167,396
0.1702833,502
0.17195,484
0.1736167,447
0.1752833,527
0.17695,579
0.1786167,517
0.1802833,454
0.18195,539
0.1836167,499
0.1852833,459
0.18695,415
0.1886167,636
0.1902833,596
0.19195,751
0.1936167,438
0.1952833,475
0.19695,587
0.1986167,580
0.2002833,471
0.20195,443
0.2036167,468
0.2052833,497
0.20695,574
0.2086167,587
0.2102833,534
0.21195,563
0.2136167,580
0.2152833,597
0.21695,506
0.2186167,525
0.2202833,668
0.22195,421
0.2236167,580
0.2252833,484
0.22695,604
0.2286167,511
0.2302833,485
0.23195,580
0.2336167,583
0.2352833,560
0.23695,698
0.2386167,693
0.2402833,649
0.24195,442
0.2436167,452
0.2452833,425
0.24695,578
0.2486167,634
0.2502833,512
0.25195,557
0.2536167,507
0.2552833,479
0.25695,450
0.2586167,482
0.2602833,515
0.26195,565
0.2636167,636
0.2652833,702
0.26695,687
0.2686167,529
0.2702833,504
0.27195,591
0.2736167,547
0.2752833,712
0.27695,699
0.2786167,537
0.2803,610
0.28195,459
0.2836167,583
0.2852833,530
0.28695,503
0.2886167,506
0.2902833,486
0.29195,466
0.2936167,460
0.2952833,455
0.29695,501
0.2986333,546
0.3002833,580
0.30195,573
0.3036167,566
0.3052833,626
0.3069667,366
0.3086167,538
0.3102833,581
0.31195,561
0.3136167,544
0.3153,552
0.3169667,559
0.3186167,565
0.3202833,571
0.32195,479
0.3236167,496
0.3252833,514
0.32695,499
0.3286167,485
0.3302833,578
0.33195,622
0.3336333,616
0.3352833,612
0.33695,551
0.3386167,584
0.3402833,496
0.34195,518
0.3436167,541
0.3452833,554
0.34695,521
0.3486333,551
0.3503,582
0.35195,482
0.3536167,503
0.3552833,535
0.3569667,539
0.3586167,541
0.3602833,773
0.3619667,759
0.3636167,1018
0.3653,1196
0.3669667,1672
0.3686333,2638
0.3702833,3373
0.3719667,3363
0.3736333,3837
0.3752833,3597
0.37695,3874
0.3786167,3969
0.3803,4063
0.3819667,5026
0.3836167,4878
0.3853,4358
0.38695,3318
0.3886333,3333
0.3903,2933
0.3919667,2200
0.3936167,1907
0.3953,1706
0.39695,1249
0.3986333,1677
0.4002833,1301
0.40195,909
0.4036333,1112
0.4053,1088
0.4069667,1005
0.4086333,740
0.4102833,1024
0.41195,1207
0.4136333,991
0.4153,1031
0.4169667,957
0.4186333,939
0.4203,987
0.4219667,1024
0.4236333,894
0.4253,937
0.4269667,980
0.4286333,1071
0.4303,1165
0.4319667,1490
0.4336333,2077
0.4353,2704
0.4369667,4913
0.4386333,8540
0.4403,13884
0.4419667,21704
0.4436333,34336
0.4453,49152
0.4469667,66400
0.4486333,87040
0.4503,106224
0.4519667,129440
0.4536333,148288
0.4553,166336
0.4569667,182848
0.4586333,195584
0.4603,205184
0.4619667,212096
0.4636333,212672
0.4653,218560
0.4669667,218944
0.4686333,222400
0.4703,227648
0.4719667,236480
0.4736333,237568
0.4753,247808
0.4769667,255744
0.4786333,258368
0.4803,262592
0.4819667,255040
0.4836333,249856
0.4853,233344
0.4869667,216256
0.4886333,195904
0.4903,178304
0.4919667,156480
0.4936333,133312
0.4953,112400
0.4969667,96000
0.4986333,83360
0.5003,67184
0.5019667,54368
0.5036333,43792
0.5053,35120
0.5069667,29596
0.5086333,23004
0.5103,19792
0.5119666,16224
0.5136333,13952
0.5153,11592
0.5169666,9636
0.5186333,8976
0.5203,7319
0.5219667,7061
0.5236334,6414
0.5253,5684
0.5269667,5659
0.5286334,4757
0.5303,4534
0.5319667,3821
0.5336334,4173
0.5353,3628
0.5369667,3477
0.5386333,3641
0.5403,3125
0.5419667,3242
0.5436333,3096
0.5453,2486
0.5469667,2606
0.5486333,2746
0.5503,2596
0.5519667,2580
0.5536333,2550
0.5553,2180
0.5569667,2324
0.5586333,1941
0.5603,2057
0.5619667,1812
0.5636333,1980
0.5653,2061
0.5669667,2199
0.5686333,1726
0.5703,1992
0.5719666,1598
0.5736333,1754
0.5753,1743
0.5769666,1731
0.5786333,1759
0.5803,1576
0.5819666,1609
0.5836333,1692
0.5853,1459
0.5869667,1605
0.5886334,1428
0.5903,1474
0.5919667,1519
0.5936334,1455
0.5953,1391
0.5969667,1412
0.5986333,1348
0.6003,1395
0.6019667,1441
0.6036333,1406
0.6053,1572
0.6069667,1642
0.6086333,1536
0.6103,1225
0.6119667,1317
0.6136333,1309
0.6153,1128
0.6169667,1194
0.6186333,1147
0.6203,1516
0.6219667,1483
0.6236333,1351
0.6253,1406
0.6269667,1228
0.6286333,1400
0.6303,1115
0.6319667,1137
0.6336333,1453
0.6353,1205
0.6369666,1089
0.6386333,1003
0.6403,1016
0.6419666,923
0.6436333,1015
0.6453,1004
0.6469667,1033
0.6486334,993
0.6503,856
0.6519667,1020
0.6536334,926
0.6553,1004
0.6569667,1077
0.6586334,891
0.6603,929
0.6619667,1061
0.6636333,1025
0.6653,989
0.6669667,918
0.6686333,1011
0.6703,1057
0.6719667,873
0.6736333,1091
0.6753,792
0.6769667,1073
0.6786333,973
0.6803,825
0.6819667,1012
0.6836333,941
0.6853,1070
0.6869667,1052
0.6886333,1034
0.6903,891
0.6919667,1028
0.6936333,900
0.6953,769
0.6969666,875
0.6986333,749
0.7003,792
0.7019666,939
0.7036333,1049
0.7053,1054
0.7069666,948
0.7086333,847
0.7103,849
0.7119667,811
0.7136334,841
0.7153,866
0.7169667,890
0.7186334,776
0.7203,955
0.7219667,997
0.7236333,821
0.7253,722
0.7269667,855
0.7286333,919
0.7303,872
0.7319667,844
0.7336333,905
0.7353,732
0.7369667,752
0.7386333,773
0.7403,891
0.7419667,875
0.7436333,878
0.7453,880
0.7469667,945
0.7486333,783
0.7503,777
0.7519667,1045
0.7536333,1056
0.7553,812
0.7569667,919
0.7586333,802
0.7603,924
0.7619666,897
0.7636333,869
0.7653,697
0.7669666,749
0.7686333,800
0.7703,819
0.7719667,838
0.7736334,758
0.7753,808
0.7769667,857
0.7786334,825
0.7803,817
0.7819667,808
0.7836334,855
0.7853,902
0.7869667,944
0.7886333,980
0.7903,676
0.7919667,877
0.7936333,786
0.7953,931
0.7969667,878
0.7986333,825
0.8003,890
0.8019667,729
0.8036333,935
0.8053,1026
0.8069667,898
0.8086333,881
0.8103,662
0.8119667,790
0.8136333,848
0.8153,905
0.8169667,832
0.8186333,797
0.8203,877
0.8219666,884
0.8236333,891
0.8253,1053
0.8269666,1024
0.8286333,852
0.8303,1009
0.8319666,856
0.8336333,1056
0.8353,857
0.8369667,843
0.8386334,940
0.8403,977
0.8419667,812
0.8436334,904
0.8453,996
0.8469667,972
0.8486333,1027
0.8503,1010
0.8519667,975
0.8536333,940
0.8553,874
0.8569667,854
0.8586333,805
0.8603,975
0.8619667,950
0.8636333,862
0.8653,762
0.8669667,761
0.8686333,878
0.8703,760
0.8719667,642
0.8736333,930
0.8753,1207
0.8769667,1390
0.8786333,1931
0.8803,2147
0.8819667,2902
0.8836333,3008
0.8853,3490
0.8869666,3365
0.8886333,3449
0.8903,3502
0.8919666,3615
0.8936333,3513
0.8953,3412
0.8969667,3761
0.8986334,3867
0.9003,4017
0.9019667,3561
0.9036334,3550
0.9053,4002
0.9069667,3603
0.9086334,3752
0.9103,3603
0.9119667,3600
0.9136333,3596
0.9153,3571
0.9169667,3545
0.9186333,3645
0.9203,3645
0.9219667,3646
0.9236333,3570
0.9253,3494
0.9269667,3699
0.9286333,3394
0.9303,3394
0.9319667,3025
0.9336333,2897
0.9353,3096
0.9369667,3097
0.9386333,3135
0.9403,3173
0.9419667,2716
0.9436333,2933
0.9453,2837
0.9469666,2694
0.9486333,2850
0.9503,2282
0.9519666,2642
0.9536333,2174
0.9553,2390
0.9569666,2010
0.9586333,1951
0.9603,2315
0.9619667,1801
0.9636334,1963
0.9653,1924
0.9669667,1858
0.9686334,1567
0.9703,1577
0.9719667,1391
0.9736333,1317
0.9753,1276
0.9769667,1066
0.9786333,1189
0.9803,1216
0.9819667,1071
0.9836333,1241
0.9853,665
0.9869667,698
0.9886333,902
0.9903,664
0.9919667,675
0.9936333,786
0.9953,612
0.9969667,568
0.9986333,779
1.0003,703
1.001967,627
1.003633,679
1.0053,591
1.006967,604
1.008633,731
1.0103,738
1.011967,610
1.013633,706
1.0153,785
1.016967,691
1.018633,673
1.0203,639
1.021967,711
1.023633,748
1.0253,502
1.026967,649
1.028633,778
1.0303,691
1.031967,646
1.033633,546
1.0353,679
1.036967,577
1.038633,653
1.0403,663
1.041967,671
1.043633,679
1.0453,609
1.046967,648
1.048633,687
1.0503,629
1.051967,710
1.053633,695
1.0553,709
1.056967,705
1.058633,679
1.0603,636
1.061967,593
1.063633,734
1.0653,677
1.066967,657
1.068633,499
1.0703,736
1.071967,577
1.073633,723
1.0753,604
1.076967,589
1.078633,646
1.0803,651
1.081967,656
1.083633,673
1.0853,634
1.086967,595
1.088633,744
1.0903,711
1.091967,620
1.093633,721
1.0953,709
1.096967,658
1.098633,606
1.1003,708
1.101967,657
1.103633,631
1.1053,604
1.106967,674
1.108633,721
1.1103,769
1.111967,684
1.113633,673
1.1153,771
1.116967,686
1.118633,695
1.1203,588
1.121967,545
1.123633,651
1.1253,630
1.126967,649
1.128633,668
1.1303,668
1.131967,678
1.133633,759
1.1353,787
1.136967,662
1.138633,723
1.1403,720
1.141967,748
1.143633,815
1.1453,767
1.146967,719
1.148633,690
1.1503,710
1.151967,730
1.153633,784
1.1553,798
1.156967,810
1.158633,742
1.1603,675
1.161967,682
1.163633,689
1.1653,709
1.166967,709
1.168633,687
1.1703,666
1.171967,804
1.173633,842
1.1753,777
1.176967,742
1.178633,638
1.1803,839
1.181967,834
1.183633,916
1.1853,853
1.186967,784
1.188633,842
1.1903,796
1.191967,750
1.193633,755
1.1953,760
1.196967,660
1.198633,725
