"SampleName","A2Rd2_02-10"
"Target Mass 1",
"Column Name","IA-3 (3um, 4.6X100)"
"Channel","QDa 1: SIR Ch2"
0.00195,592
0.003616667,642
0.005283333,666
0.00695,685
0.008616666,731
0.01028333,777
0.01195,812
0.01361667,783
0.01528333,753
0.01695,833
0.01861667,913
0.02028333,886
0.02195,859
0.02361667,706
0.02528333,863
0.02695,772
0.02861667,763
0.03028333,755
0.03195,746
0.03361667,733
0.03528333,720
0.03695,849
0.03861667,1099
0.04028333,1048
0.04195,945
0.04361667,928
0.04528333,911
0.04695,1062
0.04861667,1100
0.05028334,856
0.05195,905
0.05361667,885
0.05528333,808
0.05695,933
0.05861667,884
0.06028333,927
0.06195,901
0.06361666,873
0.06528334,845
0.06695,888
0.06861667,898
0.07028333,950
0.07195,984
0.07361667,1010
0.07528333,797
0.07695,939
0.07861666,818
0.08028334,976
0.08195,932
0.08361667,918
0.08528333,884
0.08695,942
0.08861667,897
0.09028333,833
0.09195,714
0.09361666,737
0.09528334,824
0.09695,840
0.09861667,855
0.1002833,840
0.10195,825
0.1036167,841
0.1052833,809
0.10695,777
0.1086167,865
0.1102833,750
0.11195,803
0.1136167,855
0.1152833,755
0.11695,886
0.1186167,970
0.1202833,1003
0.12195,865
0.1236167,884
0.1252833,838
0.12695,885
0.1286167,842
0.1302833,777
0.13195,782
0.1336167,826
0.1352833,870
0.13695,916
0.1386167,878
0.1402833,840
0.14195,716
0.1436167,961
0.1452833,831
0.14695,831
0.1486167,773
0.1502833,823
0.15195,872
0.1536167,854
0.1552833,768
0.15695,853
0.1586167,820
0.1602833,795
0.16195,769
0.1636167,824
0.1652833,879
0.16695,947
0.1686167,675
0.1702833,897
0.17195,793
0.1736167,780
0.1752833,784
0.17695,751
0.1786167,718
0.1802833,743
0.18195,768
0.1836167,742
0.1852833,800
0.18695,858
0.1886167,835
0.1902833,811
0.19195,900
0.1936167,901
0.1952833,755
0.19695,845
0.1986167,913
0.2002833,1001
0.20195,999
0.2036167,762
0.2052833,800
0.20695,806
0.2086167,1040
0.2102833,986
0.21195,1045
0.2136167,970
0.2152833,1029
0.21695,1048
0.2186167,951
0.2202833,1030
0.22195,1035
0.2236167,891
0.2252833,1052
0.22695,880
0.2286167,986
0.2302833,1093
0.23195,1299
0.2336167,1119
0.2352833,939
0.23695,1037
0.2386167,1072
0.2402833,1116
0.24195,1189
0.2436167,891
0.2452833,1345
0.24695,1105
0.2486167,1242
0.2502833,1032
0.25195,1251
0.2536167,1019
0.2552833,1192
0.25695,1321
0.2586167,1249
0.2602833,1128
0.26195,1389
0.2636167,1172
0.2652833,991
0.26695,955
0.2686167,1078
0.2702833,1076
0.27195,1074
0.2736167,909
0.2752833,1076
0.27695,1038
0.2786167,1055
0.2803,845
0.2819667,981
0.2836167,1065
0.2852833,900
0.28695,964
0.2886167,1004
0.2902833,953
0.29195,1073
0.2936333,1055
0.2952833,1001
0.29695,1116
0.2986333,900
0.3002833,1095
0.30195,1136
0.3036167,1071
0.3052833,1112
0.30695,1003
0.3086167,1035
0.3102833,1111
0.31195,1187
0.3136167,1121
0.3153,1095
0.31695,1069
0.3186167,1385
0.3202833,1453
0.32195,1302
0.3236167,1239
0.3252833,1194
0.3269667,1246
0.3286167,1232
0.3302833,1255
0.3319667,1029
0.3336333,1187
0.3353,1257
0.33695,1252
0.3386167,1151
0.3402833,1328
0.34195,1040
0.3436333,1469
0.3452833,1331
0.34695,1416
0.3486167,1202
0.3503,1315
0.3519667,1245
0.3536167,1243
0.3552833,1244
0.35695,1245
0.3586167,1346
0.3603,1105
0.36195,1320
0.3636333,1758
0.3652833,2430
0.36695,3347
0.3686333,3885
0.3703,3857
0.3719667,3931
0.3736333,3901
0.3752833,3871
0.3769667,3863
0.3786167,3854
0.3803,3757
0.3819667,3478
0.3836333,2610
0.3853,1955
0.3869667,1874
0.3886333,1323
0.3903,1119
0.3919667,927
0.3936333,686
0.3952833,703
0.3969667,480
0.3986167,415
0.4003,643
0.4019667,452
0.4036333,437
0.4053,442
0.4069667,653
0.4086333,636
0.4103,578
0.4119667,686
0.4136333,674
0.4152833,661
0.4169667,688
0.4186333,724
0.4203,733
0.4219667,743
0.4236333,753
0.4253,764
0.4269667,803
0.4286333,789
0.4303,774
0.4319667,816
0.4336333,827
0.4353,838
0.4369667,976
0.4386333,1009
0.4403,1290
0.4419667,1281
0.4436333,1153
0.4453,1192
0.4469667,1070
0.4486333,1115
0.4503,1139
0.4519667,1164
0.4536333,1209
0.4553,1253
0.4569667,1214
0.4586333,1419
0.4603,1563
0.4619667,1503
0.4636333,1308
0.4653,1402
0.4669667,1491
0.4686333,1538
0.4703,1510
0.4719667,1499
0.4736333,1243
0.4753,1715
0.4769667,1500
0.4786333,1363
0.4803,1506
0.4819667,1385
0.4836333,1164
0.4853,1414
0.4869667,1357
0.4886333,1277
0.4903,1358
0.4919667,1313
0.4936333,1031
0.4953,1061
0.4969667,1315
0.4986333,1112
0.5003,1132
0.5019667,1063
0.5036333,1060
0.5053,1046
0.5069667,907
0.5086333,1081
0.5103,1011
0.5119666,885
0.5136333,959
0.5153,999
0.5169666,1038
0.5186333,888
0.5203,1102
0.5219667,1108
0.5236334,952
0.5253,901
0.5269667,904
0.5286334,912
0.5303,920
0.5319667,863
0.5336334,877
0.5353,888
0.5369667,891
0.5386333,915
0.5403,939
0.5419667,841
0.5436333,933
0.5453,963
0.5469667,992
0.5486333,967
0.5503,899
0.5519667,898
0.5536333,894
0.5553,889
0.5569667,1124
0.5586333,1071
0.5603,831
0.5619667,906
0.5636333,966
0.5653,962
0.5669667,712
0.5686333,922
0.5703,952
0.5719666,973
0.5736333,970
0.5753,949
0.5769666,1017
0.5786333,756
0.5803,1059
0.5819666,1039
0.5836333,904
0.5853,809
0.5869667,1208
0.5886334,1106
0.5903,1077
0.5919667,854
0.5936334,1030
0.5953,1034
0.5969667,941
0.5986333,993
0.6003,844
0.6019667,929
0.6036333,987
0.6053,1058
0.6069667,797
0.6086333,893
0.6103,979
0.6119667,997
0.6136333,1028
0.6153,781
0.6169667,936
0.6186333,949
0.6203,986
0.6219667,1000
0.6236333,788
0.6253,955
0.6269667,1037
0.6286333,1050
0.6303,870
0.6319667,941
0.6336333,845
0.6353,828
0.6369666,907
0.6386333,987
0.6403,960
0.6419666,825
0.6436333,917
0.6453,956
0.6469667,945
0.6486334,945
0.6503,925
0.6519667,887
0.6536334,1117
0.6553,648
0.6569667,822
0.6586334,1020
0.6603,947
0.6619667,934
0.6636333,800
0.6653,839
0.6669667,901
0.6686333,896
0.6703,802
0.6719667,828
0.6736333,890
0.6753,872
0.6769667,938
0.6786333,956
0.6803,883
0.6819667,913
0.6836333,752
0.6853,830
0.6869667,907
0.6886333,831
0.6903,827
0.6919667,800
0.6936333,773
0.6953,769
0.6969666,762
0.6986333,755
0.7003,819
0.7019666,992
0.7036333,974
0.7053,708
0.7069666,829
0.7086333,615
0.7103,901
0.7119667,890
0.7136334,883
0.7153,710
0.7169667,844
0.7186334,826
0.7203,830
0.7219667,762
0.7236333,787
0.7253,838
0.7269667,812
0.7286333,786
0.7303,955
0.7319667,1001
0.7336333,913
0.7353,800
0.7369667,879
0.7386333,771
0.7403,902
0.7419667,924
0.7436333,795
0.7453,976
0.7469667,883
0.7486333,898
0.7503,857
0.7519667,641
0.7536333,1015
0.7553,764
0.7569667,1049
0.7586333,722
0.7603,853
0.7619666,925
0.7636333,754
0.7653,997
0.7669666,893
0.7686333,806
0.7703,879
0.7719667,884
0.7736334,790
0.7753,792
0.7769667,981
0.7786334,1001
0.7803,941
0.7819667,1063
0.7836334,1051
0.7853,757
0.7869667,952
0.7886333,1087
0.7903,854
0.7919667,667
0.7936333,982
0.7953,905
0.7969667,964
0.7986333,790
0.8003,1062
0.8019667,734
0.8036333,1014
0.8053,969
0.8069667,967
0.8086333,988
0.8103,906
0.8119667,824
0.8136333,911
0.8153,867
0.8169667,960
0.8186333,765
0.8203,865
0.8219666,898
0.8236333,979
0.8253,967
0.8269666,956
0.8286333,956
0.8303,956
0.8319666,929
0.8336333,787
0.8353,960
0.8369667,809
0.8386334,970
0.8403,790
0.8419667,800
0.8436334,664
0.8453,750
0.8469667,1060
0.8486333,1076
0.8503,849
0.8519667,945
0.8536333,907
0.8553,770
0.8569667,833
0.8586333,711
0.8603,832
0.8619667,822
0.8636333,909
0.8653,896
0.8669667,790
0.8686333,973
0.8703,967
0.8719667,835
0.8736333,903
0.8753,873
0.8769667,791
0.8786333,764
0.8803,1073
0.8819667,1012
0.8836333,1071
0.8853,1154
0.8869666,1238
0.8886333,1152
0.8903,1138
0.8919666,1113
0.8936333,1087
0.8953,1120
0.8969667,1153
0.8986334,1203
0.9003,1158
0.9019667,1114
0.9036334,1115
0.9053,1116
0.9069667,1138
0.9086334,1146
0.9103,1258
0.9119667,1264
0.9136333,1223
0.9153,1201
0.9169667,1179
0.9186333,1221
0.9203,1263
0.9219667,1259
0.9236333,1272
0.9253,1285
0.9269667,1266
0.9286333,1247
0.9303,1193
0.9319667,1015
0.9336333,985
0.9353,1239
0.9369667,1229
0.9386333,1233
0.9403,1198
0.9419667,1163
0.9436333,1128
0.9453,1114
0.9469666,1050
0.9486333,1147
0.9503,1073
0.9519666,1152
0.9536333,1083
0.9553,1095
0.9569666,1108
0.9586333,1082
0.9603,1200
0.9619667,883
0.9636334,946
0.9653,1186
0.9669667,997
0.9686334,1008
0.9703,834
0.9719667,1030
0.9736333,1021
0.9753,934
0.9769667,825
0.9786333,1002
0.9803,864
0.9819667,934
0.9836333,785
0.9853,922
0.9869667,907
0.9886333,892
0.9903,780
0.9919667,788
0.9936333,916
0.9953,606
0.9969667,729
0.9986333,675
1.0003,666
1.001967,767
1.003633,714
1.0053,661
1.006967,958
1.008633,909
1.0103,1066
1.011967,903
1.013633,924
1.0153,860
1.016967,776
1.018633,817
1.0203,902
1.021967,715
1.023633,880
1.0253,872
1.026967,744
1.028633,643
1.0303,848
1.031967,761
1.033633,949
1.0353,907
1.036967,923
1.038633,691
1.0403,783
1.041967,804
1.043633,949
1.0453,995
1.046967,773
1.048633,736
1.0503,907
1.051967,953
1.053633,863
1.0553,772
1.056967,903
1.058633,903
1.0603,978
1.061967,776
1.063633,971
1.0653,861
1.066967,981
1.068633,891
1.0703,866
1.071967,828
1.073633,835
1.0753,807
1.076967,780
1.078633,775
1.0803,794
1.081967,813
1.083633,835
1.0853,756
1.086967,829
1.088633,902
1.0903,935
1.091967,771
1.093633,812
1.0953,830
1.096967,660
1.098633,876
1.1003,825
1.101967,877
1.103633,847
1.1053,661
1.106967,886
1.108633,789
1.1103,662
1.111967,996
1.113633,874
1.1153,646
1.116967,876
1.118633,703
1.1203,768
1.121967,736
1.123633,777
1.1253,759
1.126967,741
1.128633,734
1.1303,764
1.131967,742
1.133633,720
1.1353,692
1.136967,766
1.138633,839
1.1403,805
1.141967,706
1.143633,729
1.1453,753
1.146967,813
1.148633,860
1.1503,802
1.151967,756
1.153633,710
1.1553,844
1.156967,817
1.158633,789
1.1603,892
1.161967,693
1.163633,983
1.1653,833
1.166967,964
1.168633,901
1.1703,929
1.171967,913
1.173633,839
1.1753,815
1.176967,903
1.178633,837
1.1803,794
1.181967,745
1.183633,844
1.1853,909
1.186967,679
1.188633,763
1.1903,871
1.191967,768
1.193633,947
1.1953,935
1.196967,769
1.198633,677
