"SampleName","A2Rd2_02-42"
"Target Mass 1",
"Column Name","IA-3 (3um, 4.6X100)"
"Channel","QDa 1: SIR Ch1"
0.00195,392
0.003616667,557
0.005283333,466
0.00695,523
0.008616666,558
0.01028333,593
0.01195,618
0.01361667,532
0.01528333,531
0.01695,516
0.01861667,500
0.02028333,485
0.02195,466
0.02361667,448
0.02528333,545
0.02695,528
0.02861667,510
0.03028333,614
0.03195,662
0.03361667,401
0.03528333,477
0.03695,545
0.03861667,588
0.04028333,379
0.04195,555
0.04361667,644
0.04528333,454
0.04695,503
0.04861667,405
0.05028334,485
0.05195,477
0.05361667,540
0.05528333,522
0.05695,504
0.05861667,395
0.06028333,414
0.06195,433
0.06361666,465
0.06528334,497
0.06695,510
0.06861667,523
0.07028333,498
0.07195,512
0.07361667,526
0.07528333,368
0.07695,585
0.07861666,528
0.08028334,547
0.08195,549
0.08361667,440
0.08528333,472
0.08695,513
0.08861667,586
0.09028333,601
0.09195,381
0.09361666,617
0.09528334,603
0.09695,558
0.09861667,520
0.1002833,559
0.10195,506
0.1036167,478
0.1052833,471
0.10695,469
0.1086167,488
0.1102833,508
0.11195,556
0.1136167,507
0.1152833,459
0.11695,622
0.1186167,561
0.1202833,406
0.12195,573
0.1236167,524
0.1252833,371
0.12695,554
0.1286167,581
0.1302833,486
0.13195,480
0.1336167,409
0.1352833,495
0.13695,430
0.1386167,536
0.1402833,488
0.14195,491
0.1436167,489
0.1452833,524
0.14695,495
0.1486167,467
0.1502833,511
0.15195,448
0.1536167,540
0.1552833,500
0.15695,460
0.1586167,406
0.1602833,568
0.16195,576
0.1636167,604
0.1652833,505
0.16695,399
0.1686167,532
0.1702833,491
0.17195,517
0.1736167,431
0.1752833,486
0.17695,605
0.1786167,570
0.1802833,496
0.18195,331
0.1836167,659
0.1852833,581
0.18695,527
0.1886167,517
0.1902833,483
0.19195,647
0.1936167,322
0.1952833,401
0.19695,404
0.1986167,435
0.2002833,464
0.20195,493
0.2036167,480
0.2052833,467
0.20695,490
0.2086167,468
0.2102833,482
0.21195,522
0.2136167,395
0.2152833,427
0.21695,503
0.2186167,438
0.2202833,373
0.22195,499
0.2236167,372
0.2252833,383
0.22695,395
0.2286167,410
0.2302833,393
0.23195,377
0.2336167,472
0.2352833,426
0.23695,380
0.2386167,433
0.2402833,485
0.24195,509
0.2436167,534
0.2452833,540
0.24695,379
0.2486167,416
0.2502833,484
0.25195,477
0.2536167,482
0.2552833,465
0.25695,470
0.2586167,483
0.2602833,495
0.26195,573
0.2636333,600
0.2652833,485
0.26695,487
0.2686167,513
0.2702833,514
0.27195,467
0.2736167,606
0.2752833,585
0.27695,422
0.2786167,513
0.2803,510
0.28195,463
0.2836167,417
0.2852833,441
0.28695,390
0.2886167,392
0.2903,449
0.29195,505
0.2936167,527
0.2952833,569
0.29695,648
0.2986333,641
0.3002833,509
0.3019667,421
0.3036167,478
0.3053,633
0.30695,572
0.3086167,591
0.3102833,581
0.31195,486
0.3136167,444
0.3153,585
0.31695,522
0.3186167,519
0.3202833,453
0.32195,534
0.3236333,606
0.3252833,619
0.32695,658
0.3286167,514
0.3302833,548
0.33195,467
0.3336333,533
0.3352833,547
0.33695,561
0.3386167,518
0.3403,475
0.34195,559
0.3436333,511
0.3453,463
0.3469667,554
0.3486333,460
0.3503,689
0.35195,642
0.3536333,634
0.3553,513
0.35695,490
0.3586167,636
0.3602833,540
0.36195,684
0.3636167,872
0.3652833,1166
0.36695,1842
0.3686333,2465
0.3702833,3108
0.3719667,3366
0.3736167,3491
0.3753,3443
0.37695,3829
0.3786333,4005
0.3802833,4795
0.3819667,5088
0.3836167,4757
0.3853,4341
0.38695,3703
0.3886333,3283
0.3903,2604
0.3919667,2665
0.3936333,1806
0.3953,1721
0.39695,1705
0.3986167,1201
0.4003,1159
0.4019667,1069
0.4036333,1083
0.4053,1098
0.4069667,1130
0.4086333,1163
0.4103,965
0.4119667,1320
0.4136333,1310
0.4153,1461
0.4169667,1471
0.4186333,1432
0.4203,1433
0.4219667,1433
0.4236333,1352
0.4253,1325
0.4269667,1274
0.4286333,1344
0.4303,1332
0.4319667,1320
0.4336333,1854
0.4353,2406
0.4369667,3616
0.4386333,5821
0.4403,9232
0.4419667,14856
0.4436333,22436
0.4453,33696
0.4469667,48464
0.4486333,63856
0.4503,79776
0.4519667,97120
0.4536333,116336
0.4553,129232
0.4569667,140352
0.4586333,151360
0.4603,158912
0.4619667,159168
0.4636333,167808
0.4653,174656
0.4669667,174656
0.4686333,182144
0.4703,190720
0.4719667,201024
0.4736333,204736
0.4753,213888
0.4769667,220864
0.4786333,218496
0.4803,208256
0.4819667,200000
0.4836333,180992
0.4853,158592
0.4869667,138816
0.4886333,115872
0.4903,100144
0.4919667,82176
0.4936333,66592
0.4953,53136
0.4969667,44320
0.4986333,34336
0.5003,28416
0.5019667,21340
0.5036333,18136
0.5053,14456
0.5069667,11404
0.5086333,9476
0.5103,8784
0.5119666,7205
0.5136333,6144
0.5153,5345
0.5169666,4569
0.5186333,4335
0.5203,4206
0.5219667,4150
0.5236334,3470
0.5253,3637
0.5269667,3058
0.5286334,2982
0.5303,2983
0.5319667,3094
0.5336334,2500
0.5353,2996
0.5369667,2601
0.5386333,2581
0.5403,2423
0.5419667,2365
0.5436333,2355
0.5453,2432
0.5469667,2113
0.5486333,1893
0.5503,1946
0.5519667,1924
0.5536333,1676
0.5553,1812
0.5569667,1681
0.5586333,1647
0.5603,1650
0.5619667,1646
0.5636333,1682
0.5653,1442
0.5669667,1364
0.5686333,1659
0.5703,1357
0.5719666,1393
0.5736333,1231
0.5753,1206
0.5769666,1541
0.5786333,1568
0.5803,1539
0.5819666,1435
0.5836333,1363
0.5853,1152
0.5869667,1139
0.5886334,1193
0.5903,1247
0.5919667,1328
0.5936334,1404
0.5953,1409
0.5969667,1160
0.5986333,1282
0.6003,1222
0.6019667,1275
0.6036333,1351
0.6053,1300
0.6069667,1249
0.6086333,1267
0.6103,1229
0.6119667,1379
0.6136333,1325
0.6153,1272
0.6169667,1305
0.6186333,1424
0.6203,1146
0.6219667,1311
0.6236333,1326
0.6253,1189
0.6269667,1164
0.6286333,1228
0.6303,996
0.6319667,1227
0.6336333,882
0.6353,1322
0.6369666,1126
0.6386333,933
0.6403,1025
0.6419666,980
0.6436333,1156
0.6453,732
0.6469667,895
0.6486334,859
0.6503,844
0.6519667,934
0.6536334,783
0.6553,885
0.6569667,788
0.6586334,879
0.6603,828
0.6619667,896
0.6636333,1009
0.6653,656
0.6669667,829
0.6686333,1017
0.6703,945
0.6719667,626
0.6736333,794
0.6753,815
0.6769667,799
0.6786333,785
0.6803,716
0.6819667,866
0.6836333,656
0.6853,882
0.6869667,785
0.6886333,941
0.6903,771
0.6919667,951
0.6936333,880
0.6953,700
0.6969666,722
0.6986333,692
0.7003,735
0.7019666,737
0.7036333,739
0.7053,778
0.7069666,857
0.7086333,823
0.7103,754
0.7119667,779
0.7136334,804
0.7153,806
0.7169667,762
0.7186334,717
0.7203,741
0.7219667,839
0.7236333,801
0.7253,764
0.7269667,764
0.7286333,664
0.7303,766
0.7319667,649
0.7336333,741
0.7353,726
0.7369667,710
0.7386333,716
0.7403,677
0.7419667,688
0.7436333,700
0.7453,769
0.7469667,762
0.7486333,811
0.7503,754
0.7519667,564
0.7536333,728
0.7553,693
0.7569667,724
0.7586333,708
0.7603,692
0.7619666,657
0.7636333,664
0.7653,670
0.7669666,656
0.7686333,690
0.7703,822
0.7719667,875
0.7736334,626
0.7753,727
0.7769667,819
0.7786334,818
0.7803,790
0.7819667,797
0.7836334,541
0.7853,862
0.7869667,847
0.7886333,597
0.7903,1004
0.7919667,582
0.7936333,764
0.7953,796
0.7969667,715
0.7986333,686
0.8003,648
0.8019667,615
0.8036333,644
0.8053,653
0.8069667,662
0.8086333,656
0.8103,650
0.8119667,627
0.8136333,667
0.8153,669
0.8169667,672
0.8186333,658
0.8203,644
0.8219666,634
0.8236333,810
0.8253,780
0.8269666,749
0.8286333,768
0.8303,700
0.8319666,631
0.8336333,667
0.8353,705
0.8369667,657
0.8386334,609
0.8403,616
0.8419667,623
0.8436334,648
0.8453,645
0.8469667,642
0.8486333,801
0.8503,876
0.8519667,766
0.8536333,788
0.8553,921
0.8569667,653
0.8586333,818
0.8603,721
0.8619667,752
0.8636333,684
0.8653,733
0.8669667,714
0.8686333,761
0.8703,648
0.8719667,546
0.8736333,715
0.8753,712
0.8769667,854
0.8786333,1000
0.8803,1197
0.8819667,1450
0.8836333,1783
0.8853,2371
0.8869666,2174
0.8886333,2789
0.8903,2903
0.8919666,2850
0.8936333,3318
0.8953,3319
0.8969667,3118
0.8986334,3387
0.9003,3567
0.9019667,3514
0.9036334,3604
0.9053,3534
0.9069667,3199
0.9086334,3377
0.9103,3385
0.9119667,3394
0.9136333,2979
0.9153,3290
0.9169667,3357
0.9186333,3339
0.9203,3257
0.9219667,3409
0.9236333,3208
0.9253,3343
0.9269667,3481
0.9286333,3278
0.9303,3278
0.9319667,3278
0.9336333,3255
0.9353,3146
0.9369667,3062
0.9386333,3015
0.9403,2639
0.9419667,2965
0.9436333,2814
0.9453,2736
0.9469666,2351
0.9486333,2305
0.9503,2371
0.9519666,2210
0.9536333,2286
0.9553,1770
0.9569666,2263
0.9586333,1952
0.9603,1789
0.9619667,1627
0.9636334,1588
0.9653,1676
0.9669667,1621
0.9686334,1273
0.9703,1514
0.9719667,1200
0.9736333,1261
0.9753,1400
0.9769667,1127
0.9786333,882
0.9803,1154
0.9819667,838
0.9836333,801
0.9853,971
0.9869667,488
0.9886333,1028
0.9903,728
0.9919667,480
0.9936333,742
0.9953,689
0.9969667,537
0.9986333,784
1.0003,610
1.001967,749
1.003633,696
1.0053,703
1.006967,639
1.008633,634
1.0103,721
1.011967,510
1.013633,696
1.0153,559
1.016967,678
1.018633,575
1.0203,605
1.021967,560
1.023633,514
1.0253,730
1.026967,668
1.028633,712
1.0303,515
1.031967,593
1.033633,740
1.0353,565
1.036967,614
1.038633,752
1.0403,681
1.041967,654
1.043633,563
1.0453,571
1.046967,578
1.048633,685
1.0503,658
1.051967,555
1.053633,588
1.0553,686
1.056967,580
1.058633,474
1.0603,653
1.061967,729
1.063633,596
1.0653,559
1.066967,694
1.068633,639
1.0703,639
1.071967,659
1.073633,592
1.0753,622
1.076967,606
1.078633,601
1.0803,595
1.081967,480
1.083633,567
1.0853,671
1.086967,745
1.088633,796
1.0903,649
1.091967,654
1.093633,642
1.0953,532
1.096967,610
1.098633,436
1.1003,678
1.101967,880
1.103633,714
1.1053,757
1.106967,785
1.108633,686
1.1103,670
1.111967,462
1.113633,526
1.1153,576
1.116967,445
1.118633,645
1.1203,749
1.121967,650
1.123633,590
1.1253,777
1.126967,534
1.128633,656
1.1303,517
1.131967,555
1.133633,546
1.1353,734
1.136967,693
1.138633,660
1.1403,692
1.141967,676
1.143633,659
1.1453,700
1.146967,717
1.148633,648
1.1503,755
1.151967,650
1.153633,614
1.1553,748
1.156967,612
1.158633,759
1.1603,595
1.161967,772
1.163633,533
1.1653,802
1.166967,592
1.168633,652
1.1703,603
1.171967,614
1.173633,625
1.1753,615
1.176967,477
1.178633,625
1.1803,593
1.181967,561
1.183633,527
1.1853,492
1.186967,778
1.188633,783
1.1903,638
1.191967,571
1.193633,850
1.1953,753
1.196967,805
1.198633,548
