"SampleName","A2Rd2_02-52"
"Target Mass 1",
"Column Name","IA-3 (3um, 4.6X100)"
"Channel","QDa 1: SIR Ch2"
0.00195,464
0.003616667,643
0.005283333,555
0.00695,609
0.008616666,823
0.01028333,881
0.01195,1040
0.01361667,1026
0.01528333,940
0.01695,983
0.01861667,1042
0.02028333,918
0.02195,866
0.02361667,944
0.02528333,956
0.02695,968
0.02861667,1048
0.03028333,793
0.03195,1136
0.03361667,1001
0.03528333,970
0.03695,926
0.03861667,899
0.04028333,807
0.04195,862
0.04361667,918
0.04528333,891
0.04695,865
0.04861667,856
0.05028334,848
0.05195,916
0.05361667,911
0.05528333,905
0.05695,968
0.05861667,807
0.06028333,1148
0.06195,1066
0.06361666,958
0.06528334,1178
0.06695,1149
0.06861667,1055
0.07028333,1078
0.07195,993
0.07361667,1079
0.07528333,1066
0.07695,1052
0.07861666,1044
0.08028334,884
0.08195,930
0.08361667,976
0.08528333,920
0.08695,1051
0.08861667,774
0.09028333,1014
0.09195,1008
0.09361666,793
0.09528334,905
0.09695,1035
0.09861667,1030
0.1002833,997
0.10195,1024
0.1036167,1029
0.1052833,912
0.10695,802
0.1086167,1009
0.1102833,1002
0.11195,995
0.1136167,1081
0.1152833,859
0.11695,949
0.1186167,984
0.1202833,989
0.12195,856
0.1236167,946
0.1252833,892
0.12695,838
0.1286167,1032
0.1302833,1124
0.13195,707
0.1336167,764
0.1352833,921
0.13695,965
0.1386167,1053
0.1402833,950
0.14195,940
0.1436167,775
0.1452833,951
0.14695,1043
0.1486167,1157
0.1502833,1004
0.15195,985
0.1536167,729
0.1552833,1036
0.15695,1016
0.1586167,964
0.1602833,982
0.16195,1001
0.1636167,976
0.1652833,910
0.16695,846
0.1686167,932
0.1702833,661
0.17195,878
0.1736167,1062
0.1752833,954
0.17695,924
0.1786167,994
0.1802833,910
0.18195,949
0.1836167,929
0.1852833,948
0.18695,967
0.1886167,888
0.1902833,903
0.19195,944
0.1936167,977
0.1952833,853
0.19695,991
0.1986167,917
0.2002833,802
0.20195,1096
0.2036167,997
0.2052833,1204
0.20695,824
0.2086167,766
0.2102833,1140
0.21195,1183
0.2136167,706
0.2152833,1022
0.21695,1128
0.2186167,1045
0.2202833,957
0.22195,1043
0.2236167,1114
0.2252833,1178
0.22695,948
0.2286167,1189
0.2302833,1137
0.23195,1201
0.2336167,1100
0.2352833,998
0.23695,1189
0.2386167,1252
0.2402833,1034
0.24195,1052
0.2436167,1084
0.2452833,1116
0.24695,1038
0.2486167,960
0.2502833,1085
0.25195,1210
0.2536167,1326
0.2552833,1275
0.25695,1058
0.2586167,1187
0.2602833,1145
0.26195,1103
0.2636333,1214
0.2652833,1150
0.26695,1249
0.2686167,1093
0.2702833,870
0.27195,1018
0.2736167,1215
0.2752833,1049
0.27695,969
0.2786167,1298
0.2803,1149
0.28195,955
0.2836167,1256
0.2852833,1032
0.28695,1035
0.2886167,875
0.2902833,940
0.29195,1005
0.2936167,946
0.2952833,977
0.29695,950
0.2986333,1060
0.3002833,993
0.30195,927
0.3036333,1048
0.3052833,1191
0.30695,1132
0.3086167,1143
0.3102833,1206
0.31195,1158
0.3136167,1109
0.3153,1275
0.3169667,1210
0.3186333,1358
0.3202833,1338
0.3219667,1247
0.3236167,1303
0.3252833,1309
0.3269667,1194
0.3286167,1225
0.3302833,1265
0.33195,1220
0.3336333,1176
0.3353,1353
0.33695,1350
0.3386333,1415
0.3402833,1253
0.34195,1461
0.3436333,1204
0.3452833,1360
0.34695,1412
0.3486167,1367
0.3503,1282
0.3519667,1378
0.3536333,1506
0.3553,1367
0.35695,1227
0.3586333,1371
0.3603,1313
0.3619667,1373
0.3636167,1322
0.3653,1641
0.3669667,2622
0.3686333,3325
0.3702833,3585
0.3719667,3551
0.3736167,2901
0.3753,3390
0.3769667,2956
0.3786333,3201
0.3802833,3347
0.3819667,2839
0.3836333,2937
0.3853,2516
0.3869667,2026
0.3886333,1641
0.3903,1427
0.3919667,1069
0.3936333,776
0.3952833,740
0.3969667,686
0.3986167,572
0.4003,471
0.4019667,383
0.4036333,600
0.4053,532
0.4069667,427
0.4086333,448
0.4103,429
0.4119667,465
0.4136333,501
0.4153,530
0.4169667,559
0.4186333,709
0.4203,728
0.4219667,754
0.4236333,691
0.4253,633
0.4269667,766
0.4286333,773
0.4303,700
0.4319667,671
0.4336333,655
0.4353,639
0.4369667,742
0.4386333,863
0.4403,984
0.4419667,957
0.4436333,896
0.4453,870
0.4469667,875
0.4486333,939
0.4503,1003
0.4519667,1089
0.4536333,1118
0.4553,1065
0.4569667,1168
0.4586333,1192
0.4603,1348
0.4619667,1311
0.4636333,1301
0.4653,1290
0.4669667,1383
0.4686333,1340
0.4703,1297
0.4719667,1254
0.4736333,1265
0.4753,1302
0.4769667,1340
0.4786333,1327
0.4803,1315
0.4819667,1246
0.4836333,1324
0.4853,1287
0.4869667,1347
0.4886333,1143
0.4903,1068
0.4919667,1214
0.4936333,1062
0.4953,1139
0.4969667,1127
0.4986333,901
0.5003,1025
0.5019667,1101
0.5036333,777
0.5053,1110
0.5069667,968
0.5086333,974
0.5103,933
0.5119666,931
0.5136333,929
0.5153,947
0.5169666,965
0.5186333,1000
0.5203,876
0.5219667,876
0.5236334,876
0.5253,970
0.5269667,956
0.5286334,873
0.5303,831
0.5319667,838
0.5336334,803
0.5353,924
0.5369667,1044
0.5386333,1094
0.5403,971
0.5419667,884
0.5436333,837
0.5453,982
0.5469667,1002
0.5486333,880
0.5503,901
0.5519667,923
0.5536333,859
0.5553,888
0.5569667,917
0.5586333,834
0.5603,751
0.5619667,926
0.5636333,966
0.5653,1005
0.5669667,1064
0.5686333,1044
0.5703,896
0.5719666,892
0.5736333,896
0.5753,926
0.5769666,937
0.5786333,881
0.5803,825
0.5819666,894
0.5836333,821
0.5853,1019
0.5869667,971
0.5886334,1001
0.5903,1116
0.5919667,1177
0.5936334,814
0.5953,986
0.5969667,1076
0.5986333,1035
0.6003,993
0.6019667,984
0.6036333,1096
0.6053,1073
0.6069667,824
0.6086333,1094
0.6103,1052
0.6119667,799
0.6136333,947
0.6153,1060
0.6169667,1023
0.6186333,930
0.6203,810
0.6219667,983
0.6236333,891
0.6253,933
0.6269667,971
0.6286333,895
0.6303,1010
0.6319667,1169
0.6336333,1100
0.6353,971
0.6369666,840
0.6386333,1066
0.6403,1097
0.6419666,871
0.6436333,1010
0.6453,997
0.6469667,1074
0.6486334,951
0.6503,1030
0.6519667,919
0.6536334,1049
0.6553,914
0.6569667,955
0.6586334,1099
0.6603,1012
0.6619667,1117
0.6636333,1132
0.6653,1026
0.6669667,924
0.6686333,1351
0.6703,1361
0.6719667,1407
0.6736333,1734
0.6753,2195
0.6769667,2772
0.6786333,3484
0.6803,4070
0.6819667,5585
0.6836333,7097
0.6853,8708
0.6869667,10300
0.6886333,12972
0.6903,15240
0.6919667,16812
0.6936333,18580
0.6953,20092
0.6969666,20716
0.6986333,23264
0.7003,22844
0.7019666,23584
0.7036333,23392
0.7053,23200
0.7069666,22416
0.7086333,23028
0.7103,21556
0.7119667,22432
0.7136334,22148
0.7153,21532
0.7169667,21456
0.7186334,22068
0.7203,21040
0.7219667,19992
0.7236333,19896
0.7253,18664
0.7269667,18200
0.7286333,16648
0.7303,14676
0.7319667,13192
0.7336333,12852
0.7353,10584
0.7369667,9672
0.7386333,8724
0.7403,7824
0.7419667,6635
0.7436333,6021
0.7453,5130
0.7469667,4043
0.7486333,4384
0.7503,3870
0.7519667,3344
0.7536333,3300
0.7553,2645
0.7569667,2435
0.7586333,2652
0.7603,2196
0.7619666,2219
0.7636333,1834
0.7653,1976
0.7669666,1602
0.7686333,1903
0.7703,2125
0.7719667,2014
0.7736334,1931
0.7753,2440
0.7769667,2760
0.7786334,3609
0.7803,4188
0.7819667,5917
0.7836334,6956
0.7853,8860
0.7869667,10196
0.7886333,13000
0.7903,15268
0.7919667,17876
0.7936333,20000
0.7953,25020
0.7969667,25848
0.7986333,28796
0.8003,30904
0.8019667,33056
0.8036333,33040
0.8053,32484
0.8069667,33216
0.8086333,32912
0.8103,32624
0.8119667,31896
0.8136333,30436
0.8153,29840
0.8169667,30328
0.8186333,29348
0.8203,29380
0.8219666,29000
0.8236333,28380
0.8253,27584
0.8269666,27804
0.8286333,27912
0.8303,27332
0.8319666,25868
0.8336333,24928
0.8353,23324
0.8369667,21936
0.8386334,20528
0.8403,18164
0.8419667,16228
0.8436334,14016
0.8453,13368
0.8469667,12004
0.8486333,10176
0.8503,9344
0.8519667,8628
0.8536333,7248
0.8553,7234
0.8569667,6407
0.8586333,5496
0.8603,4615
0.8619667,4519
0.8636333,4142
0.8653,3772
0.8669667,3227
0.8686333,2894
0.8703,2680
0.8719667,2478
0.8736333,1994
0.8753,2320
0.8769667,2472
0.8786333,2525
0.8803,2824
0.8819667,3242
0.8836333,2998
0.8853,2906
0.8869666,2828
0.8886333,2829
0.8903,3018
0.8919666,2340
0.8936333,2465
0.8953,2293
0.8969667,2346
0.8986334,2325
0.9003,2304
0.9019667,2313
0.9036334,2140
0.9053,2300
0.9069667,1805
0.9086334,1627
0.9103,2101
0.9119667,1779
0.9136333,2180
0.9153,1778
0.9169667,2194
0.9186333,1880
0.9203,2029
0.9219667,1992
0.9236333,1849
0.9253,1744
0.9269667,2127
0.9286333,1551
0.9303,1777
0.9319667,1767
0.9336333,1630
0.9353,1632
0.9369667,1690
0.9386333,1749
0.9403,1784
0.9419667,1675
0.9436333,1690
0.9453,1591
0.9469666,2050
0.9486333,2136
0.9503,2745
0.9519666,2548
0.9536333,3077
0.9553,3557
0.9569666,4295
0.9586333,5329
0.9603,5710
0.9619667,7037
0.9636334,8648
0.9653,10576
0.9669667,12528
0.9686334,14384
0.9703,17496
0.9719667,19264
0.9736333,23628
0.9753,26240
0.9769667,29276
0.9786333,31844
0.9803,34752
0.9819667,36288
0.9836333,39552
0.9853,42896
0.9869667,44496
0.9886333,44272
0.9903,46688
0.9919667,45584
0.9936333,46992
0.9953,46656
0.9969667,47664
0.9986333,47072
1.0003,44192
1.001967,44560
1.003633,44160
1.0053,43056
1.006967,42512
1.008633,43984
1.0103,43328
1.011967,42288
1.013633,44176
1.0153,43808
1.016967,43584
1.018633,43456
1.0203,42928
1.021967,43344
1.023633,40992
1.0253,41376
1.026967,40912
1.028633,39184
1.0303,35680
1.031967,35008
1.033633,33072
1.0353,30648
1.036967,28072
1.038633,27352
1.0403,25216
1.041967,23372
1.043633,20468
1.0453,19440
1.046967,17580
1.048633,17052
1.0503,16024
1.051967,15948
1.053633,14384
1.0553,14220
1.056967,14076
1.058633,14280
1.0603,14336
1.061967,14176
1.063633,14528
1.0653,14880
1.066967,15772
1.068633,16512
1.0703,16792
1.071967,17496
1.073633,16876
1.0753,17012
1.076967,17148
1.078633,18352
1.0803,18204
1.081967,17844
1.083633,17660
1.0853,17688
1.086967,17668
1.088633,16516
1.0903,17960
1.091967,17844
1.093633,17484
1.0953,16632
1.096967,16020
1.098633,16940
1.1003,16204
1.101967,16196
1.103633,15680
1.1053,16112
1.106967,15496
1.108633,15188
1.1103,15904
1.111967,15168
1.113633,14560
1.1153,15020
1.116967,14852
1.118633,13780
1.1203,13848
1.121967,13092
1.123633,12560
1.1253,12432
1.126967,11904
1.128633,10360
1.1303,10180
1.131967,9196
1.133633,9136
1.1353,8224
1.136967,7761
1.138633,7619
1.1403,6856
1.141967,6387
1.143633,6023
1.1453,5290
1.146967,5175
1.148633,4941
1.1503,4869
1.151967,4442
1.153633,4681
1.1553,3874
1.156967,3354
1.158633,3471
1.1603,3244
1.161967,2591
1.163633,2994
1.1653,2591
1.166967,2817
1.168633,2519
1.1703,2656
1.171967,2109
1.173633,2166
1.1753,2249
1.176967,2237
1.178633,2123
1.1803,2367
1.181967,1984
1.183633,2131
1.1853,2252
1.186967,2207
1.188633,2235
1.1903,2171
1.191967,2376
1.193633,2451
1.1953,2456
1.196967,2641
1.198633,2671
