"SampleName","A2Rd2_02-63"
"Target Mass 1",
"Column Name","IA-3 (3um, 4.6X100)"
"Channel","QDa 1: SIR Ch1"
0.00195,378
0.003616667,576
0.005283333,461
0.00695,504
0.008616666,547
0.01028333,494
0.01195,441
0.01361667,450
0.01528333,519
0.01695,499
0.01861667,479
0.02028333,602
0.02195,574
0.02361667,502
0.02528333,576
0.02695,493
0.02861667,508
0.03028333,503
0.03195,554
0.03361667,604
0.03528333,637
0.03695,624
0.03861667,540
0.04028333,561
0.04195,468
0.04361667,587
0.04528333,518
0.04695,509
0.04861667,552
0.05028334,499
0.05195,485
0.05361667,571
0.05528333,489
0.05695,524
0.05861667,583
0.06028333,621
0.06195,616
0.06361666,611
0.06528334,442
0.06695,535
0.06861667,580
0.07028333,603
0.07195,529
0.07361667,613
0.07528333,504
0.07695,456
0.07861666,408
0.08028334,435
0.08195,656
0.08361667,617
0.08528333,682
0.08695,469
0.08861667,510
0.09028333,484
0.09195,529
0.09361666,526
0.09528334,445
0.09695,557
0.09861667,579
0.1002833,608
0.10195,588
0.1036167,567
0.1052833,507
0.10695,481
0.1086167,555
0.1102833,460
0.11195,517
0.1136167,597
0.1152833,391
0.11695,453
0.1186167,595
0.1202833,530
0.12195,536
0.1236167,512
0.1252833,488
0.12695,535
0.1286167,520
0.1302833,471
0.13195,423
0.1336167,515
0.1352833,546
0.13695,585
0.1386167,436
0.1402833,630
0.14195,520
0.1436167,533
0.1452833,516
0.14695,527
0.1486167,548
0.1502833,448
0.15195,615
0.1536167,588
0.1552833,647
0.15695,483
0.1586167,559
0.1602833,504
0.16195,453
0.1636167,477
0.1652833,553
0.16695,538
0.1686167,540
0.1702833,471
0.17195,366
0.1736167,550
0.1752833,609
0.17695,409
0.1786167,588
0.1802833,388
0.18195,539
0.1836167,560
0.1852833,464
0.18695,505
0.1886167,409
0.1902833,475
0.19195,485
0.1936167,504
0.1952833,523
0.19695,506
0.1986167,568
0.2002833,400
0.20195,509
0.2036167,630
0.2052833,365
0.20695,513
0.2086167,428
0.2102833,485
0.21195,542
0.2136167,540
0.2152833,513
0.21695,487
0.2186167,500
0.2202833,513
0.22195,494
0.2236167,474
0.2252833,461
0.22695,515
0.2286333,508
0.2302833,501
0.23195,408
0.2336167,480
0.2352833,506
0.23695,516
0.2386167,461
0.2402833,585
0.24195,616
0.2436167,509
0.2453,556
0.24695,512
0.2486167,508
0.2502833,442
0.25195,471
0.2536167,500
0.2552833,548
0.25695,515
0.2586167,482
0.2602833,502
0.26195,534
0.2636167,447
0.2652833,498
0.26695,468
0.2686167,453
0.2702833,496
0.27195,463
0.2736167,430
0.2752833,411
0.27695,568
0.2786167,572
0.2803,592
0.28195,544
0.2836167,599
0.2852833,569
0.28695,481
0.2886167,388
0.2902833,457
0.2919667,527
0.2936167,540
0.2952833,545
0.29695,551
0.2986333,546
0.3002833,541
0.30195,547
0.3036167,571
0.3052833,623
0.30695,645
0.3086167,593
0.3102833,424
0.31195,538
0.3136167,581
0.3153,611
0.31695,501
0.3186167,392
0.3202833,510
0.32195,635
0.3236167,567
0.3252833,541
0.32695,632
0.3286167,462
0.3302833,649
0.33195,586
0.3336333,672
0.3352833,602
0.3369667,609
0.3386167,451
0.3402833,500
0.3419667,425
0.3436167,423
0.3452833,420
0.34695,538
0.3486167,584
0.3503,538
0.35195,528
0.3536333,596
0.3553,632
0.35695,668
0.3586167,570
0.3602833,651
0.36195,851
0.3636167,876
0.3652833,1124
0.3669667,1874
0.3686333,2821
0.3703,3385
0.3719667,4010
0.3736333,3735
0.3752833,3642
0.3769667,4224
0.3786167,4494
0.3803,4513
0.38195,4531
0.3836333,4695
0.3853,4131
0.3869667,3858
0.3886333,3399
0.3902833,2910
0.3919667,2239
0.3936167,1726
0.3952833,1804
0.39695,1497
0.3986167,1287
0.4003,1360
0.40195,1195
0.4036333,1347
0.4053,1417
0.4069667,1231
0.4086333,1404
0.4103,1332
0.4119667,1286
0.4136333,1229
0.4153,1218
0.4169667,1333
0.4186167,1347
0.4203,1545
0.4219667,1472
0.4236333,1494
0.4253,1515
0.4269667,1305
0.4286333,1450
0.4303,1668
0.4319667,1801
0.4336333,2682
0.4353,3691
0.4369667,5603
0.4386333,8177
0.4403,13480
0.4419667,20212
0.4436333,30676
0.4453,41664
0.4469667,55520
0.4486333,73008
0.4503,87712
0.4519667,103120
0.4536333,117488
0.4553,126544
0.4569667,136320
0.4586333,144384
0.4603,144192
0.4619667,152192
0.4636333,148800
0.4653,153344
0.4669667,156032
0.4686333,158144
0.4703,162048
0.4719667,165056
0.4736333,175616
0.4753,184704
0.4769667,184832
0.4786333,187008
0.4803,187072
0.4819667,185024
0.4836333,171904
0.4853,159616
0.4869667,142272
0.4886333,127120
0.4903,110736
0.4919667,94944
0.4936333,79056
0.4953,67392
0.4969667,54096
0.4986333,42416
0.5003,35760
0.5019667,28508
0.5036333,22016
0.5053,19648
0.5069667,14852
0.5086333,13100
0.5103,10804
0.5119666,8696
0.5136333,7592
0.5153,6758
0.5169666,5908
0.5186333,5821
0.5203,4767
0.5219667,3978
0.5236334,3499
0.5253,3761
0.5269667,3447
0.5286334,3078
0.5303,3149
0.5319667,2914
0.5336334,2975
0.5353,2489
0.5369667,2760
0.5386333,2669
0.5403,2238
0.5419667,2485
0.5436333,2251
0.5453,2301
0.5469667,2233
0.5486333,2268
0.5503,2092
0.5519667,1795
0.5536333,1964
0.5553,1616
0.5569667,1955
0.5586333,1721
0.5603,1723
0.5619667,1438
0.5636333,1791
0.5653,1464
0.5669667,1406
0.5686333,1316
0.5703,1325
0.5719666,1334
0.5736333,1391
0.5753,1447
0.5769666,1410
0.5786333,1187
0.5803,1463
0.5819666,1555
0.5836333,1252
0.5853,1315
0.5869667,1547
0.5886334,1614
0.5903,1234
0.5919667,1306
0.5936334,1270
0.5953,1260
0.5969667,1417
0.5986333,1456
0.6003,1466
0.6019667,1394
0.6036333,1517
0.6053,1282
0.6069667,1496
0.6086333,1326
0.6103,1400
0.6119667,1146
0.6136333,1226
0.6153,1509
0.6169667,1350
0.6186333,1443
0.6203,1256
0.6219667,1126
0.6236333,944
0.6253,1242
0.6269667,1151
0.6286333,1181
0.6303,1182
0.6319667,967
0.6336333,1178
0.6353,1109
0.6369666,1204
0.6386333,1199
0.6403,1078
0.6419666,1044
0.6436333,998
0.6453,1020
0.6469667,946
0.6486334,868
0.6503,1002
0.6519667,913
0.6536334,914
0.6553,916
0.6569667,894
0.6586334,938
0.6603,972
0.6619667,947
0.6636333,868
0.6653,811
0.6669667,702
0.6686333,732
0.6703,761
0.6719667,821
0.6736333,881
0.6753,852
0.6769667,822
0.6786333,781
0.6803,737
0.6819667,740
0.6836333,775
0.6853,809
0.6869667,670
0.6886333,893
0.6903,871
0.6919667,857
0.6936333,834
0.6953,834
0.6969666,952
0.6986333,712
0.7003,950
0.7019666,833
0.7036333,911
0.7053,883
0.7069666,807
0.7086333,718
0.7103,902
0.7119667,768
0.7136334,823
0.7153,878
0.7169667,770
0.7186334,783
0.7203,783
0.7219667,783
0.7236333,780
0.7253,736
0.7269667,660
0.7286333,866
0.7303,822
0.7319667,689
0.7336333,841
0.7353,761
0.7369667,731
0.7386333,658
0.7403,725
0.7419667,644
0.7436333,711
0.7453,777
0.7469667,792
0.7486333,806
0.7503,831
0.7519667,729
0.7536333,761
0.7553,693
0.7569667,739
0.7586333,813
0.7603,804
0.7619666,794
0.7636333,831
0.7653,719
0.7669666,770
0.7686333,647
0.7703,916
0.7719667,871
0.7736334,825
0.7753,841
0.7769667,856
0.7786334,706
0.7803,760
0.7819667,777
0.7836334,784
0.7853,653
0.7869667,703
0.7886333,808
0.7903,820
0.7919667,704
0.7936333,748
0.7953,651
0.7969667,767
0.7986333,581
0.8003,770
0.8019667,940
0.8036333,873
0.8053,634
0.8069667,837
0.8086333,960
0.8103,695
0.8119667,712
0.8136333,675
0.8153,821
0.8169667,908
0.8186333,891
0.8203,832
0.8219666,773
0.8236333,783
0.8253,802
0.8269666,621
0.8286333,808
0.8303,823
0.8319666,625
0.8336333,843
0.8353,986
0.8369667,846
0.8386334,780
0.8403,814
0.8419667,847
0.8436334,792
0.8453,871
0.8469667,735
0.8486333,783
0.8503,761
0.8519667,739
0.8536333,713
0.8553,688
0.8569667,729
0.8586333,734
0.8603,761
0.8619667,670
0.8636333,791
0.8653,580
0.8669667,832
0.8686333,692
0.8703,592
0.8719667,739
0.8736333,481
0.8753,725
0.8769667,614
0.8786333,1221
0.8803,1500
0.8819667,1794
0.8836333,1789
0.8853,2494
0.8869666,2742
0.8886333,2988
0.8903,3376
0.8919666,3268
0.8936333,3349
0.8953,3040
0.8969667,3184
0.8986334,3396
0.9003,3688
0.9019667,3717
0.9036334,3700
0.9053,3297
0.9069667,3339
0.9086334,3577
0.9103,3658
0.9119667,3603
0.9136333,3549
0.9153,3579
0.9169667,3352
0.9186333,3197
0.9203,3562
0.9219667,3305
0.9236333,3343
0.9253,3069
0.9269667,3267
0.9286333,3123
0.9303,3294
0.9319667,3490
0.9336333,3542
0.9353,3071
0.9369667,3087
0.9386333,2767
0.9403,2908
0.9419667,2648
0.9436333,2991
0.9453,2892
0.9469666,2761
0.9486333,2770
0.9503,2778
0.9519666,2321
0.9536333,2291
0.9553,2313
0.9569666,2120
0.9586333,1659
0.9603,1784
0.9619667,1850
0.9636334,1836
0.9653,1557
0.9669667,1678
0.9686334,1460
0.9703,1696
0.9719667,1295
0.9736333,1143
0.9753,1117
0.9769667,1081
0.9786333,1063
0.9803,1044
0.9819667,746
0.9836333,922
0.9853,885
0.9869667,691
0.9886333,906
0.9903,783
0.9919667,837
0.9936333,729
0.9953,614
0.9969667,560
0.9986333,620
1.0003,601
1.001967,540
1.003633,529
1.0053,552
1.006967,588
1.008633,624
1.0103,636
1.011967,593
1.013633,656
1.0153,627
1.016967,612
1.018633,662
1.0203,626
1.021967,742
1.023633,480
1.0253,648
1.026967,452
1.028633,650
1.0303,455
1.031967,556
1.033633,624
1.0353,690
1.036967,724
1.038633,489
1.0403,579
1.041967,598
1.043633,672
1.0453,607
1.046967,637
1.048633,629
1.0503,583
1.051967,628
1.053633,772
1.0553,742
1.056967,761
1.058633,664
1.0603,696
1.061967,825
1.063633,818
1.0653,636
1.066967,518
1.068633,580
1.0703,560
1.071967,584
1.073633,561
1.0753,574
1.076967,587
1.078633,603
1.0803,620
1.081967,605
1.083633,589
1.0853,578
1.086967,656
1.088633,689
1.0903,718
1.091967,711
1.093633,705
1.0953,588
1.096967,724
1.098633,735
1.1003,783
1.101967,555
1.103633,729
1.1053,636
1.106967,652
1.108633,574
1.1103,591
1.111967,607
1.113633,636
1.1153,658
1.116967,656
1.118633,543
1.1203,709
1.121967,621
1.123633,613
1.1253,564
1.126967,659
1.128633,613
1.1303,620
1.131967,666
1.133633,622
1.1353,629
1.136967,571
1.138633,514
1.1403,505
1.141967,495
1.143633,602
1.1453,581
1.146967,561
1.148633,655
1.1503,720
1.151967,732
1.153633,651
1.1553,700
1.156967,579
1.158633,750
1.1603,791
1.161967,590
1.163633,636
1.1653,626
1.166967,591
1.168633,605
1.1703,537
1.171967,695
1.173633,678
1.1753,588
1.176967,691
1.178633,573
1.1803,694
1.181967,744
1.183633,735
1.1853,724
1.186967,712
1.188633,653
1.1903,684
1.191967,642
1.193633,691
1.1953,606
1.196967,760
1.198633,769
