"SampleName","standard"
"Target Mass 1",
"Column Name","IA-3 (3um, 4.6X100)"
"Channel","QDa 1: SIR Ch2"
0.00195,312
0.003616667,602
0.005283333,479
0.00695,540
0.008616666,601
0.01028333,849
0.01195,854
0.01361667,754
0.01528333,763
0.01695,773
0.01861667,959
0.02028333,929
0.02195,680
0.02361667,869
0.02528333,983
0.02695,820
0.02861667,1002
0.03028333,642
0.03195,802
0.03361667,768
0.03528333,703
0.03695,806
0.03861667,909
0.04028333,821
0.04195,734
0.04361667,969
0.04528333,1017
0.04695,1092
0.04861667,932
0.05028334,895
0.05195,811
0.05361667,772
0.05528333,765
0.05695,732
0.05861667,699
0.06028333,821
0.06195,762
0.06361666,703
0.06528334,873
0.06695,783
0.06861667,787
0.07028333,881
0.07195,815
0.07361667,750
0.07528333,849
0.07695,871
0.07861666,825
0.08028334,720
0.08195,866
0.08361667,816
0.08528333,911
0.08695,803
0.08861667,826
0.09028333,777
0.09195,714
0.09361666,872
0.09528334,773
0.09695,796
0.09861667,701
0.1002833,923
0.10195,915
0.1036167,906
0.1052833,804
0.10695,850
0.1086167,896
0.1102833,717
0.11195,900
0.1136167,664
0.1152833,938
0.11695,741
0.1186167,818
0.1202833,811
0.12195,804
0.1236167,821
0.1252833,838
0.12695,783
0.1286167,727
0.1302833,691
0.13195,719
0.1336167,924
0.1352833,867
0.13695,848
0.1386167,823
0.1402833,798
0.14195,829
0.1436167,618
0.1452833,878
0.14695,813
0.1486167,838
0.1502833,886
0.15195,795
0.1536167,782
0.1552833,842
0.15695,809
0.1586167,775
0.1602833,806
0.16195,872
0.1636167,829
0.1652833,785
0.16695,868
0.1686167,855
0.1702833,842
0.17195,766
0.1736167,766
0.1752833,766
0.17695,760
0.1786167,754
0.1802833,766
0.18195,811
0.1836167,792
0.1852833,774
0.18695,868
0.1886167,852
0.1902833,808
0.19195,807
0.1936167,807
0.1952833,869
0.19695,896
0.1986167,837
0.2002833,778
0.20195,690
0.2036167,741
0.2052833,791
0.20695,759
0.2086167,775
0.2102833,790
0.21195,784
0.2136167,770
0.2152833,811
0.21695,852
0.2186167,705
0.2202833,889
0.22195,842
0.2236167,885
0.2252833,858
0.22695,831
0.2286167,883
0.2302833,901
0.23195,837
0.2336167,897
0.2352833,862
0.23695,897
0.2386167,696
0.2402833,930
0.24195,859
0.2436167,565
0.2452833,816
0.24695,845
0.2486167,908
0.2502833,1007
0.25195,974
0.2536167,953
0.2552833,806
0.25695,824
0.2586167,843
0.2602833,786
0.26195,744
0.2636167,805
0.2652833,777
0.26695,750
0.2686167,783
0.2702833,801
0.27195,736
0.2736167,727
0.2752833,719
0.27695,821
0.2786167,843
0.2803,819
0.28195,917
0.2836333,967
0.2852833,657
0.28695,892
0.2886167,843
0.2902833,946
0.29195,958
0.2936167,959
0.2952833,715
0.29695,953
0.2986333,852
0.3002833,976
0.30195,966
0.3036167,824
0.3052833,708
0.3069667,925
0.3086167,878
0.3102833,849
0.31195,833
0.3136167,818
0.3153,931
0.31695,1044
0.3186167,1193
0.3202833,1059
0.32195,1024
0.3236167,1203
0.3252833,1043
0.32695,1141
0.3286167,1190
0.3303,1143
0.33195,1115
0.3336333,1011
0.3352833,1211
0.3369667,1255
0.3386167,1215
0.3402833,1337
0.34195,1314
0.3436167,1290
0.3453,1119
0.34695,1180
0.3486167,1241
0.3503,1233
0.35195,1224
0.3536333,1186
0.3552833,1121
0.3569667,1056
0.3586167,1126
0.3602833,1022
0.3619667,974
0.3636167,1083
0.3652833,1148
0.3669667,1089
0.3686333,1029
0.3703,1073
0.37195,1127
0.3736167,1084
0.3752833,1004
0.37695,1017
0.3786333,1004
0.3802833,866
0.38195,993
0.3836167,980
0.3853,1064
0.3869667,1000
0.3886167,990
0.3903,1008
0.39195,1004
0.3936333,999
0.3953,1020
0.3969667,1018
0.3986167,1017
0.4003,1014
0.4019667,1054
0.4036333,916
0.4053,1044
0.4069667,1073
0.4086333,887
0.4103,1086
0.4119667,1046
0.4136333,1110
0.4152833,1112
0.4169667,905
0.4186333,1036
0.4203,958
0.4219667,994
0.4236167,1031
0.4253,855
0.42695,1024
0.4286333,1061
0.4303,782
0.4319667,896
0.4336333,915
0.4353,923
0.4369667,931
0.4386333,1036
0.4403,782
0.4419667,1091
0.4436333,845
0.4453,827
0.4469667,1069
0.4486333,1005
0.4503,861
0.4519667,889
0.4536333,940
0.4553,942
0.4569667,944
0.4586333,922
0.4603,935
0.4619667,947
0.4636333,918
0.4653,942
0.4669667,967
0.4686333,898
0.4703,829
0.4719667,1054
0.4736333,1128
0.4753,1107
0.4769667,1037
0.4786333,996
0.4803,875
0.4819667,855
0.4836333,868
0.4853,1084
0.4869667,1139
0.4886333,852
0.4903,893
0.4919667,917
0.4936333,973
0.4953,942
0.4969667,911
0.4986333,967
0.5003,1054
0.5019667,1036
0.5036333,1017
0.5053,1095
0.5069667,1044
0.5086333,993
0.5103,935
0.5119666,937
0.5136333,814
0.5153,958
0.5169666,1023
0.5186333,856
0.5203,992
0.5219667,785
0.5236334,1089
0.5253,1063
0.5269667,869
0.5286334,967
0.5303,958
0.5319667,984
0.5336334,781
0.5353,914
0.5369667,1024
0.5386333,896
0.5403,941
0.5419667,985
0.5436333,890
0.5453,1091
0.5469667,1142
0.5486333,802
0.5503,820
0.5519667,921
0.5536333,836
0.5553,805
0.5569667,858
0.5586333,911
0.5603,869
0.5619667,827
0.5636333,1028
0.5653,1017
0.5669667,927
0.5686333,897
0.5703,962
0.5719666,832
0.5736333,830
0.5753,842
0.5769666,678
0.5786333,895
0.5803,956
0.5819666,1046
0.5836333,727
0.5853,1033
0.5869667,925
0.5886334,940
0.5903,901
0.5919667,1017
0.5936334,792
0.5953,770
0.5969667,728
0.5986333,776
0.6003,777
0.6019667,778
0.6036333,918
0.6053,863
0.6069667,809
0.6086333,959
0.6103,914
0.6119667,914
0.6136333,894
0.6153,874
0.6169667,858
0.6186333,867
0.6203,877
0.6219667,910
0.6236333,944
0.6253,753
0.6269667,881
0.6286333,915
0.6303,893
0.6319667,677
0.6336333,737
0.6353,751
0.6369666,766
0.6386333,848
0.6403,921
0.6419666,908
0.6436333,899
0.6453,890
0.6469667,871
0.6486334,797
0.6503,835
0.6519667,803
0.6536334,771
0.6553,900
0.6569667,851
0.6586334,803
0.6603,945
0.6619667,747
0.6636333,875
0.6653,899
0.6669667,852
0.6686333,805
0.6703,912
0.6719667,813
0.6736333,729
0.6753,933
0.6769667,754
0.6786333,1052
0.6803,913
0.6819667,811
0.6836333,883
0.6853,892
0.6869667,786
0.6886333,854
0.6903,610
0.6919667,776
0.6936333,813
0.6953,568
0.6969666,760
0.6986333,876
0.7003,763
0.7019666,783
0.7036333,804
0.7053,830
0.7069666,743
0.7086333,740
0.7103,738
0.7119667,763
0.7136334,750
0.7153,738
0.7169667,953
0.7186334,988
0.7203,830
0.7219667,897
0.7236333,796
0.7253,818
0.7269667,840
0.7286333,771
0.7303,778
0.7319667,861
0.7336333,872
0.7353,723
0.7369667,702
0.7386333,754
0.7403,749
0.7419667,745
0.7436333,720
0.7453,695
0.7469667,756
0.7486333,826
0.7503,826
0.7519667,832
0.7536333,838
0.7553,714
0.7569667,763
0.7586333,813
0.7603,968
0.7619666,854
0.7636333,740
0.7653,843
0.7669666,1011
0.7686333,1193
0.7703,1146
0.7719667,1844
0.7736334,2200
0.7753,3581
0.7769667,5193
0.7786334,7700
0.7803,10704
0.7819667,14980
0.7836334,20800
0.7853,29960
0.7869667,39408
0.7886333,50512
0.7903,65392
0.7919667,81760
0.7936333,99152
0.7953,113648
0.7969667,130880
0.7986333,147584
0.8003,163584
0.8019667,175616
0.8036333,183360
0.8053,195456
0.8069667,201984
0.8086333,207040
0.8103,214912
0.8119667,218432
0.8136333,213632
0.8153,213440
0.8169667,216512
0.8186333,218688
0.8203,220864
0.8219666,220352
0.8236333,219904
0.8253,209472
0.8269666,209408
0.8286333,202176
0.8303,185664
0.8319666,176768
0.8336333,159616
0.8353,148032
0.8369667,134784
0.8386334,119616
0.8403,108000
0.8419667,95952
0.8436334,82976
0.8453,73488
0.8469667,62160
0.8486333,54448
0.8503,47216
0.8519667,40592
0.8536333,35680
0.8553,30256
0.8569667,26660
0.8586333,23064
0.8603,21052
0.8619667,17956
0.8636333,15612
0.8653,14132
0.8669667,12444
0.8686333,11124
0.8703,10884
0.8719667,9156
0.8736333,9036
0.8753,8067
0.8769667,7322
0.8786333,6630
0.8803,5918
0.8819667,6050
0.8836333,4815
0.8853,4879
0.8869666,4663
0.8886333,4642
0.8903,3877
0.8919666,4494
0.8936333,3779
0.8953,3676
0.8969667,3313
0.8986334,2922
0.9003,2997
0.9019667,3175
0.9036334,2859
0.9053,3123
0.9069667,2801
0.9086334,2458
0.9103,2439
0.9119667,2008
0.9136333,2163
0.9153,2484
0.9169667,1976
0.9186333,2022
0.9203,2051
0.9219667,1589
0.9236333,2101
0.9253,2088
0.9269667,1910
0.9286333,1760
0.9303,1763
0.9319667,1812
0.9336333,1529
0.9353,1514
0.9369667,1789
0.9386333,1751
0.9403,1516
0.9419667,1535
0.9436333,1673
0.9453,1751
0.9469666,1906
0.9486333,1998
0.9503,1940
0.9519666,2556
0.9536333,3314
0.9553,3640
0.9569666,4205
0.9586333,6410
0.9603,7572
0.9619667,9936
0.9636334,13676
0.9653,16328
0.9669667,21724
0.9686334,27508
0.9703,35104
0.9719667,42848
0.9736333,52080
0.9753,62352
0.9769667,72992
0.9786333,81152
0.9803,94464
0.9819667,104912
0.9836333,116608
0.9853,128800
0.9869667,136448
0.9886333,143680
0.9903,149952
0.9919667,155648
0.9936333,160640
0.9953,166784
0.9969667,171840
0.9986333,171264
1.0003,177536
1.001967,176192
1.003633,180672
1.0053,178624
1.006967,177216
1.008633,175744
1.0103,177344
1.011967,178880
1.013633,178304
1.0153,177728
1.016967,172480
1.018633,163840
1.0203,157824
1.021967,156032
1.023633,145024
1.0253,140608
1.026967,129632
1.028633,121424
1.0303,107728
1.031967,104576
1.033633,91696
1.0353,84048
1.036967,74016
1.038633,67232
1.0403,61296
1.041967,52224
1.043633,47488
1.0453,42160
1.046967,35616
1.048633,32104
1.0503,29764
1.051967,24404
1.053633,23096
1.0553,20196
1.056967,17540
1.058633,16596
1.0603,14396
1.061967,13524
1.063633,12064
1.0653,10732
1.066967,10372
1.068633,8864
1.0703,8340
1.071967,8280
1.073633,7558
1.0753,6850
1.076967,6578
1.078633,5453
1.0803,5434
1.081967,5178
1.083633,4440
1.0853,5181
1.086967,4061
1.088633,3991
1.0903,4008
1.091967,3368
1.093633,4009
1.0953,3268
1.096967,3278
1.098633,3316
1.1003,2776
1.101967,2796
1.103633,3121
1.1053,2618
1.106967,2686
1.108633,2749
1.1103,2398
1.111967,2462
1.113633,2274
1.1153,2101
1.116967,2155
1.118633,2197
1.1203,2187
1.121967,2072
1.123633,1956
1.1253,2050
1.126967,2143
1.128633,1914
1.1303,2114
1.131967,1835
1.133633,2146
1.1353,1633
1.136967,2024
1.138633,1904
1.1403,1610
1.141967,1720
1.143633,1567
1.1453,1599
1.146967,1717
1.148633,1811
1.1503,1359
1.151967,1557
1.153633,1627
1.1553,1550
1.156967,1649
1.158633,1689
1.1603,1728
1.161967,1483
1.163633,1552
1.1653,1355
1.166967,1297
1.168633,1374
1.1703,1551
1.171967,1574
1.173633,1491
1.1753,1264
1.176967,1269
1.178633,1479
1.1803,1561
1.181967,1409
1.183633,1192
1.1853,1146
1.186967,1128
1.188633,1392
1.1903,1325
1.191967,1230
1.193633,1134
1.1953,981
1.196967,1122
1.198633,1263
