"SampleName","A2Rd2_02-80"
"Target Mass 1",
"Column Name","IA-3 (3um, 4.6X100)"
"Channel","QDa 1: SIR Ch1"
0.00195,287
0.003616667,557
0.005283333,598
0.00695,585
0.008616666,608
0.01028333,519
0.01195,610
0.01361667,557
0.01528333,680
0.01695,621
0.01861667,623
0.02028333,626
0.02195,618
0.02361667,610
0.02528333,606
0.02695,562
0.02861667,636
0.03028333,566
0.03195,503
0.03361667,518
0.03528333,534
0.03695,543
0.03861667,539
0.04028333,535
0.04195,515
0.04361667,496
0.04528333,546
0.04695,517
0.04861667,539
0.05028334,570
0.05195,602
0.05361667,605
0.05528333,609
0.05695,484
0.05861667,484
0.06028333,559
0.06195,576
0.06361666,514
0.06528334,483
0.06695,525
0.06861667,495
0.07028333,496
0.07195,619
0.07361667,599
0.07528333,586
0.07695,428
0.07861666,543
0.08028334,552
0.08195,561
0.08361667,515
0.08528333,483
0.08695,581
0.08861667,439
0.09028333,589
0.09195,652
0.09361666,666
0.09528334,561
0.09695,465
0.09861667,629
0.1002833,549
0.10195,470
0.1036167,547
0.1052833,557
0.10695,639
0.1086167,676
0.1102833,412
0.11195,664
0.1136167,537
0.1152833,595
0.11695,620
0.1186167,567
0.1202833,591
0.12195,506
0.1236167,586
0.1252833,632
0.12695,609
0.1286167,517
0.1302833,685
0.13195,648
0.1336167,469
0.1352833,557
0.13695,678
0.1386167,423
0.1402833,541
0.14195,535
0.1436167,510
0.1452833,484
0.14695,594
0.1486167,593
0.1502833,591
0.15195,629
0.1536167,510
0.1552833,572
0.15695,579
0.1586167,540
0.1602833,580
0.16195,475
0.1636167,535
0.1652833,594
0.16695,443
0.1686167,624
0.1702833,451
0.17195,560
0.1736167,620
0.1752833,453
0.17695,551
0.1786167,443
0.1802833,575
0.18195,529
0.1836167,529
0.1852833,579
0.18695,543
0.1886167,508
0.1902833,369
0.19195,607
0.1936167,526
0.1952833,572
0.19695,364
0.1986167,534
0.2002833,539
0.20195,542
0.2036167,520
0.2052833,497
0.20695,483
0.2086167,452
0.2102833,496
0.21195,469
0.2136167,442
0.2152833,510
0.21695,482
0.2186167,454
0.2202833,433
0.22195,413
0.2236167,516
0.2252833,498
0.22695,480
0.2286167,503
0.2302833,483
0.23195,463
0.2336167,444
0.2353,454
0.23695,489
0.2386167,523
0.2403,515
0.24195,438
0.2436167,503
0.2453,473
0.24695,443
0.2486167,413
0.2503,441
0.25195,468
0.2536167,584
0.2552833,611
0.25695,476
0.2586167,415
0.2602833,582
0.26195,553
0.2636333,567
0.2652833,499
0.26695,602
0.2686167,507
0.2702833,510
0.27195,467
0.2736167,521
0.2752833,458
0.27695,480
0.2786167,501
0.2803,418
0.28195,393
0.2836167,368
0.2852833,715
0.28695,683
0.2886167,642
0.2902833,635
0.29195,615
0.2936167,590
0.2952833,523
0.29695,507
0.2986333,374
0.3003,612
0.30195,589
0.3036167,410
0.3052833,563
0.3069667,497
0.3086167,628
0.3102833,623
0.31195,593
0.3136167,555
0.3153,583
0.31695,553
0.3186167,624
0.3202833,696
0.32195,393
0.3236333,706
0.3252833,839
0.32695,706
0.3286167,555
0.3302833,543
0.3319667,682
0.3336333,629
0.3352833,592
0.3369667,609
0.3386167,611
0.3403,578
0.34195,547
0.3436167,443
0.3452833,552
0.34695,499
0.3486333,445
0.3503,703
0.35195,739
0.3536333,532
0.3552833,597
0.3569667,361
0.3586167,568
0.3603,528
0.3619667,680
0.3636333,883
0.3653,1222
0.3669667,1840
0.3686333,2279
0.3703,2885
0.3719667,3305
0.3736333,3101
0.3752833,3241
0.3769667,3195
0.3786167,3365
0.3803,3932
0.3819667,3978
0.3836333,3737
0.3853,3792
0.3869667,3709
0.3886333,2881
0.3903,2825
0.3919667,2331
0.3936333,2063
0.3953,1576
0.3969667,1459
0.3986333,1537
0.4003,1146
0.4019667,1465
0.4036333,1343
0.4053,1170
0.4069667,1051
0.4086333,1274
0.4103,1522
0.4119667,1585
0.4136333,1513
0.4153,1399
0.4169667,1180
0.4186333,1470
0.4203,1509
0.4219667,1605
0.4236333,1533
0.4253,1460
0.4269667,1424
0.4286333,1760
0.4303,1819
0.4319667,2127
0.4336333,2521
0.4353,3375
0.4369667,4428
0.4386333,8400
0.4403,12524
0.4419667,20532
0.4436333,30568
0.4453,43168
0.4469667,59632
0.4486333,74880
0.4503,92480
0.4519667,109376
0.4536333,122992
0.4553,133120
0.4569667,146624
0.4586333,153728
0.4603,159168
0.4619667,158720
0.4636333,161920
0.4653,156672
0.4669667,160000
0.4686333,164480
0.4703,164416
0.4719667,167168
0.4736333,174080
0.4753,181056
0.4769667,184832
0.4786333,188992
0.4803,187072
0.4819667,186688
0.4836333,171008
0.4853,160384
0.4869667,147968
0.4886333,131520
0.4903,115104
0.4919667,99008
0.4936333,84576
0.4953,70752
0.4969667,58960
0.4986333,49424
0.5003,39328
0.5019667,32960
0.5036333,26316
0.5053,20976
0.5069667,17784
0.5086333,14452
0.5103,12740
0.5119666,10404
0.5136333,8916
0.5153,8208
0.5169666,7028
0.5186333,6036
0.5203,5280
0.5219667,4538
0.5236334,4481
0.5253,4214
0.5269667,3862
0.5286334,3774
0.5303,3617
0.5319667,3182
0.5336334,3249
0.5353,3091
0.5369667,2996
0.5386333,2850
0.5403,2543
0.5419667,2522
0.5436333,2523
0.5453,2332
0.5469667,2493
0.5486333,2156
0.5503,2167
0.5519667,2221
0.5536333,1722
0.5553,2400
0.5569667,2212
0.5586333,1794
0.5603,1652
0.5619667,1761
0.5636333,1550
0.5653,1649
0.5669667,1747
0.5686333,1591
0.5703,1610
0.5719666,1524
0.5736333,1495
0.5753,1554
0.5769666,1397
0.5786333,1561
0.5803,1511
0.5819666,1222
0.5836333,1504
0.5853,1170
0.5869667,1507
0.5886334,1394
0.5903,1330
0.5919667,1515
0.5936334,1397
0.5953,1473
0.5969667,1679
0.5986333,1221
0.6003,1544
0.6019667,1456
0.6036333,1625
0.6053,1530
0.6069667,1396
0.6086333,1279
0.6103,1379
0.6119667,1126
0.6136333,1422
0.6153,1428
0.6169667,1181
0.6186333,1390
0.6203,1253
0.6219667,1365
0.6236333,1406
0.6253,1353
0.6269667,1197
0.6286333,1124
0.6303,1047
0.6319667,1170
0.6336333,1231
0.6353,1291
0.6369666,1162
0.6386333,1066
0.6403,998
0.6419666,1023
0.6436333,1065
0.6453,974
0.6469667,916
0.6486334,979
0.6503,895
0.6519667,909
0.6536334,918
0.6553,1105
0.6569667,1085
0.6586334,925
0.6603,894
0.6619667,1026
0.6636333,1033
0.6653,764
0.6669667,779
0.6686333,971
0.6703,882
0.6719667,771
0.6736333,716
0.6753,835
0.6769667,695
0.6786333,709
0.6803,759
0.6819667,836
0.6836333,793
0.6853,861
0.6869667,842
0.6886333,902
0.6903,874
0.6919667,780
0.6936333,875
0.6953,735
0.6969666,842
0.6986333,707
0.7003,764
0.7019666,731
0.7036333,668
0.7053,735
0.7069666,847
0.7086333,855
0.7103,773
0.7119667,760
0.7136334,864
0.7153,657
0.7169667,655
0.7186334,849
0.7203,754
0.7219667,679
0.7236333,720
0.7253,736
0.7269667,753
0.7286333,639
0.7303,690
0.7319667,741
0.7336333,717
0.7353,742
0.7369667,768
0.7386333,694
0.7403,699
0.7419667,704
0.7436333,715
0.7453,762
0.7469667,762
0.7486333,761
0.7503,741
0.7519667,692
0.7536333,725
0.7553,640
0.7569667,671
0.7586333,780
0.7603,760
0.7619666,824
0.7636333,647
0.7653,639
0.7669666,674
0.7686333,673
0.7703,672
0.7719667,609
0.7736334,628
0.7753,662
0.7769667,626
0.7786334,590
0.7803,677
0.7819667,717
0.7836334,757
0.7853,683
0.7869667,593
0.7886333,809
0.7903,662
0.7919667,762
0.7936333,794
0.7953,611
0.7969667,635
0.7986333,775
0.8003,559
0.8019667,626
0.8036333,613
0.8053,601
0.8069667,612
0.8086333,623
0.8103,629
0.8119667,634
0.8136333,685
0.8153,805
0.8169667,820
0.8186333,576
0.8203,704
0.8219666,712
0.8236333,648
0.8253,668
0.8269666,652
0.8286333,640
0.8303,628
0.8319666,685
0.8336333,681
0.8353,677
0.8369667,547
0.8386334,575
0.8403,536
0.8419667,630
0.8436334,646
0.8453,661
0.8469667,601
0.8486333,592
0.8503,481
0.8519667,571
0.8536333,782
0.8553,780
0.8569667,690
0.8586333,602
0.8603,819
0.8619667,756
0.8636333,610
0.8653,551
0.8669667,713
0.8686333,532
0.8703,652
0.8719667,725
0.8736333,678
0.8753,707
0.8769667,714
0.8786333,599
0.8803,1052
0.8819667,1184
0.8836333,1315
0.8853,1645
0.8869666,1842
0.8886333,1840
0.8903,1688
0.8919666,1885
0.8936333,1904
0.8953,1924
0.8969667,1940
0.8986334,2167
0.9003,2109
0.9019667,2181
0.9036334,1983
0.9053,2208
0.9069667,2191
0.9086334,2233
0.9103,2057
0.9119667,1898
0.9136333,2083
0.9153,2146
0.9169667,2209
0.9186333,1928
0.9203,1936
0.9219667,2057
0.9236333,2055
0.9253,2088
0.9269667,2036
0.9286333,2153
0.9303,2082
0.9319667,2010
0.9336333,2071
0.9353,2108
0.9369667,1956
0.9386333,2019
0.9403,1967
0.9419667,1928
0.9436333,1613
0.9453,1809
0.9469666,1621
0.9486333,1640
0.9503,1828
0.9519666,1657
0.9536333,1602
0.9553,1647
0.9569666,1511
0.9586333,1305
0.9603,1376
0.9619667,1276
0.9636334,1176
0.9653,1272
0.9669667,1077
0.9686334,1036
0.9703,951
0.9719667,977
0.9736333,885
0.9753,819
0.9769667,990
0.9786333,786
0.9803,834
0.9819667,690
0.9836333,885
0.9853,748
0.9869667,734
0.9886333,598
0.9903,578
0.9919667,731
0.9936333,639
0.9953,562
0.9969667,502
0.9986333,625
1.0003,621
1.001967,441
1.003633,578
1.0053,616
1.006967,495
1.008633,588
1.0103,568
1.011967,456
1.013633,477
1.0153,441
1.016967,572
1.018633,548
1.0203,523
1.021967,572
1.023633,506
1.0253,606
1.026967,466
1.028633,621
1.0303,503
1.031967,491
1.033633,564
1.0353,523
1.036967,537
1.038633,554
1.0403,570
1.041967,484
1.043633,374
1.0453,480
1.046967,613
1.048633,558
1.0503,450
1.051967,554
1.053633,562
1.0553,587
1.056967,677
1.058633,392
1.0603,648
1.061967,681
1.063633,423
1.0653,484
1.066967,539
1.068633,594
1.0703,541
1.071967,469
1.073633,447
1.0753,619
1.076967,522
1.078633,425
1.0803,557
1.081967,403
1.083633,559
1.0853,525
1.086967,622
1.088633,576
1.0903,572
1.091967,541
1.093633,442
1.0953,517
1.096967,532
1.098633,575
1.1003,462
1.101967,623
1.103633,559
1.1053,564
1.106967,532
1.108633,521
1.1103,576
1.111967,477
1.113633,505
1.1153,576
1.116967,490
1.118633,500
1.1203,563
1.121967,625
1.123633,586
1.1253,547
1.126967,542
1.128633,489
1.1303,518
1.131967,513
1.133633,474
1.1353,502
1.136967,489
1.138633,495
1.1403,501
1.141967,556
1.143633,583
1.1453,573
1.146967,588
1.148633,525
1.1503,556
1.151967,383
1.153633,497
1.1553,670
1.156967,618
1.158633,665
1.1603,431
1.161967,519
1.163633,435
1.1653,523
1.166967,560
1.168633,581
1.1703,615
1.171967,646
1.173633,517
1.1753,658
1.176967,324
1.178633,530
1.1803,485
1.181967,539
1.183633,555
1.1853,572
1.186967,580
1.188633,600
1.1903,619
1.191967,442
1.193633,587
1.1953,501
1.196967,629
1.198633,529
