"SampleName","A2Rd2_02-64"
"Target Mass 1",
"Column Name","IA-3 (3um, 4.6X100)"
"Channel","QDa 1: SIR Ch1"
0.00195,367
0.003616667,500
0.005283333,475
0.00695,609
0.008616666,541
0.01028333,491
0.01195,585
0.01361667,542
0.01528333,526
0.01695,476
0.01861667,427
0.02028333,458
0.02195,490
0.02361667,493
0.02528333,496
0.02695,663
0.02861667,647
0.03028333,498
0.03195,528
0.03361667,664
0.03528333,648
0.03695,540
0.03861667,669
0.04028333,631
0.04195,497
0.04361667,446
0.04528333,561
0.04695,520
0.04861667,579
0.05028334,492
0.05195,530
0.05361667,489
0.05528333,464
0.05695,513
0.05861667,418
0.06028333,561
0.06195,499
0.06361666,515
0.06528334,478
0.06695,501
0.06861667,395
0.07028333,557
0.07195,469
0.07361667,500
0.07528333,375
0.07695,483
0.07861666,528
0.08028334,526
0.08195,523
0.08361667,544
0.08528333,513
0.08695,482
0.08861667,529
0.09028333,525
0.09195,521
0.09361666,615
0.09528334,411
0.09695,497
0.09861667,595
0.1002833,598
0.10195,609
0.1036167,524
0.1052833,430
0.10695,519
0.1086167,516
0.1102833,504
0.11195,573
0.1136167,566
0.1152833,560
0.11695,561
0.1186167,504
0.1202833,597
0.12195,593
0.1236167,529
0.1252833,563
0.12695,555
0.1286167,483
0.1302833,526
0.13195,612
0.1336167,594
0.1352833,473
0.13695,623
0.1386167,511
0.1402833,586
0.14195,407
0.1436167,586
0.1452833,588
0.14695,548
0.1486167,467
0.1502833,466
0.15195,466
0.1536167,469
0.1552833,456
0.15695,443
0.1586167,442
0.1602833,441
0.16195,533
0.1636167,657
0.1652833,727
0.16695,545
0.1686167,728
0.1702833,620
0.17195,552
0.1736167,621
0.1752833,616
0.17695,466
0.1786167,425
0.1802833,526
0.18195,466
0.1836167,406
0.1852833,451
0.18695,496
0.1886167,451
0.1902833,561
0.19195,593
0.1936167,538
0.1952833,483
0.19695,586
0.1986167,505
0.2002833,504
0.20195,475
0.2036167,447
0.2052833,463
0.20695,480
0.2086167,505
0.2102833,569
0.21195,555
0.2136167,431
0.2152833,476
0.21695,535
0.2186167,595
0.2202833,554
0.22195,565
0.2236167,403
0.2252833,572
0.22695,544
0.2286333,665
0.2302833,397
0.23195,584
0.2336167,383
0.2352833,404
0.23695,424
0.2386333,351
0.2402833,561
0.24195,679
0.2436167,562
0.2453,461
0.24695,492
0.2486167,625
0.2502833,572
0.25195,480
0.2536167,603
0.2552833,604
0.25695,389
0.2586167,421
0.2602833,576
0.26195,534
0.2636333,425
0.2652833,585
0.2669667,529
0.2686167,612
0.2703,602
0.27195,540
0.2736167,433
0.2752833,555
0.27695,481
0.2786167,568
0.2803,608
0.28195,511
0.2836167,454
0.2852833,537
0.2869667,569
0.2886333,473
0.2902833,579
0.29195,603
0.2936167,551
0.2952833,570
0.29695,588
0.2986333,594
0.3002833,757
0.3019667,345
0.3036167,545
0.3052833,554
0.30695,521
0.3086167,499
0.3103,477
0.31195,577
0.3136167,576
0.3153,575
0.3169667,578
0.3186333,580
0.3203,559
0.3219667,539
0.3236167,540
0.3253,541
0.32695,540
0.3286333,540
0.3302833,605
0.3319667,646
0.3336333,607
0.3353,615
0.3369667,522
0.3386333,568
0.3403,484
0.3419667,492
0.3436167,500
0.3453,500
0.34695,500
0.3486333,461
0.3503,492
0.3519667,524
0.3536333,560
0.3553,579
0.3569667,583
0.3586333,525
0.3603,663
0.3619667,781
0.3636333,881
0.3653,1113
0.3669667,1731
0.3686333,2881
0.3703,3620
0.3719667,3593
0.3736333,4243
0.3753,3917
0.3769667,4510
0.3786333,4639
0.3803,5168
0.3819667,5486
0.3836333,5153
0.3853,4412
0.3869667,3951
0.3886333,3445
0.3903,2662
0.3919667,2171
0.3936333,1768
0.3953,1460
0.3969667,1475
0.3986333,1300
0.4003,1208
0.4019667,1222
0.4036333,1244
0.4053,1258
0.4069667,1273
0.4086333,1189
0.4103,1199
0.4119667,1138
0.4136333,1077
0.4153,1239
0.4169667,1401
0.4186333,1407
0.4203,1283
0.4219667,1475
0.4236333,1400
0.4253,1367
0.4269667,1691
0.4286333,1646
0.4303,1619
0.4319667,1856
0.4336333,2633
0.4353,2693
0.4369667,4141
0.4386333,6645
0.4403,9324
0.4419667,15232
0.4436333,22100
0.4453,33600
0.4469667,44320
0.4486333,59088
0.4503,73616
0.4519667,90496
0.4536333,105680
0.4553,113808
0.4569667,123520
0.4586333,131968
0.4603,137408
0.4619667,140224
0.4636333,140416
0.4653,141952
0.4669667,144064
0.4686333,146048
0.4703,152832
0.4719667,154688
0.4736333,161728
0.4753,165440
0.4769667,174080
0.4786333,175872
0.4803,175744
0.4819667,174848
0.4836333,164864
0.4853,152704
0.4869667,137600
0.4886333,123936
0.4903,108544
0.4919667,90752
0.4936333,78448
0.4953,64928
0.4969667,52832
0.4986333,43088
0.5003,36368
0.5019667,27316
0.5036333,22656
0.5053,19556
0.5069667,15296
0.5086333,12812
0.5103,10084
0.5119666,8784
0.5136333,7735
0.5153,6885
0.5169666,5696
0.5186333,4892
0.5203,5128
0.5219667,4433
0.5236334,3897
0.5253,3884
0.5269667,3471
0.5286334,3389
0.5303,3319
0.5319667,3329
0.5336334,2706
0.5353,3151
0.5369667,2534
0.5386333,2501
0.5403,2432
0.5419667,2453
0.5436333,2456
0.5453,2504
0.5469667,2380
0.5486333,2116
0.5503,2261
0.5519667,1971
0.5536333,2127
0.5553,1812
0.5569667,1578
0.5586333,1701
0.5603,1833
0.5619667,1702
0.5636333,1665
0.5653,1476
0.5669667,1443
0.5686333,1458
0.5703,1429
0.5719666,1611
0.5736333,1627
0.5753,1514
0.5769666,1463
0.5786333,1383
0.5803,1398
0.5819666,904
0.5836333,1302
0.5853,1270
0.5869667,1340
0.5886334,1354
0.5903,1339
0.5919667,1345
0.5936334,1279
0.5953,1333
0.5969667,1291
0.5986333,1216
0.6003,1088
0.6019667,1311
0.6036333,1304
0.6053,1297
0.6069667,1179
0.6086333,1385
0.6103,1377
0.6119667,1218
0.6136333,1305
0.6153,1363
0.6169667,1301
0.6186333,1146
0.6203,1228
0.6219667,1219
0.6236333,1157
0.6253,1319
0.6269667,1373
0.6286333,1090
0.6303,1133
0.6319667,935
0.6336333,1157
0.6353,923
0.6369666,986
0.6386333,1111
0.6403,936
0.6419666,1166
0.6436333,909
0.6453,797
0.6469667,803
0.6486334,909
0.6503,912
0.6519667,819
0.6536334,1005
0.6553,763
0.6569667,764
0.6586334,869
0.6603,857
0.6619667,834
0.6636333,929
0.6653,727
0.6669667,708
0.6686333,887
0.6703,718
0.6719667,754
0.6736333,770
0.6753,789
0.6769667,795
0.6786333,802
0.6803,589
0.6819667,753
0.6836333,783
0.6853,815
0.6869667,700
0.6886333,637
0.6903,766
0.6919667,724
0.6936333,831
0.6953,644
0.6969666,799
0.6986333,712
0.7003,680
0.7019666,782
0.7036333,743
0.7053,828
0.7069666,831
0.7086333,685
0.7103,701
0.7119667,652
0.7136334,690
0.7153,678
0.7169667,666
0.7186334,627
0.7203,716
0.7219667,758
0.7236333,705
0.7253,787
0.7269667,594
0.7286333,704
0.7303,717
0.7319667,685
0.7336333,571
0.7353,579
0.7369667,615
0.7386333,652
0.7403,623
0.7419667,712
0.7436333,763
0.7453,750
0.7469667,717
0.7486333,522
0.7503,583
0.7519667,765
0.7536333,750
0.7553,774
0.7569667,706
0.7586333,829
0.7603,650
0.7619666,709
0.7636333,547
0.7653,801
0.7669666,715
0.7686333,762
0.7703,714
0.7719667,689
0.7736334,664
0.7753,683
0.7769667,684
0.7786334,521
0.7803,592
0.7819667,687
0.7836334,711
0.7853,538
0.7869667,711
0.7886333,522
0.7903,677
0.7919667,533
0.7936333,530
0.7953,775
0.7969667,700
0.7986333,572
0.8003,504
0.8019667,458
0.8036333,473
0.8053,652
0.8069667,622
0.8086333,727
0.8103,574
0.8119667,739
0.8136333,663
0.8153,575
0.8169667,707
0.8186333,517
0.8203,719
0.8219666,602
0.8236333,757
0.8253,766
0.8269666,672
0.8286333,569
0.8303,535
0.8319666,550
0.8336333,609
0.8353,643
0.8369667,673
0.8386334,590
0.8403,725
0.8419667,556
0.8436334,559
0.8453,558
0.8469667,457
0.8486333,620
0.8503,703
0.8519667,688
0.8536333,661
0.8553,629
0.8569667,661
0.8586333,653
0.8603,511
0.8619667,620
0.8636333,536
0.8653,496
0.8669667,586
0.8686333,547
0.8703,507
0.8719667,532
0.8736333,568
0.8753,624
0.8769667,719
0.8786333,952
0.8803,1289
0.8819667,1160
0.8836333,1491
0.8853,1487
0.8869666,1636
0.8886333,1690
0.8903,1804
0.8919666,1759
0.8936333,1873
0.8953,1873
0.8969667,1775
0.8986334,1710
0.9003,1983
0.9019667,2085
0.9036334,1966
0.9053,1899
0.9069667,1831
0.9086334,1743
0.9103,1739
0.9119667,1899
0.9136333,1918
0.9153,2044
0.9169667,2066
0.9186333,1746
0.9203,1757
0.9219667,2025
0.9236333,1851
0.9253,1755
0.9269667,1658
0.9286333,1891
0.9303,1714
0.9319667,1869
0.9336333,1648
0.9353,1988
0.9369667,1981
0.9386333,1747
0.9403,1999
0.9419667,1615
0.9436333,1503
0.9453,1544
0.9469666,1555
0.9486333,1463
0.9503,1371
0.9519666,1670
0.9536333,1213
0.9553,1260
0.9569666,1542
0.9586333,1195
0.9603,1097
0.9619667,1253
0.9636334,1233
0.9653,1122
0.9669667,948
0.9686334,1215
0.9703,874
0.9719667,1103
0.9736333,851
0.9753,798
0.9769667,752
0.9786333,917
0.9803,900
0.9819667,726
0.9836333,664
0.9853,579
0.9869667,734
0.9886333,680
0.9903,592
0.9919667,457
0.9936333,512
0.9953,458
0.9969667,650
0.9986333,642
1.0003,526
1.001967,726
1.003633,628
1.0053,483
1.006967,579
1.008633,500
1.0103,441
1.011967,514
1.013633,488
1.0153,516
1.016967,362
1.018633,396
1.0203,431
1.021967,545
1.023633,585
1.0253,433
1.026967,480
1.028633,484
1.0303,549
1.031967,550
1.033633,462
1.0353,483
1.036967,566
1.038633,514
1.0403,484
1.041967,453
1.043633,493
1.0453,438
1.046967,440
1.048633,420
1.0503,453
1.051967,487
1.053633,466
1.0553,465
1.056967,546
1.058633,549
1.0603,566
1.061967,431
1.063633,412
1.0653,503
1.066967,495
1.068633,513
1.0703,529
1.071967,465
1.073633,401
1.0753,506
1.076967,431
1.078633,504
1.0803,410
1.081967,424
1.083633,492
1.0853,441
1.086967,541
1.088633,552
1.0903,545
1.091967,528
1.093633,566
1.0953,603
1.096967,599
1.098633,437
1.1003,671
1.101967,662
1.103633,414
1.1053,480
1.106967,621
1.108633,517
1.1103,511
1.111967,488
1.113633,492
1.1153,429
1.116967,413
1.118633,419
1.1203,426
1.121967,538
1.123633,553
1.1253,551
1.126967,563
1.128633,547
1.1303,530
1.131967,569
1.133633,609
1.1353,454
1.136967,451
1.138633,462
1.1403,450
1.141967,334
1.143633,352
1.1453,405
1.146967,459
1.148633,558
1.1503,606
1.151967,346
1.153633,563
1.1553,481
1.156967,625
1.158633,493
1.1603,497
1.161967,416
1.163633,500
1.1653,528
1.166967,450
1.168633,373
1.1703,510
1.171967,518
1.173633,553
1.1753,535
1.176967,518
1.178633,521
1.1803,513
1.181967,550
1.183633,537
1.1853,523
1.186967,558
1.188633,594
1.1903,382
1.191967,661
1.193633,527
1.1953,575
1.196967,626
1.198633,629
