"SampleName","A2Rd2_02-74"
"Target Mass 1",
"Column Name","IA-3 (3um, 4.6X100)"
"Channel","QDa 1: SIR Ch1"
0.00195,332
0.003616667,695
0.005283333,500
0.00695,540
0.008616666,683
0.01028333,528
0.01195,563
0.01361667,542
0.01528333,636
0.01695,630
0.01861667,624
0.02028333,556
0.02195,667
0.02361667,492
0.02528333,639
0.02695,577
0.02861667,660
0.03028333,453
0.03195,598
0.03361667,526
0.03528333,566
0.03695,572
0.03861667,516
0.04028333,601
0.04195,468
0.04361667,571
0.04528333,555
0.04695,432
0.04861667,538
0.05028334,477
0.05195,488
0.05361667,575
0.05528333,557
0.05695,477
0.05861667,548
0.06028333,615
0.06195,625
0.06361666,595
0.06528334,595
0.06695,606
0.06861667,616
0.07028333,615
0.07195,603
0.07361667,582
0.07528333,429
0.07695,503
0.07861666,564
0.08028334,534
0.08195,558
0.08361667,509
0.08528333,461
0.08695,576
0.08861667,513
0.09028333,480
0.09195,629
0.09361666,573
0.09528334,518
0.09695,501
0.09861667,516
0.1002833,452
0.10195,612
0.1036167,569
0.1052833,473
0.10695,642
0.1086167,473
0.1102833,561
0.11195,509
0.1136167,557
0.1152833,520
0.11695,547
0.1186167,513
0.1202833,491
0.12195,469
0.1236167,422
0.1252833,375
0.12695,572
0.1286167,553
0.1302833,512
0.13195,550
0.1336167,477
0.1352833,437
0.13695,561
0.1386167,506
0.1402833,450
0.14195,440
0.1436167,430
0.1452833,648
0.14695,647
0.1486167,479
0.1502833,442
0.15195,547
0.1536167,358
0.1552833,439
0.15695,405
0.1586167,510
0.1602833,491
0.16195,472
0.1636167,305
0.1652833,468
0.16695,675
0.1686167,652
0.1702833,580
0.17195,422
0.1736167,737
0.1752833,574
0.17695,425
0.1786167,547
0.1802833,530
0.18195,435
0.1836167,440
0.1852833,444
0.18695,466
0.1886167,488
0.1902833,465
0.19195,442
0.1936167,525
0.1952833,507
0.19695,561
0.1986167,576
0.2002833,548
0.20195,459
0.2036167,449
0.2052833,439
0.20695,452
0.2086167,315
0.2102833,591
0.21195,494
0.2136167,626
0.2152833,438
0.21695,520
0.2186167,641
0.2202833,603
0.22195,578
0.2236167,696
0.2252833,521
0.22695,585
0.2286167,511
0.2302833,588
0.23195,531
0.2336167,525
0.2352833,603
0.23695,451
0.2386167,607
0.2402833,444
0.24195,582
0.2436167,583
0.2452833,568
0.24695,568
0.2486167,474
0.2502833,446
0.25195,554
0.2536167,530
0.2552833,512
0.25695,522
0.2586167,533
0.2602833,504
0.26195,504
0.2636167,505
0.2652833,478
0.26695,451
0.2686167,347
0.2702833,592
0.27195,602
0.2736167,542
0.2752833,525
0.2769667,513
0.2786167,501
0.2803,479
0.28195,564
0.2836167,476
0.2852833,389
0.28695,486
0.2886167,629
0.2902833,582
0.29195,643
0.2936167,698
0.2952833,430
0.29695,612
0.2986333,643
0.3002833,454
0.30195,583
0.3036167,504
0.3052833,623
0.30695,620
0.3086167,579
0.3102833,439
0.31195,590
0.3136167,543
0.3153,624
0.31695,444
0.3186167,478
0.3202833,491
0.32195,451
0.3236167,661
0.3252833,631
0.32695,514
0.3286167,715
0.3302833,549
0.33195,533
0.3336333,707
0.3353,578
0.3369667,521
0.3386333,556
0.3402833,500
0.34195,503
0.3436167,542
0.3452833,581
0.3469667,563
0.3486167,537
0.3503,511
0.35195,558
0.3536333,517
0.3553,518
0.35695,527
0.3586167,579
0.3603,607
0.3619667,674
0.3636167,871
0.3653,1108
0.36695,1738
0.3686333,2740
0.3703,2666
0.3719667,3478
0.3736167,3625
0.3752833,3415
0.37695,3595
0.3786333,3776
0.3803,4288
0.3819667,5020
0.3836333,4595
0.3853,4721
0.3869667,4116
0.3886333,3361
0.3902833,2750
0.39195,2519
0.3936167,2086
0.3953,1568
0.39695,1526
0.3986333,1283
0.4003,1212
0.40195,896
0.4036333,963
0.4052833,1018
0.4069667,994
0.4086167,886
0.4103,964
0.4119667,893
0.4136333,785
0.4153,846
0.4169667,762
0.4186333,840
0.4203,829
0.4219667,819
0.4236333,913
0.4253,893
0.4269667,896
0.4286333,983
0.4303,1009
0.4319667,1422
0.4336333,1655
0.4353,2735
0.4369667,4480
0.4386333,6811
0.4403,12276
0.4419667,18784
0.4436333,30068
0.4453,43760
0.4469667,60272
0.4486333,78816
0.4503,97840
0.4519667,119568
0.4536333,133376
0.4553,150912
0.4569667,166656
0.4586333,175744
0.4603,183680
0.4619667,187136
0.4636333,192704
0.4653,192576
0.4669667,192768
0.4686333,197440
0.4703,199040
0.4719667,203840
0.4736333,211456
0.4753,222656
0.4769667,223936
0.4786333,228800
0.4803,228672
0.4819667,226304
0.4836333,217920
0.4853,202368
0.4869667,191616
0.4886333,172160
0.4903,154112
0.4919667,136000
0.4936333,116064
0.4953,99488
0.4969667,86016
0.4986333,70464
0.5003,58624
0.5019667,48288
0.5036333,39424
0.5053,31664
0.5069667,25948
0.5086333,21116
0.5103,16892
0.5119666,13760
0.5136333,12444
0.5153,10800
0.5169666,8804
0.5186333,8336
0.5203,7105
0.5219667,5856
0.5236334,5486
0.5253,5076
0.5269667,4690
0.5286334,4204
0.5303,4174
0.5319667,3747
0.5336334,3330
0.5353,2961
0.5369667,3217
0.5386333,3007
0.5403,2813
0.5419667,3045
0.5436333,2641
0.5453,2629
0.5469667,2670
0.5486333,2498
0.5503,2125
0.5519667,2179
0.5536333,2178
0.5553,2107
0.5569667,2037
0.5586333,1844
0.5603,1681
0.5619667,1853
0.5636333,1588
0.5653,1954
0.5669667,1779
0.5686333,1738
0.5703,1766
0.5719666,1603
0.5736333,1620
0.5753,1583
0.5769666,1582
0.5786333,1382
0.5803,1552
0.5819666,1531
0.5836333,1455
0.5853,1473
0.5869667,1532
0.5886334,1170
0.5903,1338
0.5919667,1490
0.5936334,1222
0.5953,1474
0.5969667,1380
0.5986333,1279
0.6003,1322
0.6019667,1205
0.6036333,1359
0.6053,1222
0.6069667,1357
0.6086333,1129
0.6103,1004
0.6119667,1145
0.6136333,1144
0.6153,1144
0.6169667,1186
0.6186333,1228
0.6203,1049
0.6219667,1185
0.6236333,1072
0.6253,959
0.6269667,1222
0.6286333,1113
0.6303,1151
0.6319667,1202
0.6336333,1112
0.6353,1226
0.6369666,992
0.6386333,1021
0.6403,948
0.6419666,929
0.6436333,910
0.6453,818
0.6469667,785
0.6486334,950
0.6503,849
0.6519667,747
0.6536334,796
0.6553,1037
0.6569667,1232
0.6586334,1034
0.6603,874
0.6619667,895
0.6636333,884
0.6653,963
0.6669667,927
0.6686333,892
0.6703,888
0.6719667,883
0.6736333,870
0.6753,819
0.6769667,794
0.6786333,770
0.6803,648
0.6819667,757
0.6836333,684
0.6853,954
0.6869667,894
0.6886333,698
0.6903,708
0.6919667,745
0.6936333,920
0.6953,870
0.6969666,853
0.6986333,761
0.7003,849
0.7019666,791
0.7036333,866
0.7053,717
0.7069666,817
0.7086333,838
0.7103,774
0.7119667,857
0.7136334,888
0.7153,888
0.7169667,846
0.7186334,800
0.7203,786
0.7219667,786
0.7236333,701
0.7253,748
0.7269667,783
0.7286333,732
0.7303,733
0.7319667,733
0.7336333,707
0.7353,809
0.7369667,778
0.7386333,748
0.7403,914
0.7419667,883
0.7436333,862
0.7453,755
0.7469667,707
0.7486333,765
0.7503,675
0.7519667,678
0.7536333,677
0.7553,677
0.7569667,698
0.7586333,727
0.7603,862
0.7619666,974
0.7636333,1042
0.7653,894
0.7669666,693
0.7686333,732
0.7703,869
0.7719667,705
0.7736334,787
0.7753,682
0.7769667,762
0.7786334,826
0.7803,819
0.7819667,687
0.7836334,828
0.7853,704
0.7869667,828
0.7886333,768
0.7903,777
0.7919667,721
0.7936333,612
0.7953,735
0.7969667,792
0.7986333,635
0.8003,735
0.8019667,758
0.8036333,782
0.8053,689
0.8069667,813
0.8086333,800
0.8103,787
0.8119667,766
0.8136333,744
0.8153,773
0.8169667,801
0.8186333,807
0.8203,785
0.8219666,785
0.8236333,751
0.8253,716
0.8269666,701
0.8286333,920
0.8303,945
0.8319666,651
0.8336333,697
0.8353,839
0.8369667,708
0.8386334,883
0.8403,799
0.8419667,966
0.8436334,833
0.8453,684
0.8469667,765
0.8486333,815
0.8503,788
0.8519667,761
0.8536333,763
0.8553,795
0.8569667,672
0.8586333,686
0.8603,736
0.8619667,718
0.8636333,700
0.8653,612
0.8669667,710
0.8686333,709
0.8703,721
0.8719667,593
0.8736333,701
0.8753,857
0.8769667,857
0.8786333,1078
0.8803,1441
0.8819667,1649
0.8836333,2013
0.8853,2268
0.8869666,2472
0.8886333,2773
0.8903,2560
0.8919666,2459
0.8936333,3002
0.8953,3109
0.8969667,2439
0.8986334,2893
0.9003,2977
0.9019667,2897
0.9036334,2887
0.9053,2460
0.9069667,2745
0.9086334,2640
0.9103,2775
0.9119667,2769
0.9136333,2764
0.9153,2774
0.9169667,2772
0.9186333,2770
0.9203,2774
0.9219667,2656
0.9236333,2708
0.9253,2618
0.9269667,2632
0.9286333,2765
0.9303,2719
0.9319667,2673
0.9336333,2727
0.9353,2484
0.9369667,2336
0.9386333,2627
0.9403,2298
0.9419667,2321
0.9436333,2093
0.9453,2278
0.9469666,2298
0.9486333,2178
0.9503,2235
0.9519666,2026
0.9536333,1951
0.9553,2124
0.9569666,1919
0.9586333,1609
0.9603,1614
0.9619667,1724
0.9636334,1565
0.9653,1536
0.9669667,1259
0.9686334,1088
0.9703,1212
0.9719667,1123
0.9736333,979
0.9753,960
0.9769667,1112
0.9786333,1017
0.9803,802
0.9819667,837
0.9836333,826
0.9853,877
0.9869667,656
0.9886333,770
0.9903,709
0.9919667,715
0.9936333,645
0.9953,704
0.9969667,482
0.9986333,640
1.0003,536
1.001967,484
1.003633,523
1.0053,547
1.006967,571
1.008633,500
1.0103,496
1.011967,416
1.013633,335
1.0153,401
1.016967,467
1.018633,600
1.0203,559
1.021967,641
1.023633,626
1.0253,604
1.026967,514
1.028633,465
1.0303,501
1.031967,537
1.033633,555
1.0353,536
1.036967,518
1.038633,522
1.0403,525
1.041967,454
1.043633,507
1.0453,543
1.046967,579
1.048633,576
1.0503,572
1.051967,543
1.053633,515
1.0553,543
1.056967,540
1.058633,525
1.0603,532
1.061967,513
1.063633,494
1.0653,592
1.066967,576
1.068633,559
1.0703,547
1.071967,558
1.073633,620
1.0753,602
1.076967,584
1.078633,439
1.0803,530
1.081967,620
1.083633,580
1.0853,598
1.086967,506
1.088633,484
1.0903,471
1.091967,490
1.093633,509
1.0953,591
1.096967,589
1.098633,457
1.1003,578
1.101967,653
1.103633,631
1.1053,586
1.106967,649
1.108633,670
1.1103,619
1.111967,653
1.113633,637
1.1153,553
1.116967,680
1.118633,573
1.1203,585
1.121967,545
1.123633,505
1.1253,617
1.126967,643
1.128633,706
1.1303,582
1.131967,644
1.133633,533
1.1353,652
1.136967,599
1.138633,697
1.1403,568
1.141967,534
1.143633,553
1.1453,554
1.146967,554
1.148633,680
1.1503,663
1.151967,682
1.153633,678
1.1553,675
1.156967,631
1.158633,572
1.1603,639
1.161967,620
1.163633,587
1.1653,554
1.166967,602
1.168633,638
1.1703,674
1.171967,633
1.173633,590
1.1753,753
1.176967,695
1.178633,637
1.1803,661
1.181967,718
1.183633,684
1.1853,650
1.186967,670
1.188633,691
1.1903,462
1.191967,610
1.193633,836
1.1953,747
1.196967,631
1.198633,562
