"SampleName","A2Rd2_02-81"
"Target Mass 1",
"Column Name","IA-3 (3um, 4.6X100)"
"Channel","QDa 1: SIR Ch2"
0.00195,398
0.003616667,613
0.005283333,817
0.00695,819
0.008616666,978
0.01028333,851
0.01195,866
0.01361667,868
0.01528333,870
0.01695,933
0.01861667,996
0.02028333,934
0.02195,872
0.02361667,868
0.02528333,908
0.02695,938
0.02861667,1163
0.03028333,1102
0.03195,1041
0.03361667,880
0.03528333,1099
0.03695,1078
0.03861667,987
0.04028333,998
0.04195,1009
0.04361667,1058
0.04528333,886
0.04695,959
0.04861667,1033
0.05028334,932
0.05195,767
0.05361667,1008
0.05528333,1133
0.05695,1111
0.05861667,953
0.06028333,804
0.06195,1067
0.06361666,1174
0.06528334,1043
0.06695,1130
0.06861667,987
0.07028333,928
0.07195,989
0.07361667,887
0.07528333,919
0.07695,952
0.07861666,803
0.08028334,842
0.08195,882
0.08361667,888
0.08528333,893
0.08695,940
0.08861667,961
0.09028333,982
0.09195,881
0.09361666,941
0.09528334,1039
0.09695,816
0.09861667,1064
0.1002833,1016
0.10195,1190
0.1036167,1103
0.1052833,1053
0.10695,930
0.1086167,890
0.1102833,849
0.11195,874
0.1136167,899
0.1152833,902
0.11695,905
0.1186167,898
0.1202833,903
0.12195,914
0.1236167,926
0.1252833,800
0.12695,926
0.1286167,878
0.1302833,989
0.13195,703
0.1336167,960
0.1352833,1003
0.13695,853
0.1386167,984
0.1402833,857
0.14195,910
0.1436167,895
0.1452833,886
0.14695,877
0.1486167,901
0.1502833,902
0.15195,903
0.1536167,959
0.1552833,933
0.15695,908
0.1586167,796
0.1602833,883
0.16195,888
0.1636167,898
0.1652833,869
0.16695,895
0.1686167,905
0.1702833,873
0.17195,788
0.1736167,704
0.1752833,878
0.17695,886
0.1786167,990
0.1802833,840
0.18195,991
0.1836167,982
0.1852833,967
0.18695,786
0.1886167,814
0.1902833,982
0.19195,1023
0.1936167,1037
0.1952833,988
0.19695,1067
0.1986167,962
0.2002833,995
0.20195,1083
0.2036167,1065
0.2052833,1046
0.20695,1064
0.2086167,1005
0.2102833,895
0.21195,1121
0.2136167,1204
0.2152833,938
0.21695,1196
0.2186167,1126
0.2202833,1209
0.22195,1207
0.2236167,1073
0.2252833,1287
0.22695,1277
0.2286167,1268
0.2302833,1245
0.23195,1291
0.2336167,1325
0.2352833,1162
0.23695,1117
0.2386167,1345
0.2402833,1213
0.24195,1081
0.2436167,1212
0.2452833,1412
0.24695,1446
0.2486167,1339
0.2502833,1458
0.25195,1520
0.2536167,1300
0.2552833,1270
0.25695,1317
0.2586167,1241
0.2602833,1211
0.26195,1462
0.2636333,1435
0.2652833,1407
0.26695,1442
0.2686167,1319
0.2702833,1319
0.27195,1310
0.2736167,1381
0.2752833,1146
0.27695,1160
0.2786167,1149
0.2803,1158
0.28195,1208
0.2836167,1044
0.2852833,1084
0.28695,1026
0.2886167,1033
0.2902833,1040
0.29195,1163
0.2936167,1169
0.2952833,1069
0.2969667,1342
0.2986333,1334
0.3002833,1246
0.30195,1209
0.3036167,1078
0.3052833,1298
0.30695,1263
0.3086167,1227
0.3103,1220
0.31195,1278
0.3136167,1336
0.3153,1345
0.31695,1304
0.3186167,1323
0.3202833,1343
0.32195,1288
0.3236167,1266
0.3252833,1243
0.32695,1173
0.3286167,1219
0.3302833,1264
0.33195,1323
0.3336333,1259
0.3352833,1196
0.33695,1394
0.3386333,1351
0.3402833,1308
0.34195,1277
0.3436333,1253
0.3452833,1229
0.3469667,1296
0.3486167,1306
0.3503,1065
0.35195,1066
0.3536333,1163
0.3553,1259
0.35695,1330
0.3586333,1371
0.3603,1422
0.36195,1244
0.3636333,1424
0.3652833,2383
0.3669667,2831
0.3686333,3303
0.3703,3401
0.3719667,3322
0.3736333,2853
0.3752833,3137
0.3769667,2495
0.3786167,2823
0.3803,2892
0.38195,2900
0.3836333,2478
0.3853,2564
0.3869667,2204
0.3886333,1320
0.3903,1219
0.3919667,1054
0.3936333,743
0.3952833,636
0.3969667,594
0.3986167,422
0.4003,414
0.40195,580
0.4036333,319
0.4053,603
0.4069667,481
0.4086333,455
0.4103,636
0.4119667,633
0.4136333,619
0.4153,624
0.4169667,629
0.4186333,568
0.4203,654
0.4219667,746
0.4236333,719
0.4253,736
0.4269667,753
0.4286333,842
0.4303,892
0.4319667,656
0.4336333,930
0.4353,1106
0.4369667,1156
0.4386333,958
0.4403,1142
0.4419667,1066
0.4436333,1059
0.4453,1052
0.4469667,1050
0.4486333,942
0.4503,834
0.4519667,1407
0.4536333,1325
0.4553,1331
0.4569667,1316
0.4586333,1272
0.4603,1343
0.4619667,1171
0.4636333,1231
0.4653,1467
0.4669667,1508
0.4686333,1313
0.4703,1401
0.4719667,1422
0.4736333,1404
0.4753,1385
0.4769667,1329
0.4786333,1491
0.4803,1540
0.4819667,1074
0.4836333,1359
0.4853,1347
0.4869667,1271
0.4886333,1098
0.4903,998
0.4919667,1035
0.4936333,1062
0.4953,1089
0.4969667,1061
0.4986333,1032
0.5003,1008
0.5019667,983
0.5036333,1057
0.5053,1130
0.5069667,1171
0.5086333,978
0.5103,1029
0.5119666,1072
0.5136333,928
0.5153,931
0.5169666,933
0.5186333,932
0.5203,958
0.5219667,870
0.5236334,1034
0.5253,1108
0.5269667,1158
0.5286334,848
0.5303,996
0.5319667,1094
0.5336334,1154
0.5353,1128
0.5369667,888
0.5386333,1030
0.5403,1065
0.5419667,1021
0.5436333,940
0.5453,1013
0.5469667,951
0.5486333,890
0.5503,943
0.5519667,883
0.5536333,823
0.5553,888
0.5569667,892
0.5586333,991
0.5603,1090
0.5619667,1113
0.5636333,977
0.5653,1001
0.5669667,771
0.5686333,1032
0.5703,929
0.5719666,921
0.5736333,938
0.5753,941
0.5769666,945
0.5786333,954
0.5803,963
0.5819666,996
0.5836333,1029
0.5853,1008
0.5869667,927
0.5886334,1037
0.5903,1031
0.5919667,1025
0.5936334,958
0.5953,1135
0.5969667,831
0.5986333,738
0.6003,991
0.6019667,1048
0.6036333,1084
0.6053,829
0.6069667,868
0.6086333,935
0.6103,928
0.6119667,915
0.6136333,902
0.6153,1064
0.6169667,981
0.6186333,898
0.6203,1085
0.6219667,966
0.6236333,996
0.6253,1001
0.6269667,946
0.6286333,890
0.6303,1055
0.6319667,979
0.6336333,905
0.6353,972
0.6369666,1038
0.6386333,1042
0.6403,1115
0.6419666,783
0.6436333,902
0.6453,976
0.6469667,1082
0.6486334,1023
0.6503,863
0.6519667,1030
0.6536334,885
0.6553,869
0.6569667,861
0.6586334,855
0.6603,848
0.6619667,910
0.6636333,887
0.6653,863
0.6669667,870
0.6686333,1045
0.6703,1017
0.6719667,1128
0.6736333,1111
0.6753,1093
0.6769667,1271
0.6786333,1639
0.6803,1873
0.6819667,2223
0.6836333,2564
0.6853,3144
0.6869667,3444
0.6886333,3828
0.6903,4060
0.6919667,4445
0.6936333,4462
0.6953,4478
0.6969666,5418
0.6986333,5457
0.7003,5320
0.7019666,5666
0.7036333,5614
0.7053,5297
0.7069666,5241
0.7086333,4907
0.7103,4878
0.7119667,4661
0.7136334,4796
0.7153,4499
0.7169667,4794
0.7186334,4521
0.7203,4742
0.7219667,4243
0.7236333,4620
0.7253,4234
0.7269667,3563
0.7286333,4111
0.7303,3468
0.7319667,3714
0.7336333,3158
0.7353,2760
0.7369667,2658
0.7386333,2534
0.7403,2480
0.7419667,2095
0.7436333,2052
0.7453,1836
0.7469667,1505
0.7486333,1852
0.7503,1672
0.7519667,1519
0.7536333,1471
0.7553,1543
0.7569667,1073
0.7586333,1329
0.7603,1393
0.7619666,1329
0.7636333,1269
0.7653,1132
0.7669666,1077
0.7686333,963
0.7703,1089
0.7719667,1063
0.7736334,1127
0.7753,1191
0.7769667,1668
0.7786334,1699
0.7803,1831
0.7819667,2453
0.7836334,2914
0.7853,3056
0.7869667,3775
0.7886333,4343
0.7903,4738
0.7919667,5750
0.7936333,6420
0.7953,6997
0.7969667,7423
0.7986333,8007
0.8003,8744
0.8019667,8264
0.8036333,8220
0.8053,8744
0.8069667,8372
0.8086333,7609
0.8103,7669
0.8119667,7658
0.8136333,7535
0.8153,7222
0.8169667,6735
0.8186333,6551
0.8203,6921
0.8219666,6469
0.8236333,6598
0.8253,6904
0.8269666,6641
0.8286333,6064
0.8303,6256
0.8319666,6527
0.8336333,6130
0.8353,6061
0.8369667,5112
0.8386334,5307
0.8403,4616
0.8419667,4308
0.8436334,3891
0.8453,4159
0.8469667,3627
0.8486333,3384
0.8503,3444
0.8519667,2836
0.8536333,2494
0.8553,2429
0.8569667,2308
0.8586333,2120
0.8603,1889
0.8619667,1669
0.8636333,1673
0.8653,1296
0.8669667,1733
0.8686333,1443
0.8703,1550
0.8719667,1432
0.8736333,1280
0.8753,1411
0.8769667,1508
0.8786333,1434
0.8803,1500
0.8819667,1567
0.8836333,1645
0.8853,1643
0.8869666,1642
0.8886333,1605
0.8903,1569
0.8919666,1488
0.8936333,1488
0.8953,1489
0.8969667,1450
0.8986334,1410
0.9003,1702
0.9019667,1716
0.9036334,1633
0.9053,1326
0.9069667,1345
0.9086334,1534
0.9103,1379
0.9119667,1563
0.9136333,1275
0.9153,1519
0.9169667,1555
0.9186333,1156
0.9203,1275
0.9219667,1348
0.9236333,1361
0.9253,1400
0.9269667,1439
0.9286333,1618
0.9303,1559
0.9319667,1444
0.9336333,1312
0.9353,1490
0.9369667,1432
0.9386333,1464
0.9403,1611
0.9419667,1274
0.9436333,1446
0.9453,1291
0.9469666,1421
0.9486333,1356
0.9503,1538
0.9519666,1605
0.9536333,1447
0.9553,1639
0.9569666,1832
0.9586333,1970
0.9603,2176
0.9619667,2692
0.9636334,2875
0.9653,3451
0.9669667,3573
0.9686334,4206
0.9703,4153
0.9719667,5254
0.9736333,5816
0.9753,6501
0.9769667,6879
0.9786333,6706
0.9803,7782
0.9819667,7675
0.9836333,8704
0.9853,8484
0.9869667,8404
0.9886333,8420
0.9903,8436
0.9919667,9016
0.9936333,9224
0.9953,9300
0.9969667,8780
0.9986333,9392
1.0003,8260
1.001967,8140
1.003633,8136
1.0053,7691
1.006967,7829
1.008633,7499
1.0103,7794
1.011967,7473
1.013633,7738
1.0153,7522
1.016967,7456
1.018633,7389
1.0203,7462
1.021967,7534
1.023633,7101
1.0253,7843
1.026967,6828
1.028633,7158
1.0303,6901
1.031967,7071
1.033633,7021
1.0353,6260
1.036967,5795
1.038633,5903
1.0403,5198
1.041967,4694
1.043633,4734
1.0453,4738
1.046967,4570
1.048633,4014
1.0503,3955
1.051967,3945
1.053633,3839
1.0553,3518
1.056967,4014
1.058633,3903
1.0603,4032
1.061967,4247
1.063633,4240
1.0653,4304
1.066967,4368
1.068633,4421
1.0703,4618
1.071967,4718
1.073633,4702
1.0753,4842
1.076967,5057
1.078633,4995
1.0803,4933
1.081967,4954
1.083633,4975
1.0853,4901
1.086967,4849
1.088633,4688
1.0903,4574
1.091967,4954
1.093633,4544
1.0953,4244
1.096967,4342
1.098633,4525
1.1003,4321
1.101967,4461
1.103633,4038
1.1053,4234
1.106967,4430
1.108633,4143
1.1103,4186
1.111967,4449
1.113633,3923
1.1153,4271
1.116967,4099
1.118633,3876
1.1203,4024
1.121967,3106
1.123633,3765
1.1253,3642
1.126967,3249
1.128633,2667
1.1303,3185
1.131967,2591
1.133633,3078
1.1353,2816
1.136967,2609
1.138633,2814
1.1403,2405
1.141967,2579
1.143633,2070
1.1453,2210
1.146967,1767
1.148633,1800
1.1503,1603
1.151967,1881
1.153633,1506
1.1553,1505
1.156967,1570
1.158633,1632
1.1603,1628
1.161967,1518
1.163633,1490
1.1653,1569
1.166967,1324
1.168633,1522
1.1703,1192
1.171967,1312
1.173633,1527
1.1753,1040
1.176967,1170
1.178633,1175
1.1803,1293
1.181967,1222
1.183633,1151
1.1853,1132
1.186967,1069
1.188633,1101
1.1903,1238
1.191967,1271
1.193633,1213
1.1953,1270
1.196967,1314
1.198633,1334
