"SampleName","A2Rd2_02-16"
"Target Mass 1",
"Column Name","IA-3 (3um, 4.6X100)"
"Channel","QDa 1: SIR Ch1"
0.00195,332
0.003616667,591
0.005283333,519
0.00695,523
0.008616666,514
0.01028333,511
0.01195,511
0.01361667,506
0.01528333,532
0.01695,574
0.01861667,382
0.02028333,533
0.02195,661
0.02361667,546
0.02528333,454
0.02695,453
0.02861667,490
0.03028333,512
0.03195,534
0.03361667,424
0.03528333,470
0.03695,424
0.03861667,524
0.04028333,539
0.04195,336
0.04361667,476
0.04528333,391
0.04695,464
0.04861667,535
0.05028334,476
0.05195,535
0.05361667,472
0.05528333,538
0.05695,444
0.05861667,502
0.06028333,429
0.06195,450
0.06361666,444
0.06528334,438
0.06695,471
0.06861667,421
0.07028333,372
0.07195,467
0.07361667,460
0.07528333,452
0.07695,500
0.07861666,510
0.08028334,456
0.08195,474
0.08361667,514
0.08528333,523
0.08695,447
0.08861667,453
0.09028333,460
0.09195,510
0.09361666,491
0.09528334,473
0.09695,475
0.09861667,287
0.1002833,555
0.10195,421
0.1036167,561
0.1052833,555
0.10695,549
0.1086167,340
0.1102833,470
0.11195,478
0.1136167,535
0.1152833,406
0.11695,425
0.1186167,386
0.1202833,405
0.12195,425
0.1236167,308
0.1252833,524
0.12695,540
0.1286167,532
0.1302833,478
0.13195,447
0.1336167,500
0.1352833,463
0.13695,459
0.1386167,401
0.1402833,388
0.14195,399
0.1436167,410
0.1452833,450
0.14695,451
0.1486167,452
0.1502833,457
0.15195,460
0.1536167,463
0.1552833,446
0.15695,493
0.1586167,521
0.1602833,530
0.16195,432
0.1636167,462
0.1652833,475
0.16695,468
0.1686167,460
0.1702833,443
0.17195,438
0.1736167,611
0.1752833,597
0.17695,546
0.1786167,536
0.1802833,388
0.18195,392
0.1836167,443
0.1852833,476
0.18695,506
0.1886167,525
0.1902833,508
0.19195,492
0.1936167,501
0.1952833,511
0.19695,480
0.1986167,449
0.2002833,397
0.20195,494
0.2036167,399
0.2052833,372
0.20695,507
0.2086167,458
0.2102833,459
0.21195,399
0.2136167,415
0.2152833,390
0.21695,480
0.2186167,558
0.2202833,583
0.22195,479
0.2236167,505
0.2252833,523
0.22695,441
0.2286167,493
0.2302833,533
0.23195,587
0.2336167,396
0.2352833,460
0.23695,474
0.2386167,513
0.2402833,517
0.24195,470
0.2436167,423
0.2453,351
0.24695,555
0.2486167,518
0.2502833,507
0.25195,432
0.2536167,535
0.2552833,353
0.25695,468
0.2586167,551
0.2602833,374
0.26195,504
0.2636333,426
0.2652833,398
0.26695,370
0.2686167,511
0.2702833,544
0.27195,503
0.2736333,447
0.2752833,471
0.27695,495
0.2786167,434
0.2803,452
0.28195,438
0.2836167,424
0.2852833,449
0.28695,474
0.2886167,501
0.2902833,473
0.29195,534
0.2936167,526
0.2952833,513
0.29695,509
0.2986333,499
0.3002833,570
0.30195,364
0.3036167,571
0.3052833,508
0.30695,610
0.3086167,439
0.3102833,415
0.31195,728
0.3136333,619
0.3153,401
0.31695,534
0.3186167,568
0.3202833,641
0.32195,430
0.3236167,536
0.3252833,449
0.32695,407
0.3286167,562
0.3302833,439
0.33195,413
0.3336333,515
0.3352833,520
0.33695,518
0.3386167,516
0.3402833,398
0.34195,570
0.3436167,493
0.3453,483
0.34695,513
0.3486167,454
0.3503,477
0.35195,531
0.3536333,383
0.3552833,390
0.3569667,545
0.3586167,421
0.3603,445
0.3619667,620
0.3636333,797
0.3652833,1001
0.36695,1668
0.3686333,2557
0.3703,3479
0.3719667,4485
0.3736167,4208
0.3752833,4919
0.3769667,5076
0.3786333,5389
0.3802833,5687
0.38195,5378
0.3836333,5207
0.3853,4661
0.3869667,4747
0.3886333,3140
0.3903,3039
0.3919667,2368
0.3936333,2053
0.3953,1745
0.3969667,1451
0.3986333,1337
0.4003,1102
0.4019667,1282
0.4036333,1222
0.4053,1037
0.4069667,1328
0.4086333,1432
0.4103,1536
0.4119667,1486
0.4136333,1437
0.4153,1733
0.4169667,1774
0.4186333,1510
0.4203,1746
0.4219667,1720
0.4236333,1694
0.4253,1702
0.4269667,1710
0.4286333,1752
0.4303,1748
0.4319667,1744
0.4336333,1830
0.4353,2890
0.4369667,3869
0.4386333,5599
0.4403,8596
0.4419667,13436
0.4436333,19984
0.4453,27968
0.4469667,38144
0.4486333,51184
0.4503,64992
0.4519667,79360
0.4536333,95648
0.4553,104048
0.4569667,118992
0.4586333,127712
0.4603,135616
0.4619667,142336
0.4636333,147776
0.4653,155136
0.4669667,159552
0.4686333,172160
0.4703,180672
0.4719667,197056
0.4736333,204608
0.4753,215936
0.4769667,216960
0.4786333,216448
0.4803,211968
0.4819667,197056
0.4836333,186816
0.4853,163456
0.4869667,142592
0.4886333,123280
0.4903,102352
0.4919667,84480
0.4936333,69168
0.4953,54704
0.4969667,43280
0.4986333,34768
0.5003,26892
0.5019667,21192
0.5036333,18068
0.5053,14440
0.5069667,11724
0.5086333,9784
0.5103,8668
0.5119666,7220
0.5136333,5957
0.5153,5310
0.5169666,4709
0.5186333,4581
0.5203,4216
0.5219667,3883
0.5236334,4061
0.5253,3486
0.5269667,3460
0.5286334,3218
0.5303,3411
0.5319667,3164
0.5336334,2921
0.5353,3107
0.5369667,2694
0.5386333,2512
0.5403,2314
0.5419667,2419
0.5436333,2379
0.5453,2213
0.5469667,2197
0.5486333,2241
0.5503,2056
0.5519667,1923
0.5536333,2097
0.5553,1873
0.5569667,1942
0.5586333,1894
0.5603,1857
0.5619667,1656
0.5636333,1546
0.5653,1786
0.5669667,1799
0.5686333,1523
0.5703,1426
0.5719666,1585
0.5736333,1265
0.5753,1400
0.5769666,1337
0.5786333,1151
0.5803,1299
0.5819666,1170
0.5836333,1325
0.5853,1331
0.5869667,1349
0.5886334,1309
0.5903,1300
0.5919667,1292
0.5936334,1291
0.5953,1291
0.5969667,1292
0.5986333,1293
0.6003,1294
0.6019667,1298
0.6036333,1197
0.6053,1288
0.6069667,1373
0.6086333,1363
0.6103,1239
0.6119667,1432
0.6136333,1189
0.6153,1144
0.6169667,1359
0.6186333,1174
0.6203,1082
0.6219667,1211
0.6236333,1236
0.6253,1296
0.6269667,1049
0.6286333,1172
0.6303,956
0.6319667,984
0.6336333,874
0.6353,967
0.6369666,997
0.6386333,1048
0.6403,1023
0.6419666,1074
0.6436333,925
0.6453,1006
0.6469667,934
0.6486334,1080
0.6503,1051
0.6519667,786
0.6536334,848
0.6553,951
0.6569667,854
0.6586334,978
0.6603,878
0.6619667,942
0.6636333,816
0.6653,689
0.6669667,776
0.6686333,841
0.6703,874
0.6719667,779
0.6736333,814
0.6753,606
0.6769667,925
0.6786333,793
0.6803,763
0.6819667,670
0.6836333,682
0.6853,663
0.6869667,644
0.6886333,641
0.6903,637
0.6919667,682
0.6936333,636
0.6953,590
0.6969666,642
0.6986333,649
0.7003,684
0.7019666,719
0.7036333,732
0.7053,852
0.7069666,883
0.7086333,564
0.7103,698
0.7119667,666
0.7136334,668
0.7153,645
0.7169667,821
0.7186334,804
0.7203,689
0.7219667,603
0.7236333,650
0.7253,681
0.7269667,682
0.7286333,758
0.7303,743
0.7319667,733
0.7336333,767
0.7353,593
0.7369667,865
0.7386333,518
0.7403,842
0.7419667,726
0.7436333,581
0.7453,613
0.7469667,653
0.7486333,681
0.7503,453
0.7519667,743
0.7536333,726
0.7553,861
0.7569667,919
0.7586333,833
0.7603,713
0.7619666,818
0.7636333,638
0.7653,755
0.7669666,592
0.7686333,718
0.7703,718
0.7719667,663
0.7736334,661
0.7753,717
0.7769667,580
0.7786334,615
0.7803,751
0.7819667,615
0.7836334,569
0.7853,638
0.7869667,650
0.7886333,478
0.7903,670
0.7919667,575
0.7936333,594
0.7953,539
0.7969667,552
0.7986333,525
0.8003,634
0.8019667,646
0.8036333,687
0.8053,556
0.8069667,770
0.8086333,493
0.8103,579
0.8119667,627
0.8136333,455
0.8153,417
0.8169667,558
0.8186333,490
0.8203,467
0.8219666,637
0.8236333,585
0.8253,603
0.8269666,620
0.8286333,634
0.8303,647
0.8319666,661
0.8336333,666
0.8353,411
0.8369667,683
0.8386334,615
0.8403,512
0.8419667,714
0.8436334,578
0.8453,893
0.8469667,772
0.8486333,698
0.8503,410
0.8519667,559
0.8536333,693
0.8553,626
0.8569667,658
0.8586333,467
0.8603,581
0.8619667,537
0.8636333,621
0.8653,564
0.8669667,675
0.8686333,476
0.8703,654
0.8719667,616
0.8736333,580
0.8753,520
0.8769667,569
0.8786333,789
0.8803,779
0.8819667,1041
0.8836333,1451
0.8853,1574
0.8869666,1414
0.8886333,1570
0.8903,1549
0.8919666,1527
0.8936333,1943
0.8953,2015
0.8969667,1756
0.8986334,1943
0.9003,1819
0.9019667,1960
0.9036334,1797
0.9053,1928
0.9069667,1969
0.9086334,2003
0.9103,1915
0.9119667,1827
0.9136333,1848
0.9153,1809
0.9169667,1548
0.9186333,2064
0.9203,1965
0.9219667,2034
0.9236333,2071
0.9253,2108
0.9269667,2194
0.9286333,1906
0.9303,1681
0.9319667,1984
0.9336333,1715
0.9353,1841
0.9369667,1787
0.9386333,1870
0.9403,1735
0.9419667,1971
0.9436333,1448
0.9453,1608
0.9469666,1431
0.9486333,1537
0.9503,1470
0.9519666,1431
0.9536333,1278
0.9553,1294
0.9569666,1324
0.9586333,1292
0.9603,1183
0.9619667,1388
0.9636334,1072
0.9653,1107
0.9669667,946
0.9686334,875
0.9703,998
0.9719667,793
0.9736333,680
0.9753,822
0.9769667,854
0.9786333,737
0.9803,651
0.9819667,769
0.9836333,606
0.9853,835
0.9869667,717
0.9886333,710
0.9903,581
0.9919667,568
0.9936333,531
0.9953,550
0.9969667,569
0.9986333,552
1.0003,536
1.001967,462
1.003633,524
1.0053,480
1.006967,498
1.008633,448
1.0103,446
1.011967,443
1.013633,429
1.0153,412
1.016967,394
1.018633,408
1.0203,422
1.021967,473
1.023633,498
1.0253,468
1.026967,512
1.028633,442
1.0303,454
1.031967,485
1.033633,515
1.0353,402
1.036967,425
1.038633,599
1.0403,545
1.041967,420
1.043633,509
1.0453,488
1.046967,433
1.048633,519
1.0503,501
1.051967,507
1.053633,562
1.0553,383
1.056967,465
1.058633,475
1.0603,472
1.061967,511
1.063633,521
1.0653,532
1.066967,515
1.068633,497
1.0703,483
1.071967,495
1.073633,507
1.0753,472
1.076967,438
1.078633,532
1.0803,497
1.081967,462
1.083633,464
1.0853,467
1.086967,574
1.088633,651
1.0903,567
1.091967,388
1.093633,715
1.0953,395
1.096967,446
1.098633,613
1.1003,412
1.101967,492
1.103633,578
1.1053,591
1.106967,414
1.108633,452
1.1103,560
1.111967,516
1.113633,454
1.1153,592
1.116967,508
1.118633,506
1.1203,504
1.121967,603
1.123633,567
1.1253,531
1.126967,413
1.128633,487
1.1303,446
1.131967,405
1.133633,469
1.1353,532
1.136967,521
1.138633,591
1.1403,590
1.141967,609
1.143633,605
1.1453,577
1.146967,503
1.148633,581
1.1503,542
1.151967,517
1.153633,541
1.1553,586
1.156967,608
1.158633,498
1.1603,581
1.161967,553
1.163633,545
1.1653,568
1.166967,599
1.168633,418
1.1703,456
1.171967,513
1.173633,519
1.1753,519
1.176967,519
1.178633,468
1.1803,580
1.181967,612
1.183633,567
1.1853,522
1.186967,410
1.188633,601
1.1903,575
1.191967,466
1.193633,591
1.1953,699
1.196967,670
1.198633,518
