"SampleName","A2Rd2_02-50"
"Target Mass 1",
"Column Name","IA-3 (3um, 4.6X100)"
"Channel","QDa 1: SIR Ch1"
0.00195,365
0.003616667,448
0.005283333,421
0.00695,402
0.008616666,588
0.01028333,549
0.01195,450
0.01361667,535
0.01528333,476
0.01695,502
0.01861667,422
0.02028333,342
0.02195,428
0.02361667,427
0.02528333,425
0.02695,459
0.02861667,493
0.03028333,480
0.03195,468
0.03361667,453
0.03528333,408
0.03695,363
0.03861667,481
0.04028333,452
0.04195,632
0.04361667,556
0.04528333,556
0.04695,444
0.04861667,424
0.05028334,473
0.05195,438
0.05361667,437
0.05528333,475
0.05695,360
0.05861667,412
0.06028333,520
0.06195,457
0.06361666,360
0.06528334,491
0.06695,468
0.06861667,392
0.07028333,439
0.07195,443
0.07361667,390
0.07528333,447
0.07695,505
0.07861666,401
0.08028334,297
0.08195,507
0.08361667,473
0.08528333,581
0.08695,417
0.08861667,429
0.09028333,465
0.09195,424
0.09361666,554
0.09528334,523
0.09695,474
0.09861667,553
0.1002833,493
0.10195,509
0.1036167,401
0.1052833,491
0.10695,419
0.1086167,443
0.1102833,467
0.11195,507
0.1136167,511
0.1152833,542
0.11695,523
0.1186167,504
0.1202833,359
0.12195,360
0.1236167,427
0.1252833,401
0.12695,445
0.1286167,422
0.1302833,588
0.13195,514
0.1336167,441
0.1352833,361
0.13695,470
0.1386167,435
0.1402833,537
0.14195,463
0.1436167,399
0.1452833,445
0.14695,454
0.1486167,463
0.1502833,373
0.15195,487
0.1536167,403
0.1552833,449
0.15695,495
0.1586333,398
0.1602833,360
0.16195,522
0.1636167,445
0.1652833,410
0.16695,414
0.1686167,477
0.1702833,595
0.17195,654
0.1736167,671
0.1752833,477
0.17695,358
0.1786167,393
0.1802833,376
0.18195,359
0.1836167,400
0.1852833,447
0.18695,504
0.1886167,487
0.1902833,435
0.19195,439
0.1936333,476
0.1952833,513
0.19695,340
0.1986167,397
0.2002833,396
0.20195,441
0.2036167,422
0.2052833,403
0.20695,433
0.2086167,412
0.2103,391
0.21195,405
0.2136167,419
0.2152833,429
0.21695,415
0.2186167,402
0.2202833,424
0.22195,467
0.2236167,456
0.2252833,446
0.22695,412
0.2286333,477
0.2302833,480
0.23195,483
0.2336167,478
0.2352833,412
0.23695,436
0.2386167,463
0.2402833,490
0.24195,477
0.2436167,530
0.2453,419
0.24695,458
0.2486167,453
0.2502833,524
0.25195,548
0.2536167,394
0.2552833,458
0.25695,573
0.2586167,418
0.2602833,504
0.26195,418
0.2636333,432
0.2652833,470
0.26695,501
0.2686167,471
0.2702833,450
0.27195,441
0.2736333,435
0.2752833,460
0.27695,485
0.2786333,519
0.2803,499
0.28195,404
0.2836167,397
0.2852833,535
0.28695,567
0.2886167,481
0.2902833,458
0.2919667,512
0.2936167,499
0.2952833,398
0.29695,517
0.2986333,367
0.3002833,490
0.30195,421
0.3036167,439
0.3052833,507
0.30695,482
0.3086167,456
0.3102833,330
0.31195,483
0.3136167,434
0.3153,409
0.31695,429
0.3186167,450
0.3202833,527
0.32195,519
0.3236167,433
0.3253,512
0.32695,508
0.3286333,539
0.3302833,569
0.33195,562
0.3336333,550
0.3352833,538
0.3369667,445
0.3386167,530
0.3402833,486
0.3419667,550
0.3436167,586
0.3452833,475
0.34695,409
0.3486167,409
0.3503,495
0.35195,456
0.3536333,462
0.3552833,493
0.3569667,525
0.3586333,548
0.3603,543
0.3619667,609
0.3636167,927
0.3652833,1309
0.36695,1436
0.3686333,2252
0.3703,2516
0.3719667,3267
0.3736333,2623
0.3753,3451
0.3769667,3767
0.3786333,4278
0.3803,4327
0.3819667,4218
0.3836333,4109
0.3853,3928
0.3869667,4194
0.3886333,3191
0.3903,3029
0.3919667,2565
0.3936333,1800
0.3953,1612
0.3969667,1452
0.3986333,1053
0.4003,1122
0.4019667,1013
0.4036333,1134
0.4053,1119
0.4069667,1331
0.4086333,1369
0.4103,1268
0.4119667,1247
0.4136333,1512
0.4153,1428
0.4169667,1344
0.4186333,1322
0.4203,1694
0.4219667,1746
0.4236333,1397
0.4253,1742
0.4269667,1722
0.4286333,1518
0.4303,1405
0.4319667,1556
0.4336333,1925
0.4353,2410
0.4369667,3019
0.4386333,4162
0.4403,6521
0.4419667,10348
0.4436333,16744
0.4453,26508
0.4469667,37296
0.4486333,52336
0.4503,70352
0.4519667,84960
0.4536333,101904
0.4553,120304
0.4569667,130864
0.4586333,144960
0.4603,155136
0.4619667,158272
0.4636333,162048
0.4653,165888
0.4669667,169472
0.4686333,174400
0.4703,178432
0.4719667,185920
0.4736333,198080
0.4753,203840
0.4769667,206016
0.4786333,211328
0.4803,206784
0.4819667,194048
0.4836333,179712
0.4853,164224
0.4869667,146816
0.4886333,126528
0.4903,107184
0.4919667,91520
0.4936333,75776
0.4953,59696
0.4969667,49248
0.4986333,40032
0.5003,31172
0.5019667,25692
0.5036333,19232
0.5053,16048
0.5069667,12604
0.5086333,11060
0.5103,9616
0.5119666,7856
0.5136333,6709
0.5153,5943
0.5169666,5316
0.5186333,4595
0.5203,4463
0.5219667,3907
0.5236334,4000
0.5253,3723
0.5269667,3821
0.5286334,3036
0.5303,3175
0.5319667,3031
0.5336334,2988
0.5353,3141
0.5369667,2767
0.5386333,2431
0.5403,2273
0.5419667,2131
0.5436333,2247
0.5453,2218
0.5469667,2384
0.5486333,1987
0.5503,2088
0.5519667,2461
0.5536333,1926
0.5553,1676
0.5569667,1573
0.5586333,1780
0.5603,1552
0.5619667,1510
0.5636333,1827
0.5653,1422
0.5669667,1685
0.5686333,1335
0.5703,1272
0.5719666,1408
0.5736333,1260
0.5753,1442
0.5769666,1506
0.5786333,1178
0.5803,1223
0.5819666,1411
0.5836333,1443
0.5853,1308
0.5869667,1333
0.5886334,1296
0.5903,1133
0.5919667,1061
0.5936334,1439
0.5953,1429
0.5969667,1185
0.5986333,1373
0.6003,1504
0.6019667,1222
0.6036333,1248
0.6053,1339
0.6069667,1262
0.6086333,1196
0.6103,1313
0.6119667,1157
0.6136333,1183
0.6153,1209
0.6169667,1335
0.6186333,1292
0.6203,1240
0.6219667,1071
0.6236333,1252
0.6253,1342
0.6269667,1190
0.6286333,1117
0.6303,1078
0.6319667,1074
0.6336333,1044
0.6353,1049
0.6369666,1054
0.6386333,960
0.6403,940
0.6419666,965
0.6436333,905
0.6453,912
0.6469667,910
0.6486334,795
0.6503,871
0.6519667,891
0.6536334,911
0.6553,883
0.6569667,855
0.6586334,740
0.6603,833
0.6619667,925
0.6636333,710
0.6653,856
0.6669667,785
0.6686333,952
0.6703,625
0.6719667,855
0.6736333,771
0.6753,900
0.6769667,750
0.6786333,903
0.6803,627
0.6819667,745
0.6836333,822
0.6853,782
0.6869667,704
0.6886333,694
0.6903,737
0.6919667,710
0.6936333,683
0.6953,791
0.6969666,838
0.6986333,636
0.7003,643
0.7019666,709
0.7036333,525
0.7053,582
0.7069666,795
0.7086333,770
0.7103,628
0.7119667,797
0.7136334,706
0.7153,806
0.7169667,673
0.7186334,670
0.7203,766
0.7219667,531
0.7236333,742
0.7253,904
0.7269667,710
0.7286333,794
0.7303,686
0.7319667,672
0.7336333,661
0.7353,756
0.7369667,733
0.7386333,616
0.7403,839
0.7419667,614
0.7436333,812
0.7453,595
0.7469667,618
0.7486333,574
0.7503,619
0.7519667,592
0.7536333,565
0.7553,640
0.7569667,604
0.7586333,569
0.7603,589
0.7619666,610
0.7636333,533
0.7653,660
0.7669666,609
0.7686333,738
0.7703,704
0.7719667,747
0.7736334,673
0.7753,624
0.7769667,522
0.7786334,630
0.7803,579
0.7819667,688
0.7836334,856
0.7853,828
0.7869667,638
0.7886333,510
0.7903,767
0.7919667,523
0.7936333,692
0.7953,523
0.7969667,703
0.7986333,880
0.8003,746
0.8019667,690
0.8036333,719
0.8053,692
0.8069667,667
0.8086333,655
0.8103,560
0.8119667,479
0.8136333,518
0.8153,557
0.8169667,598
0.8186333,577
0.8203,523
0.8219666,468
0.8236333,563
0.8253,591
0.8269666,534
0.8286333,637
0.8303,655
0.8319666,646
0.8336333,632
0.8353,618
0.8369667,689
0.8386334,676
0.8403,579
0.8419667,581
0.8436334,545
0.8453,509
0.8469667,579
0.8486333,564
0.8503,549
0.8519667,595
0.8536333,619
0.8553,604
0.8569667,613
0.8586333,623
0.8603,605
0.8619667,660
0.8636333,683
0.8653,537
0.8669667,549
0.8686333,398
0.8703,569
0.8719667,597
0.8736333,495
0.8753,537
0.8769667,597
0.8786333,709
0.8803,803
0.8819667,981
0.8836333,947
0.8853,1225
0.8869666,1316
0.8886333,1407
0.8903,1535
0.8919666,1924
0.8936333,2014
0.8953,1875
0.8969667,1988
0.8986334,1960
0.9003,1870
0.9019667,1636
0.9036334,2124
0.9053,2059
0.9069667,2223
0.9086334,2092
0.9103,1890
0.9119667,2184
0.9136333,1940
0.9153,2157
0.9169667,2211
0.9186333,1900
0.9203,2090
0.9219667,2272
0.9236333,2340
0.9253,2084
0.9269667,2101
0.9286333,2035
0.9303,1958
0.9319667,1986
0.9336333,1862
0.9353,2042
0.9369667,2112
0.9386333,1585
0.9403,1881
0.9419667,1957
0.9436333,2108
0.9453,1830
0.9469666,1547
0.9486333,1509
0.9503,1735
0.9519666,1760
0.9536333,1379
0.9553,1535
0.9569666,1406
0.9586333,1450
0.9603,1311
0.9619667,1288
0.9636334,1240
0.9653,1277
0.9669667,1037
0.9686334,1107
0.9703,1043
0.9719667,819
0.9736333,1013
0.9753,800
0.9769667,879
0.9786333,755
0.9803,885
0.9819667,754
0.9836333,744
0.9853,701
0.9869667,693
0.9886333,618
0.9903,734
0.9919667,554
0.9936333,445
0.9953,699
0.9969667,588
0.9986333,485
1.0003,529
1.001967,546
1.003633,494
1.0053,453
1.006967,541
1.008633,394
1.0103,553
1.011967,634
1.013633,500
1.0153,532
1.016967,571
1.018633,474
1.0203,482
1.021967,480
1.023633,395
1.0253,497
1.026967,413
1.028633,530
1.0303,417
1.031967,521
1.033633,452
1.0353,478
1.036967,520
1.038633,460
1.0403,468
1.041967,578
1.043633,561
1.0453,540
1.046967,544
1.048633,561
1.0503,578
1.051967,579
1.053633,474
1.0553,451
1.056967,498
1.058633,541
1.0603,583
1.061967,357
1.063633,667
1.0653,459
1.066967,486
1.068633,418
1.0703,449
1.071967,480
1.073633,460
1.0753,440
1.076967,492
1.078633,398
1.0803,443
1.081967,487
1.083633,473
1.0853,458
1.086967,416
1.088633,466
1.0903,515
1.091967,351
1.093633,624
1.0953,553
1.096967,588
1.098633,577
1.1003,564
1.101967,503
1.103633,493
1.1053,483
1.106967,478
1.108633,472
1.1103,408
1.111967,605
1.113633,659
1.1153,551
1.116967,508
1.118633,495
1.1203,486
1.121967,477
1.123633,556
1.1253,388
1.126967,463
1.128633,495
1.1303,555
1.131967,526
1.133633,570
1.1353,615
1.136967,602
1.138633,489
1.1403,412
1.141967,548
1.143633,541
1.1453,500
1.146967,478
1.148633,456
1.1503,490
1.151967,414
1.153633,564
1.1553,539
1.156967,630
1.158633,539
1.1603,439
1.161967,479
1.163633,660
1.1653,724
1.166967,374
1.168633,525
1.1703,459
1.171967,444
1.173633,552
1.1753,543
1.176967,528
1.178633,512
1.1803,480
1.181967,449
1.183633,501
1.1853,544
1.186967,586
1.188633,561
1.1903,493
1.191967,481
1.193633,465
1.1953,489
1.196967,411
1.198633,493
