"SampleName","A2Rd2_02-59"
"Target Mass 1",
"Column Name","IA-3 (3um, 4.6X100)"
"Channel","QDa 1: SIR Ch1"
0.00195,399
0.003616667,458
0.005283333,600
0.00695,439
0.008616666,632
0.01028333,559
0.01195,441
0.01361667,373
0.01528333,437
0.01695,394
0.01861667,350
0.02028333,373
0.02195,395
0.02361667,495
0.02528333,459
0.02695,498
0.02861667,440
0.03028333,441
0.03195,416
0.03361667,390
0.03528333,352
0.03695,476
0.03861667,504
0.04028333,523
0.04195,452
0.04361667,505
0.04528333,489
0.04695,474
0.04861667,579
0.05028334,305
0.05195,415
0.05361667,526
0.05528333,576
0.05695,501
0.05861667,479
0.06028333,458
0.06195,569
0.06361666,584
0.06528334,445
0.06695,595
0.06861667,584
0.07028333,467
0.07195,483
0.07361667,587
0.07528333,479
0.07695,594
0.07861666,549
0.08028334,374
0.08195,481
0.08361667,486
0.08528333,460
0.08695,498
0.08861667,484
0.09028333,470
0.09195,463
0.09361666,456
0.09528334,467
0.09695,478
0.09861667,538
0.1002833,521
0.10195,516
0.1036167,457
0.1052833,447
0.10695,446
0.1086167,455
0.1102833,465
0.11195,470
0.1136167,507
0.1152833,566
0.11695,381
0.1186167,421
0.1202833,493
0.12195,549
0.1236167,583
0.1252833,427
0.12695,471
0.1286167,457
0.1302833,482
0.13195,469
0.1336167,456
0.1352833,480
0.13695,475
0.1386167,471
0.1402833,451
0.14195,410
0.1436167,370
0.1452833,552
0.14695,502
0.1486167,452
0.1502833,462
0.15195,472
0.1536167,423
0.1552833,399
0.15695,568
0.1586167,579
0.1602833,536
0.16195,511
0.1636167,520
0.1652833,439
0.16695,511
0.1686167,556
0.1702833,401
0.17195,533
0.1736167,508
0.1752833,579
0.17695,465
0.1786167,542
0.1802833,585
0.18195,531
0.1836167,544
0.1852833,425
0.18695,410
0.1886167,554
0.1902833,542
0.19195,411
0.1936167,642
0.1952833,511
0.19695,452
0.1986167,513
0.2002833,598
0.20195,535
0.2036167,472
0.2052833,527
0.20695,360
0.2086167,632
0.2102833,591
0.21195,500
0.2136167,352
0.2152833,436
0.21695,512
0.2186167,422
0.2202833,470
0.22195,421
0.2236167,483
0.2252833,540
0.22695,565
0.2286167,418
0.2302833,314
0.23195,429
0.2336167,352
0.2352833,411
0.23695,393
0.2386167,375
0.2402833,377
0.24195,379
0.2436167,576
0.2452833,561
0.24695,447
0.2486167,492
0.2502833,456
0.25195,476
0.2536167,438
0.2552833,502
0.25695,484
0.2586167,466
0.2602833,532
0.26195,492
0.2636333,453
0.2652833,511
0.26695,446
0.2686167,409
0.2702833,567
0.27195,558
0.2736167,500
0.2752833,465
0.27695,364
0.2786167,546
0.2803,565
0.28195,446
0.2836167,610
0.2852833,433
0.28695,504
0.2886167,376
0.2902833,439
0.29195,503
0.2936167,509
0.2952833,515
0.29695,615
0.2986333,623
0.3002833,460
0.30195,525
0.3036167,534
0.3052833,482
0.30695,497
0.3086167,511
0.3102833,525
0.31195,556
0.3136167,603
0.3153,674
0.31695,626
0.3186167,502
0.3202833,440
0.32195,352
0.3236333,388
0.3252833,425
0.3269667,506
0.3286167,513
0.3303,477
0.3319667,442
0.3336333,448
0.3352833,454
0.33695,506
0.3386167,489
0.3403,471
0.34195,430
0.3436333,452
0.3453,474
0.3469667,497
0.3486333,520
0.3503,365
0.35195,536
0.3536333,560
0.3552833,476
0.3569667,538
0.3586167,446
0.3603,622
0.3619667,626
0.3636333,874
0.3653,1299
0.3669667,1449
0.3686333,2426
0.3703,2913
0.3719667,3666
0.3736333,3824
0.3752833,4212
0.3769667,4070
0.3786333,4933
0.3803,5286
0.3819667,5151
0.3836333,5077
0.3853,4927
0.3869667,4637
0.3886333,3817
0.3903,3228
0.3919667,2597
0.3936333,2039
0.3953,1851
0.3969667,1502
0.3986333,1297
0.4003,886
0.4019667,906
0.4036333,815
0.4053,875
0.4069667,786
0.4086333,717
0.4103,853
0.4119667,752
0.4136333,689
0.4153,626
0.4169667,676
0.4186333,622
0.4203,721
0.4219667,746
0.4236333,620
0.4253,775
0.4269667,550
0.4286333,777
0.4303,815
0.4319667,823
0.4336333,1032
0.4353,1589
0.4369667,2536
0.4386333,4485
0.4403,7685
0.4419667,12564
0.4436333,19384
0.4453,31432
0.4469667,45392
0.4486333,59952
0.4503,79136
0.4519667,98912
0.4536333,115072
0.4553,131648
0.4569667,148928
0.4586333,158016
0.4603,166080
0.4619667,172032
0.4636333,176256
0.4653,177088
0.4669667,177664
0.4686333,180160
0.4703,187776
0.4719667,195584
0.4736333,200128
0.4753,205504
0.4769667,214016
0.4786333,213824
0.4803,210560
0.4819667,203712
0.4836333,192576
0.4853,176576
0.4869667,159616
0.4886333,141632
0.4903,120576
0.4919667,103584
0.4936333,86176
0.4953,72304
0.4969667,58128
0.4986333,48128
0.5003,37984
0.5019667,31220
0.5036333,24868
0.5053,20860
0.5069667,16452
0.5086333,13312
0.5103,11288
0.5119666,9212
0.5136333,8868
0.5153,6981
0.5169666,6690
0.5186333,6143
0.5203,5231
0.5219667,4851
0.5236334,3898
0.5253,4626
0.5269667,3703
0.5286334,3520
0.5303,3343
0.5319667,3046
0.5336334,3197
0.5353,2902
0.5369667,3230
0.5386333,2784
0.5403,2423
0.5419667,2239
0.5436333,2149
0.5453,2231
0.5469667,2220
0.5486333,2152
0.5503,2058
0.5519667,2088
0.5536333,1750
0.5553,2110
0.5569667,1744
0.5586333,1842
0.5603,1543
0.5619667,1487
0.5636333,1583
0.5653,1598
0.5669667,1517
0.5686333,1684
0.5703,1357
0.5719666,1543
0.5736333,1611
0.5753,1267
0.5769666,1287
0.5786333,1416
0.5803,1546
0.5819666,986
0.5836333,1321
0.5853,1126
0.5869667,1145
0.5886334,1387
0.5903,1131
0.5919667,1357
0.5936334,1059
0.5953,925
0.5969667,1270
0.5986333,1096
0.6003,1341
0.6019667,1293
0.6036333,874
0.6053,1115
0.6069667,1079
0.6086333,1113
0.6103,1062
0.6119667,972
0.6136333,990
0.6153,1007
0.6169667,1023
0.6186333,1039
0.6203,1013
0.6219667,933
0.6236333,910
0.6253,912
0.6269667,913
0.6286333,833
0.6303,822
0.6319667,942
0.6336333,966
0.6353,977
0.6369666,981
0.6386333,742
0.6403,712
0.6419666,869
0.6436333,750
0.6453,829
0.6469667,762
0.6486334,737
0.6503,727
0.6519667,717
0.6536334,662
0.6553,746
0.6569667,811
0.6586334,916
0.6603,852
0.6619667,954
0.6636333,736
0.6653,674
0.6669667,534
0.6686333,695
0.6703,642
0.6719667,691
0.6736333,554
0.6753,634
0.6769667,714
0.6786333,718
0.6803,743
0.6819667,677
0.6836333,722
0.6853,674
0.6869667,738
0.6886333,779
0.6903,635
0.6919667,647
0.6936333,719
0.6953,703
0.6969666,627
0.6986333,704
0.7003,630
0.7019666,715
0.7036333,569
0.7053,562
0.7069666,695
0.7086333,554
0.7103,563
0.7119667,520
0.7136334,537
0.7153,558
0.7169667,573
0.7186334,448
0.7203,611
0.7219667,504
0.7236333,645
0.7253,608
0.7269667,633
0.7286333,596
0.7303,530
0.7319667,596
0.7336333,567
0.7353,563
0.7369667,454
0.7386333,582
0.7403,569
0.7419667,673
0.7436333,575
0.7453,521
0.7469667,498
0.7486333,585
0.7503,588
0.7519667,506
0.7536333,603
0.7553,565
0.7569667,639
0.7586333,634
0.7603,464
0.7619666,631
0.7636333,625
0.7653,566
0.7669666,595
0.7686333,609
0.7703,583
0.7719667,588
0.7736334,596
0.7753,583
0.7769667,571
0.7786334,569
0.7803,560
0.7819667,560
0.7836334,560
0.7853,557
0.7869667,555
0.7886333,525
0.7903,494
0.7919667,469
0.7936333,444
0.7953,427
0.7969667,409
0.7986333,482
0.8003,554
0.8019667,619
0.8036333,634
0.8053,461
0.8069667,559
0.8086333,561
0.8103,490
0.8119667,481
0.8136333,417
0.8153,448
0.8169667,479
0.8186333,540
0.8203,526
0.8219666,512
0.8236333,478
0.8253,511
0.8269666,576
0.8286333,597
0.8303,510
0.8319666,533
0.8336333,575
0.8353,569
0.8369667,562
0.8386334,565
0.8403,489
0.8419667,554
0.8436334,521
0.8453,598
0.8469667,632
0.8486333,436
0.8503,517
0.8519667,624
0.8536333,653
0.8553,511
0.8569667,721
0.8586333,482
0.8603,615
0.8619667,408
0.8636333,495
0.8653,424
0.8669667,400
0.8686333,432
0.8703,403
0.8719667,373
0.8736333,419
0.8753,593
0.8769667,619
0.8786333,690
0.8803,824
0.8819667,975
0.8836333,997
0.8853,1117
0.8869666,1203
0.8886333,1074
0.8903,944
0.8919666,1153
0.8936333,997
0.8953,1285
0.8969667,1166
0.8986334,1071
0.9003,998
0.9019667,978
0.9036334,958
0.9053,1172
0.9069667,1175
0.9086334,1320
0.9103,989
0.9119667,1185
0.9136333,992
0.9153,1096
0.9169667,1074
0.9186333,1151
0.9203,1186
0.9219667,1132
0.9236333,1147
0.9253,1162
0.9269667,1168
0.9286333,1100
0.9303,1078
0.9319667,1073
0.9336333,1068
0.9353,1110
0.9369667,1023
0.9386333,1191
0.9403,1149
0.9419667,966
0.9436333,1216
0.9453,981
0.9469666,1165
0.9486333,1136
0.9503,976
0.9519666,1091
0.9536333,799
0.9553,716
0.9569666,1114
0.9586333,847
0.9603,1024
0.9619667,926
0.9636334,842
0.9653,608
0.9669667,869
0.9686334,703
0.9703,854
0.9719667,723
0.9736333,842
0.9753,671
0.9769667,696
0.9786333,637
0.9803,576
0.9819667,627
0.9836333,616
0.9853,472
0.9869667,535
0.9886333,482
0.9903,528
0.9919667,409
0.9936333,462
0.9953,363
0.9969667,460
0.9986333,536
1.0003,552
1.001967,471
1.003633,479
1.0053,401
1.006967,411
1.008633,446
1.0103,434
1.011967,422
1.013633,348
1.0153,464
1.016967,440
1.018633,428
1.0203,416
1.021967,382
1.023633,372
1.0253,361
1.026967,565
1.028633,561
1.0303,462
1.031967,438
1.033633,349
1.0353,433
1.036967,465
1.038633,376
1.0403,490
1.041967,390
1.043633,468
1.0453,421
1.046967,386
1.048633,386
1.0503,403
1.051967,420
1.053633,413
1.0553,405
1.056967,401
1.058633,397
1.0603,398
1.061967,399
1.063633,416
1.0653,432
1.066967,478
1.068633,525
1.0703,489
1.071967,496
1.073633,612
1.0753,363
1.076967,445
1.078633,450
1.0803,495
1.081967,431
1.083633,402
1.0853,499
1.086967,356
1.088633,436
1.0903,491
1.091967,394
1.093633,487
1.0953,451
1.096967,564
1.098633,527
1.1003,464
1.101967,476
1.103633,582
1.1053,365
1.106967,422
1.108633,516
1.1103,510
1.111967,488
1.113633,418
1.1153,436
1.116967,476
1.118633,450
1.1203,459
1.121967,467
1.123633,423
1.1253,380
1.126967,402
1.128633,649
1.1303,646
1.131967,452
1.133633,535
1.1353,480
1.136967,422
1.138633,570
1.1403,490
1.141967,577
1.143633,378
1.1453,385
1.146967,553
1.148633,482
1.1503,528
1.151967,596
1.153633,433
1.1553,515
1.156967,421
1.158633,319
1.1603,391
1.161967,405
1.163633,418
1.1653,456
1.166967,535
1.168633,527
1.1703,438
1.171967,542
1.173633,549
1.1753,410
1.176967,513
1.178633,556
1.1803,473
1.181967,557
1.183633,555
1.1853,631
1.186967,385
1.188633,527
1.1903,347
1.191967,504
1.193633,517
1.1953,404
1.196967,488
1.198633,537
