"SampleName","A2Rd2_02-1"
"Target Mass 1",
"Column Name","IA-3 (3um, 4.6X100)"
"Channel","QDa 1: SIR Ch1"
0.00195,246
0.003616667,467
0.005283333,468
0.00695,447
0.008616666,470
0.01028333,493
0.01195,503
0.01361667,397
0.01528333,329
0.01695,506
0.01861667,461
0.02028333,499
0.02195,470
0.02361667,468
0.02528333,392
0.02695,371
0.02861667,514
0.03028333,500
0.03195,562
0.03361667,411
0.03528333,451
0.03695,303
0.03861667,443
0.04028333,442
0.04195,433
0.04361667,481
0.04528333,521
0.04695,365
0.04861667,400
0.05028334,310
0.05195,340
0.05361667,369
0.05528333,377
0.05695,435
0.05861667,390
0.06028333,344
0.06195,443
0.06361666,359
0.06528334,450
0.06695,460
0.06861667,472
0.07028333,396
0.07195,403
0.07361667,430
0.07528333,452
0.07695,326
0.07861666,426
0.08028334,400
0.08195,403
0.08361667,353
0.08528333,271
0.08695,374
0.08861667,377
0.09028333,381
0.09195,371
0.09361666,362
0.09528334,316
0.09695,332
0.09861667,349
0.1002833,390
0.10195,432
0.1036167,407
0.1052833,383
0.10695,388
0.1086167,393
0.1102833,425
0.11195,387
0.1136167,348
0.1152833,351
0.11695,353
0.1186167,310
0.1202833,437
0.12195,413
0.1236167,389
0.1252833,364
0.12695,414
0.1286167,433
0.1302833,449
0.13195,466
0.1336167,374
0.1352833,471
0.13695,338
0.1386167,445
0.1402833,353
0.14195,368
0.1436167,483
0.1452833,427
0.14695,372
0.1486167,456
0.1502833,297
0.15195,580
0.1536167,509
0.1552833,517
0.15695,473
0.1586167,483
0.1602833,507
0.16195,396
0.1636167,522
0.1652833,490
0.16695,453
0.1686167,478
0.1702833,383
0.17195,430
0.1736167,487
0.1752833,416
0.17695,358
0.1786167,423
0.1802833,408
0.18195,394
0.1836167,382
0.1852833,388
0.18695,394
0.1886167,407
0.1902833,356
0.19195,420
0.1936167,340
0.1952833,481
0.19695,489
0.1986167,434
0.2002833,471
0.20195,412
0.2036167,400
0.2052833,342
0.20695,297
0.2086167,344
0.2102833,391
0.21195,425
0.2136167,377
0.2152833,375
0.21695,432
0.2186167,408
0.2202833,384
0.22195,420
0.2236167,410
0.2252833,320
0.22695,367
0.2286167,601
0.2302833,532
0.23195,392
0.2336167,254
0.2352833,292
0.23695,426
0.2386167,447
0.2402833,462
0.24195,432
0.2436167,370
0.2453,417
0.24695,443
0.2486167,410
0.2502833,418
0.25195,427
0.2536167,398
0.2552833,370
0.25695,323
0.2586333,409
0.2602833,329
0.26195,352
0.2636333,397
0.2652833,402
0.26695,402
0.2686167,402
0.2702833,394
0.27195,408
0.2736167,422
0.2752833,563
0.27695,572
0.2786333,416
0.2803,437
0.28195,410
0.2836167,425
0.2852833,416
0.28695,446
0.2886167,476
0.2902833,320
0.29195,547
0.2936167,432
0.2952833,550
0.29695,608
0.2986333,445
0.3002833,321
0.30195,361
0.3036167,344
0.3052833,336
0.30695,346
0.3086167,433
0.3102833,502
0.31195,432
0.3136167,454
0.3153,453
0.31695,402
0.3186167,421
0.3203,440
0.32195,413
0.3236333,397
0.3252833,380
0.32695,396
0.3286167,411
0.3302833,557
0.33195,603
0.3336333,375
0.3352833,420
0.33695,462
0.3386167,476
0.3403,488
0.3419667,555
0.3436167,566
0.3453,394
0.34695,466
0.3486333,560
0.3503,414
0.35195,441
0.3536333,469
0.3552833,479
0.3569667,489
0.3586167,522
0.3603,555
0.3619667,723
0.3636167,840
0.3653,1237
0.36695,2462
0.3686333,3364
0.3702833,4548
0.3719667,5781
0.3736333,5913
0.3753,6735
0.3769667,7639
0.3786333,7472
0.3803,6970
0.3819667,6771
0.3836167,5722
0.3853,5232
0.3869667,4092
0.3886333,3470
0.3903,2756
0.3919667,2341
0.3936333,1630
0.3953,1601
0.3969667,1434
0.3986333,1164
0.4003,880
0.4019667,953
0.4036333,906
0.4053,948
0.4069667,753
0.4086333,961
0.4103,1021
0.4119667,737
0.4136333,1177
0.4153,1227
0.4169667,929
0.4186333,1073
0.4203,1176
0.4219667,1263
0.4236333,1257
0.4253,1224
0.4269667,941
0.4286333,1336
0.4303,1103
0.4319667,1380
0.4336333,1727
0.4353,2886
0.4369667,3962
0.4386333,6202
0.4403,10224
0.4419667,15876
0.4436333,24196
0.4453,35728
0.4469667,52320
0.4486333,66848
0.4503,84064
0.4519667,104512
0.4536333,125232
0.4553,144768
0.4569667,163840
0.4586333,182912
0.4603,192896
0.4619667,202240
0.4636333,222464
0.4653,234048
0.4669667,253312
0.4686333,268352
0.4703,288448
0.4719667,302400
0.4736333,318848
0.4753,319232
0.4769667,321920
0.4786333,317056
0.4803,300288
0.4819667,284992
0.4836333,261632
0.4853,226880
0.4869667,205056
0.4886333,175936
0.4903,147584
0.4919667,123856
0.4936333,99504
0.4953,81712
0.4969667,62432
0.4986333,51632
0.5003,41968
0.5019667,33168
0.5036333,26084
0.5053,21000
0.5069667,16656
0.5086333,13632
0.5103,11988
0.5119666,10296
0.5136333,8068
0.5153,7019
0.5169666,6937
0.5186333,6296
0.5203,5990
0.5219667,5561
0.5236334,5242
0.5253,5052
0.5269667,4411
0.5286334,3992
0.5303,3737
0.5319667,3555
0.5336334,3097
0.5353,2919
0.5369667,3289
0.5386333,2997
0.5403,3028
0.5419667,2684
0.5436333,2901
0.5453,2723
0.5469667,2599
0.5486333,2756
0.5503,2491
0.5519667,2340
0.5536333,2234
0.5553,2254
0.5569667,2259
0.5586333,2229
0.5603,2200
0.5619667,1959
0.5636333,1830
0.5653,1726
0.5669667,1900
0.5686333,1823
0.5703,1636
0.5719666,1798
0.5736333,1609
0.5753,1828
0.5769666,1638
0.5786333,1504
0.5803,1576
0.5819666,1464
0.5836333,1370
0.5853,1608
0.5869667,1338
0.5886334,1639
0.5903,1527
0.5919667,1473
0.5936334,1292
0.5953,1307
0.5969667,1374
0.5986333,1321
0.6003,1452
0.6019667,1173
0.6036333,1651
0.6053,1489
0.6069667,1300
0.6086333,1432
0.6103,872
0.6119667,1489
0.6136333,1167
0.6153,1104
0.6169667,1405
0.6186333,1142
0.6203,1392
0.6219667,1167
0.6236333,1036
0.6253,1093
0.6269667,1043
0.6286333,1076
0.6303,914
0.6319667,1103
0.6336333,1071
0.6353,1091
0.6369666,1111
0.6386333,782
0.6403,1002
0.6419666,844
0.6436333,692
0.6453,1002
0.6469667,823
0.6486334,955
0.6503,696
0.6519667,857
0.6536334,896
0.6553,827
0.6569667,953
0.6586334,627
0.6603,817
0.6619667,949
0.6636333,930
0.6653,763
0.6669667,702
0.6686333,892
0.6703,798
0.6719667,822
0.6736333,848
0.6753,678
0.6769667,816
0.6786333,907
0.6803,680
0.6819667,767
0.6836333,725
0.6853,747
0.6869667,737
0.6886333,773
0.6903,670
0.6919667,626
0.6936333,725
0.6953,682
0.6969666,748
0.6986333,692
0.7003,637
0.7019666,843
0.7036333,798
0.7053,671
0.7069666,618
0.7086333,582
0.7103,786
0.7119667,751
0.7136334,785
0.7153,749
0.7169667,669
0.7186334,696
0.7203,608
0.7219667,752
0.7236333,705
0.7253,734
0.7269667,685
0.7286333,636
0.7303,669
0.7319667,574
0.7336333,656
0.7353,759
0.7369667,732
0.7386333,517
0.7403,634
0.7419667,687
0.7436333,729
0.7453,707
0.7469667,542
0.7486333,695
0.7503,785
0.7519667,696
0.7536333,566
0.7553,666
0.7569667,684
0.7586333,731
0.7603,696
0.7619666,635
0.7636333,659
0.7653,625
0.7669666,649
0.7686333,635
0.7703,565
0.7719667,631
0.7736334,601
0.7753,639
0.7769667,638
0.7786334,619
0.7803,658
0.7819667,685
0.7836334,675
0.7853,665
0.7869667,694
0.7886333,685
0.7903,676
0.7919667,623
0.7936333,579
0.7953,708
0.7969667,621
0.7986333,634
0.8003,637
0.8019667,680
0.8036333,563
0.8053,622
0.8069667,672
0.8086333,761
0.8103,760
0.8119667,622
0.8136333,783
0.8153,682
0.8169667,717
0.8186333,592
0.8203,627
0.8219666,662
0.8236333,685
0.8253,668
0.8269666,652
0.8286333,706
0.8303,761
0.8319666,736
0.8336333,842
0.8353,838
0.8369667,650
0.8386334,874
0.8403,747
0.8419667,693
0.8436334,757
0.8453,788
0.8469667,589
0.8486333,752
0.8503,780
0.8519667,848
0.8536333,752
0.8553,731
0.8569667,703
0.8586333,680
0.8603,623
0.8619667,636
0.8636333,648
0.8653,676
0.8669667,644
0.8686333,612
0.8703,684
0.8719667,707
0.8736333,754
0.8753,802
0.8769667,1140
0.8786333,1254
0.8803,1600
0.8819667,2370
0.8836333,2472
0.8853,2465
0.8869666,2434
0.8886333,2909
0.8903,2837
0.8919666,2740
0.8936333,3014
0.8953,3009
0.8969667,3004
0.8986334,2921
0.9003,2923
0.9019667,2925
0.9036334,2919
0.9053,3011
0.9069667,2567
0.9086334,2707
0.9103,2848
0.9119667,3064
0.9136333,2912
0.9153,3056
0.9169667,2830
0.9186333,2887
0.9203,2944
0.9219667,2884
0.9236333,2823
0.9253,2544
0.9269667,2689
0.9286333,2833
0.9303,2840
0.9319667,2846
0.9336333,2853
0.9353,2828
0.9369667,2438
0.9386333,2458
0.9403,2650
0.9419667,2717
0.9436333,2672
0.9453,2232
0.9469666,2275
0.9486333,2554
0.9503,2000
0.9519666,2348
0.9536333,2094
0.9553,2097
0.9569666,2126
0.9586333,1761
0.9603,1762
0.9619667,1565
0.9636334,1629
0.9653,1560
0.9669667,1287
0.9686334,1456
0.9703,1247
0.9719667,1308
0.9736333,1035
0.9753,1196
0.9769667,910
0.9786333,885
0.9803,768
0.9819667,730
0.9836333,793
0.9853,784
0.9869667,655
0.9886333,638
0.9903,657
0.9919667,653
0.9936333,653
0.9953,654
0.9969667,620
0.9986333,582
1.0003,641
1.001967,609
1.003633,512
1.0053,432
1.006967,600
1.008633,584
1.0103,570
1.011967,409
1.013633,492
1.0153,458
1.016967,423
1.018633,479
1.0203,535
1.021967,578
1.023633,561
1.0253,544
1.026967,646
1.028633,607
1.0303,568
1.031967,528
1.033633,417
1.0353,519
1.036967,583
1.038633,648
1.0403,487
1.041967,510
1.043633,519
1.0453,548
1.046967,577
1.048633,570
1.0503,607
1.051967,601
1.053633,586
1.0553,614
1.056967,642
1.058633,543
1.0603,578
1.061967,614
1.063633,528
1.0653,508
1.066967,638
1.068633,631
1.0703,671
1.071967,566
1.073633,596
1.0753,587
1.076967,586
1.078633,607
1.0803,495
1.081967,640
1.083633,541
1.0853,803
1.086967,763
1.088633,642
1.0903,583
1.091967,759
1.093633,626
1.0953,654
1.096967,602
1.098633,604
1.1003,669
1.101967,641
1.103633,558
1.1053,547
1.106967,660
1.108633,716
1.1103,769
1.111967,750
1.113633,671
1.1153,626
1.116967,549
1.118633,494
1.1203,691
1.121967,613
1.123633,606
1.1253,607
1.126967,535
1.128633,566
1.1303,598
1.131967,558
1.133633,616
1.1353,617
1.136967,618
1.138633,643
1.1403,668
1.141967,575
1.143633,564
1.1453,651
1.146967,616
1.148633,581
1.1503,599
1.151967,636
1.153633,673
1.1553,651
1.156967,726
1.158633,702
1.1603,668
1.161967,634
1.163633,710
1.1653,717
1.166967,568
1.168633,769
1.1703,625
1.171967,654
1.173633,698
1.1753,743
1.176967,738
1.178633,636
1.1803,680
1.181967,632
1.183633,584
1.1853,622
1.186967,661
1.188633,720
1.1903,696
1.191967,673
1.193633,677
1.1953,755
1.196967,775
1.198633,822
