"SampleName","A2Rd2_02-63"
"Target Mass 1",
"Column Name","IA-3 (3um, 4.6X100)"
"Channel","QDa 1: SIR Ch2"
0.00195,565
0.003616667,782
0.005283333,570
0.00695,825
0.008616666,777
0.01028333,846
0.01195,1017
0.01361667,1082
0.01528333,1043
0.01695,927
0.01861667,815
0.02028333,933
0.02195,951
0.02361667,1088
0.02528333,1114
0.02695,870
0.02861667,957
0.03028333,857
0.03195,1019
0.03361667,713
0.03528333,999
0.03695,927
0.03861667,1203
0.04028333,1008
0.04195,982
0.04361667,1122
0.04528333,1016
0.04695,1039
0.04861667,1063
0.05028334,1101
0.05195,861
0.05361667,954
0.05528333,854
0.05695,804
0.05861667,1030
0.06028333,958
0.06195,869
0.06361666,886
0.06528334,1006
0.06695,1146
0.06861667,1103
0.07028333,788
0.07195,963
0.07361667,963
0.07528333,1144
0.07695,1115
0.07861666,834
0.08028334,975
0.08195,921
0.08361667,942
0.08528333,793
0.08695,1001
0.08861667,1146
0.09028333,1055
0.09195,779
0.09361666,951
0.09528334,958
0.09695,927
0.09861667,941
0.1002833,992
0.10195,875
0.1036167,867
0.1052833,848
0.10695,922
0.1086167,917
0.1102833,912
0.11195,1004
0.1136167,972
0.1152833,940
0.11695,901
0.1186167,969
0.1202833,965
0.12195,905
0.1236167,844
0.1252833,1008
0.12695,800
0.1286167,937
0.1302833,860
0.13195,1022
0.1336167,1085
0.1352833,863
0.13695,807
0.1386167,872
0.1402833,858
0.14195,966
0.1436167,930
0.1452833,1033
0.14695,958
0.1486167,962
0.1502833,993
0.15195,1023
0.1536167,1071
0.1552833,853
0.15695,1052
0.1586167,895
0.1602833,1041
0.16195,929
0.1636167,896
0.1652833,796
0.16695,787
0.1686167,914
0.1702833,764
0.17195,1007
0.1736167,914
0.1752833,1027
0.17695,993
0.1786167,866
0.1802833,996
0.18195,794
0.1836167,971
0.1852833,947
0.18695,906
0.1886167,852
0.1902833,802
0.19195,875
0.1936167,850
0.1952833,825
0.19695,868
0.1986167,878
0.2002833,894
0.20195,911
0.2036167,906
0.2052833,943
0.20695,931
0.2086167,920
0.2102833,978
0.21195,1141
0.2136167,1099
0.2152833,1052
0.21695,1005
0.2186167,1047
0.2202833,1066
0.22195,908
0.2236167,975
0.2252833,1075
0.22695,1263
0.2286333,1173
0.2302833,1178
0.23195,1179
0.2336167,1181
0.2352833,1168
0.23695,1154
0.2386167,1243
0.2402833,1265
0.24195,1284
0.2436167,1233
0.2453,1182
0.24695,1329
0.2486167,1122
0.2502833,1236
0.25195,1260
0.2536167,1102
0.2552833,1276
0.25695,1223
0.2586167,1265
0.2602833,1302
0.26195,1027
0.2636167,1084
0.2652833,1252
0.26695,1130
0.2686167,1236
0.2702833,1208
0.27195,1203
0.2736167,899
0.2752833,979
0.27695,1105
0.2786167,1135
0.2803,1008
0.28195,1191
0.2836167,832
0.2852833,1029
0.28695,806
0.2886167,1030
0.2902833,905
0.2919667,1087
0.2936167,901
0.2952833,967
0.29695,1033
0.2986333,1078
0.3002833,1113
0.30195,1150
0.3036167,965
0.3052833,1161
0.30695,1103
0.3086167,1164
0.3102833,1198
0.31195,1232
0.3136167,1222
0.3153,1213
0.31695,1271
0.3186167,1329
0.3202833,1474
0.32195,1425
0.3236167,1376
0.3252833,1302
0.32695,1092
0.3286167,1081
0.3302833,1165
0.33195,1250
0.3336333,1254
0.3352833,1213
0.3369667,1207
0.3386167,1306
0.3402833,1303
0.3419667,1300
0.3436167,1311
0.3452833,1322
0.34695,1334
0.3486167,1319
0.3503,1305
0.35195,1323
0.3536333,1304
0.3553,1284
0.35695,1402
0.3586167,1539
0.3602833,1468
0.36195,1336
0.3636167,1717
0.3652833,2405
0.3669667,3065
0.3686333,3391
0.3703,3578
0.3719667,3276
0.3736333,2996
0.3752833,3623
0.3769667,3075
0.3786167,2707
0.3803,2797
0.38195,3196
0.3836333,2381
0.3853,2128
0.3869667,1802
0.3886333,1396
0.3902833,1214
0.3919667,980
0.3936167,844
0.3952833,731
0.39695,483
0.3986167,542
0.4003,543
0.40195,452
0.4036333,462
0.4053,533
0.4069667,403
0.4086333,568
0.4103,648
0.4119667,526
0.4136333,590
0.4153,564
0.4169667,678
0.4186167,680
0.4203,895
0.4219667,830
0.4236333,871
0.4253,838
0.4269667,754
0.4286333,861
0.4303,856
0.4319667,987
0.4336333,942
0.4353,966
0.4369667,714
0.4386333,1118
0.4403,859
0.4419667,961
0.4436333,883
0.4453,881
0.4469667,880
0.4486333,1194
0.4503,1215
0.4519667,1325
0.4536333,1346
0.4553,1337
0.4569667,1166
0.4586333,1327
0.4603,1226
0.4619667,1293
0.4636333,1315
0.4653,1336
0.4669667,1553
0.4686333,1555
0.4703,1361
0.4719667,1521
0.4736333,1490
0.4753,1558
0.4769667,1522
0.4786333,1391
0.4803,1162
0.4819667,1250
0.4836333,1437
0.4853,1212
0.4869667,1285
0.4886333,1466
0.4903,1277
0.4919667,1180
0.4936333,1042
0.4953,1076
0.4969667,1152
0.4986333,1027
0.5003,1222
0.5019667,1155
0.5036333,1186
0.5053,1148
0.5069667,996
0.5086333,981
0.5103,1117
0.5119666,803
0.5136333,913
0.5153,988
0.5169666,878
0.5186333,940
0.5203,1017
0.5219667,840
0.5236334,977
0.5253,948
0.5269667,989
0.5286334,897
0.5303,1047
0.5319667,1007
0.5336334,967
0.5353,945
0.5369667,923
0.5386333,946
0.5403,969
0.5419667,1013
0.5436333,1086
0.5453,856
0.5469667,926
0.5486333,993
0.5503,953
0.5519667,913
0.5536333,1028
0.5553,1068
0.5569667,1158
0.5586333,1187
0.5603,934
0.5619667,830
0.5636333,901
0.5653,962
0.5669667,879
0.5686333,896
0.5703,913
0.5719666,875
0.5736333,1033
0.5753,1071
0.5769666,858
0.5786333,968
0.5803,879
0.5819666,789
0.5836333,794
0.5853,874
0.5869667,751
0.5886334,830
0.5903,909
0.5919667,954
0.5936334,844
0.5953,977
0.5969667,969
0.5986333,1072
0.6003,1059
0.6019667,962
0.6036333,968
0.6053,976
0.6069667,984
0.6086333,979
0.6103,882
0.6119667,956
0.6136333,943
0.6153,931
0.6169667,932
0.6186333,912
0.6203,892
0.6219667,832
0.6236333,1096
0.6253,1067
0.6269667,967
0.6286333,868
0.6303,1103
0.6319667,994
0.6336333,841
0.6353,1003
0.6369666,1124
0.6386333,1004
0.6403,883
0.6419666,979
0.6436333,997
0.6453,797
0.6469667,991
0.6486334,897
0.6503,881
0.6519667,975
0.6536334,1027
0.6553,1088
0.6569667,955
0.6586334,676
0.6603,961
0.6619667,952
0.6636333,847
0.6653,858
0.6669667,868
0.6686333,961
0.6703,1054
0.6719667,1098
0.6736333,1090
0.6753,1131
0.6769667,1173
0.6786333,1431
0.6803,2027
0.6819667,2004
0.6836333,2513
0.6853,2898
0.6869667,2939
0.6886333,3669
0.6903,3905
0.6919667,4439
0.6936333,4836
0.6953,4758
0.6969666,5105
0.6986333,5791
0.7003,5706
0.7019666,5688
0.7036333,5467
0.7053,5259
0.7069666,5260
0.7086333,5261
0.7103,5449
0.7119667,4711
0.7136334,4943
0.7153,5003
0.7169667,4784
0.7186334,4774
0.7203,4764
0.7219667,4833
0.7236333,4636
0.7253,4166
0.7269667,4649
0.7286333,3910
0.7303,3988
0.7319667,3522
0.7336333,2981
0.7353,3170
0.7369667,2792
0.7386333,2428
0.7403,2826
0.7419667,1827
0.7436333,1917
0.7453,1691
0.7469667,1866
0.7486333,1564
0.7503,1348
0.7519667,1438
0.7536333,1380
0.7553,1234
0.7569667,1064
0.7586333,1185
0.7603,1190
0.7619666,1074
0.7636333,1030
0.7653,1158
0.7669666,1111
0.7686333,1065
0.7703,1298
0.7719667,1272
0.7736334,1243
0.7753,1592
0.7769667,1575
0.7786334,1836
0.7803,2144
0.7819667,2496
0.7836334,2847
0.7853,3518
0.7869667,3919
0.7886333,4475
0.7903,5433
0.7919667,6567
0.7936333,7269
0.7953,7892
0.7969667,8063
0.7986333,9460
0.8003,8996
0.8019667,10332
0.8036333,9832
0.8053,10112
0.8069667,9796
0.8086333,10064
0.8103,9300
0.8119667,8656
0.8136333,9728
0.8153,9100
0.8169667,8916
0.8186333,8672
0.8203,8014
0.8219666,8544
0.8236333,8532
0.8253,8048
0.8269666,8656
0.8286333,8224
0.8303,7994
0.8319666,8444
0.8336333,7777
0.8353,7414
0.8369667,6571
0.8386334,6613
0.8403,5888
0.8419667,4952
0.8436334,5104
0.8453,4783
0.8469667,4091
0.8486333,3880
0.8503,3744
0.8519667,3370
0.8536333,3231
0.8553,2973
0.8569667,2452
0.8586333,2417
0.8603,2308
0.8619667,2227
0.8636333,2223
0.8653,2008
0.8669667,1576
0.8686333,1458
0.8703,1927
0.8719667,1296
0.8736333,1204
0.8753,1235
0.8769667,1452
0.8786333,1483
0.8803,1652
0.8819667,1610
0.8836333,1701
0.8853,1763
0.8869666,1824
0.8886333,1695
0.8903,1841
0.8919666,1533
0.8936333,1782
0.8953,1670
0.8969667,1477
0.8986334,1719
0.9003,1663
0.9019667,1480
0.9036334,1784
0.9053,1584
0.9069667,1632
0.9086334,1422
0.9103,1412
0.9119667,1402
0.9136333,1425
0.9153,1410
0.9169667,1395
0.9186333,1420
0.9203,1334
0.9219667,1374
0.9236333,1413
0.9253,1322
0.9269667,1237
0.9286333,1516
0.9303,1542
0.9319667,1359
0.9336333,1046
0.9353,1357
0.9369667,1480
0.9386333,1335
0.9403,1529
0.9419667,1320
0.9436333,1293
0.9453,1332
0.9469666,1371
0.9486333,1370
0.9503,1361
0.9519666,1442
0.9536333,1522
0.9553,1756
0.9569666,1928
0.9586333,2205
0.9603,2316
0.9619667,2347
0.9636334,3058
0.9653,2898
0.9669667,3579
0.9686334,3822
0.9703,4360
0.9719667,4669
0.9736333,5807
0.9753,5887
0.9769667,6089
0.9786333,7071
0.9803,6947
0.9819667,7998
0.9836333,8232
0.9853,8106
0.9869667,8320
0.9886333,8026
0.9903,8484
0.9919667,8932
0.9936333,8968
0.9953,8856
0.9969667,8328
0.9986333,8424
1.0003,8336
1.001967,7390
1.003633,7672
1.0053,8098
1.006967,7744
1.008633,7826
1.0103,7705
1.011967,7377
1.013633,7804
1.0153,7758
1.016967,7835
1.018633,7643
1.0203,7956
1.021967,8003
1.023633,7585
1.0253,7512
1.026967,6956
1.028633,6723
1.0303,6310
1.031967,6638
1.033633,6295
1.0353,5857
1.036967,5366
1.038633,5550
1.0403,4808
1.041967,4618
1.043633,4270
1.0453,4463
1.046967,3860
1.048633,3875
1.0503,3992
1.051967,3762
1.053633,3628
1.0553,3692
1.056967,3485
1.058633,3563
1.0603,3600
1.061967,3637
1.063633,3603
1.0653,4074
1.066967,4473
1.068633,4355
1.0703,4149
1.071967,4513
1.073633,4868
1.0753,4642
1.076967,4531
1.078633,4771
1.0803,4685
1.081967,4666
1.083633,4640
1.0853,4365
1.086967,4311
1.088633,4257
1.0903,4351
1.091967,4366
1.093633,4382
1.0953,3941
1.096967,4670
1.098633,4222
1.1003,4198
1.101967,4085
1.103633,4199
1.1053,4180
1.106967,3771
1.108633,4006
1.1103,3124
1.111967,4235
1.113633,4124
1.1153,3741
1.116967,3711
1.118633,3873
1.1203,3323
1.121967,3242
1.123633,3395
1.1253,2818
1.126967,2789
1.128633,2956
1.1303,2936
1.131967,2915
1.133633,2643
1.1353,2568
1.136967,2522
1.138633,1990
1.1403,2097
1.141967,2193
1.143633,2027
1.1453,1905
1.146967,1987
1.148633,1579
1.1503,1853
1.151967,1667
1.153633,1844
1.1553,1464
1.156967,1408
1.158633,1408
1.1603,1397
1.161967,1516
1.163633,1537
1.1653,1325
1.166967,1276
1.168633,1329
1.1703,1045
1.171967,1374
1.173633,1209
1.1753,1249
1.176967,1308
1.178633,1137
1.1803,1324
1.181967,1254
1.183633,1258
1.1853,986
1.186967,1320
1.188633,1217
1.1903,993
1.191967,1398
1.193633,1199
1.1953,1333
1.196967,1281
1.198633,1266
