"SampleName","A2Rd2_02-85"
"Target Mass 1",
"Column Name","IA-3 (3um, 4.6X100)"
"Channel","QDa 1: SIR Ch1"
0.00195,368
0.003616667,488
0.005283333,564
0.00695,607
0.008616666,466
0.01028333,495
0.01195,425
0.01361667,533
0.01528333,575
0.01695,578
0.01861667,523
0.02028333,520
0.02195,430
0.02361667,539
0.02528333,482
0.02695,425
0.02861667,438
0.03028333,452
0.03195,382
0.03361667,476
0.03528333,465
0.03695,560
0.03861667,515
0.04028333,458
0.04195,334
0.04361667,552
0.04528333,515
0.04695,437
0.04861667,485
0.05028334,524
0.05195,492
0.05361667,461
0.05528333,424
0.05695,535
0.05861667,476
0.06028333,417
0.06195,540
0.06361666,511
0.06528334,464
0.06695,568
0.06861667,421
0.07028333,520
0.07195,652
0.07361667,597
0.07528333,510
0.07695,411
0.07861666,315
0.08028334,536
0.08195,610
0.08361667,535
0.08528333,556
0.08695,490
0.08861667,368
0.09028333,405
0.09195,445
0.09361666,485
0.09528334,497
0.09695,509
0.09861667,421
0.1002833,440
0.10195,433
0.1036167,425
0.1052833,322
0.10695,344
0.1086167,365
0.1102833,424
0.11195,482
0.1136167,527
0.1152833,446
0.11695,397
0.1186167,576
0.1202833,533
0.12195,448
0.1236167,395
0.1252833,484
0.12695,428
0.1286167,446
0.1302833,495
0.13195,418
0.1336167,430
0.1352833,526
0.13695,350
0.1386167,374
0.1402833,532
0.14195,492
0.1436167,418
0.1452833,553
0.14695,515
0.1486167,584
0.1502833,354
0.15195,584
0.1536167,518
0.1552833,455
0.15695,580
0.1586167,570
0.1602833,601
0.16195,361
0.1636167,523
0.1652833,389
0.16695,571
0.1686167,417
0.1702833,638
0.17195,626
0.1736167,484
0.1752833,393
0.17695,489
0.1786167,541
0.1802833,448
0.18195,664
0.1836167,618
0.1852833,400
0.18695,488
0.1886167,474
0.1902833,497
0.19195,471
0.1936167,454
0.1952833,436
0.19695,496
0.1986167,413
0.2002833,569
0.20195,615
0.2036167,567
0.2052833,490
0.20695,479
0.2086167,427
0.2102833,382
0.21195,523
0.2136167,458
0.2152833,503
0.21695,520
0.2186167,541
0.2202833,604
0.22195,412
0.2236167,468
0.2252833,599
0.22695,401
0.2286167,535
0.2302833,542
0.23195,448
0.2336167,508
0.2352833,458
0.23695,435
0.2386167,412
0.2402833,458
0.2419667,395
0.2436167,403
0.2453,411
0.24695,411
0.2486167,411
0.2502833,535
0.25195,493
0.2536167,451
0.2552833,443
0.25695,614
0.2586167,575
0.2602833,344
0.26195,367
0.2636333,545
0.2652833,499
0.26695,584
0.2686167,389
0.2703,457
0.27195,567
0.2736167,472
0.2752833,521
0.27695,461
0.2786167,376
0.2803,460
0.28195,480
0.2836167,467
0.2852833,449
0.28695,430
0.2886167,432
0.2902833,429
0.2919667,458
0.2936167,551
0.2952833,535
0.29695,495
0.2986333,578
0.3003,556
0.30195,582
0.3036333,417
0.3052833,402
0.30695,548
0.3086333,479
0.3102833,448
0.31195,418
0.3136167,405
0.3153,445
0.3169667,485
0.3186333,516
0.3202833,533
0.3219667,521
0.3236167,510
0.3253,537
0.32695,513
0.3286167,502
0.3302833,492
0.33195,506
0.3336333,527
0.3352833,557
0.3369667,560
0.3386167,588
0.3403,467
0.3419667,538
0.3436333,449
0.3452833,540
0.3469667,443
0.3486333,442
0.3503,442
0.3519667,464
0.3536333,487
0.3553,393
0.3569667,452
0.3586333,510
0.3602833,562
0.3619667,687
0.3636167,788
0.3653,1111
0.3669667,1927
0.3686333,2840
0.3703,3516
0.3719667,3834
0.3736333,3736
0.3753,3070
0.3769667,3880
0.3786333,3868
0.3803,4015
0.3819667,4186
0.3836333,4475
0.3853,4544
0.3869667,3279
0.3886333,3006
0.3903,2585
0.3919667,2008
0.3936333,1510
0.3953,1667
0.3969667,1210
0.3986333,1324
0.4003,1218
0.4019667,951
0.4036333,884
0.4053,1109
0.4069667,776
0.4086333,1126
0.4103,995
0.4119667,944
0.4136333,1156
0.4153,949
0.4169667,1086
0.4186333,938
0.4203,1053
0.4219667,959
0.4236333,919
0.4253,880
0.4269667,1006
0.4286333,1067
0.4303,1546
0.4319667,1524
0.4336333,1970
0.4353,3126
0.4369667,5525
0.4386333,8328
0.4403,15556
0.4419667,24940
0.4436333,38976
0.4453,56240
0.4469667,77232
0.4486333,100480
0.4503,123632
0.4519667,148864
0.4536333,174080
0.4553,197184
0.4569667,217984
0.4586333,235456
0.4603,249088
0.4619667,259392
0.4636333,262080
0.4653,268160
0.4669667,267200
0.4686333,262016
0.4703,271744
0.4719667,273472
0.4736333,280832
0.4753,277952
0.4769667,289600
0.4786333,294592
0.4803,305088
0.4819667,304064
0.4836333,301056
0.4853,289408
0.4869667,275008
0.4886333,253312
0.4903,234304
0.4919667,209984
0.4936333,189440
0.4953,165184
0.4969667,140800
0.4986333,119744
0.5003,102448
0.5019667,85824
0.5036333,71376
0.5053,57552
0.5069667,47952
0.5086333,40400
0.5103,31636
0.5119666,27216
0.5136333,21476
0.5153,18588
0.5169666,14952
0.5186333,13348
0.5203,12344
0.5219667,10240
0.5236334,9416
0.5253,7823
0.5269667,7207
0.5286334,6220
0.5303,6075
0.5319667,5760
0.5336334,4897
0.5353,4638
0.5369667,5012
0.5386333,4044
0.5403,4061
0.5419667,3762
0.5436333,3781
0.5453,3641
0.5469667,3082
0.5486333,3158
0.5503,3620
0.5519667,3138
0.5536333,2775
0.5553,3042
0.5569667,2488
0.5586333,2731
0.5603,2507
0.5619667,2621
0.5636333,2277
0.5653,2308
0.5669667,2314
0.5686333,2131
0.5703,2218
0.5719666,1952
0.5736333,1896
0.5753,1937
0.5769666,1977
0.5786333,1993
0.5803,2058
0.5819666,1861
0.5836333,1915
0.5853,1512
0.5869667,1837
0.5886334,1535
0.5903,1736
0.5919667,1755
0.5936334,1549
0.5953,1860
0.5969667,1582
0.5986333,1611
0.6003,1591
0.6019667,1547
0.6036333,1519
0.6053,1544
0.6069667,1482
0.6086333,1431
0.6103,1465
0.6119667,1438
0.6136333,1566
0.6153,1304
0.6169667,1313
0.6186333,1485
0.6203,1181
0.6219667,1471
0.6236333,1347
0.6253,1295
0.6269667,1262
0.6286333,1301
0.6303,1142
0.6319667,1303
0.6336333,1195
0.6353,1382
0.6369666,1067
0.6386333,984
0.6403,1096
0.6419666,1253
0.6436333,1159
0.6453,1065
0.6469667,1102
0.6486334,1108
0.6503,1051
0.6519667,1084
0.6536334,1048
0.6553,1155
0.6569667,1188
0.6586334,1061
0.6603,1112
0.6619667,1073
0.6636333,1117
0.6653,1015
0.6669667,1219
0.6686333,818
0.6703,1216
0.6719667,963
0.6736333,1107
0.6753,1116
0.6769667,941
0.6786333,1010
0.6803,1115
0.6819667,970
0.6836333,880
0.6853,1055
0.6869667,869
0.6886333,1002
0.6903,1041
0.6919667,1117
0.6936333,1027
0.6953,971
0.6969666,874
0.6986333,1042
0.7003,1009
0.7019666,975
0.7036333,871
0.7053,1035
0.7069666,1110
0.7086333,1002
0.7103,1013
0.7119667,876
0.7136334,925
0.7153,935
0.7169667,940
0.7186334,945
0.7203,888
0.7219667,840
0.7236333,846
0.7253,851
0.7269667,1070
0.7286333,1001
0.7303,932
0.7319667,1055
0.7336333,889
0.7353,928
0.7369667,884
0.7386333,840
0.7403,787
0.7419667,927
0.7436333,848
0.7453,889
0.7469667,937
0.7486333,883
0.7503,1004
0.7519667,980
0.7536333,956
0.7553,931
0.7569667,858
0.7586333,916
0.7603,974
0.7619666,948
0.7636333,922
0.7653,814
0.7669666,1035
0.7686333,776
0.7703,849
0.7719667,1025
0.7736334,1135
0.7753,1065
0.7769667,818
0.7786334,807
0.7803,1148
0.7819667,980
0.7836334,805
0.7853,950
0.7869667,998
0.7886333,1020
0.7903,895
0.7919667,889
0.7936333,899
0.7953,936
0.7969667,973
0.7986333,1034
0.8003,732
0.8019667,770
0.8036333,871
0.8053,960
0.8069667,888
0.8086333,922
0.8103,956
0.8119667,814
0.8136333,997
0.8153,1125
0.8169667,1137
0.8186333,1008
0.8203,1082
0.8219666,794
0.8236333,1104
0.8253,1020
0.8269666,1009
0.8286333,996
0.8303,1091
0.8319666,1166
0.8336333,1116
0.8353,977
0.8369667,1140
0.8386334,824
0.8403,1008
0.8419667,1154
0.8436334,998
0.8453,1043
0.8469667,1114
0.8486333,1168
0.8503,933
0.8519667,865
0.8536333,1009
0.8553,1060
0.8569667,846
0.8586333,894
0.8603,859
0.8619667,782
0.8636333,908
0.8653,849
0.8669667,830
0.8686333,810
0.8703,822
0.8719667,931
0.8736333,911
0.8753,1256
0.8769667,1547
0.8786333,1913
0.8803,2543
0.8819667,2731
0.8836333,2849
0.8853,3484
0.8869666,3846
0.8886333,3691
0.8903,3756
0.8919666,3830
0.8936333,3904
0.8953,3814
0.8969667,3799
0.8986334,3797
0.9003,3795
0.9019667,3803
0.9036334,3800
0.9053,3798
0.9069667,3776
0.9086334,3755
0.9103,3949
0.9119667,3562
0.9136333,3794
0.9153,3616
0.9169667,3673
0.9186333,3467
0.9203,3585
0.9219667,3703
0.9236333,3654
0.9253,3835
0.9269667,3802
0.9286333,3545
0.9303,3543
0.9319667,3188
0.9336333,3469
0.9353,3421
0.9369667,3300
0.9386333,3280
0.9403,3264
0.9419667,3172
0.9436333,3147
0.9453,3122
0.9469666,3185
0.9486333,3012
0.9503,2707
0.9519666,2857
0.9536333,2364
0.9553,2307
0.9569666,2209
0.9586333,2104
0.9603,1999
0.9619667,2064
0.9636334,1987
0.9653,1954
0.9669667,1709
0.9686334,1842
0.9703,1853
0.9719667,1504
0.9736333,1522
0.9753,1268
0.9769667,1145
0.9786333,1222
0.9803,1192
0.9819667,1145
0.9836333,868
0.9853,939
0.9869667,1002
0.9886333,812
0.9903,871
0.9919667,834
0.9936333,901
0.9953,760
0.9969667,699
0.9986333,616
1.0003,771
1.001967,693
1.003633,783
1.0053,572
1.006967,674
1.008633,627
1.0103,564
1.011967,637
1.013633,711
1.0153,703
1.016967,643
1.018633,636
1.0203,748
1.021967,767
1.023633,697
1.0253,632
1.026967,749
1.028633,634
1.0303,710
1.031967,677
1.033633,659
1.0353,641
1.036967,659
1.038633,673
1.0403,621
1.041967,707
1.043633,710
1.0453,713
1.046967,621
1.048633,635
1.0503,650
1.051967,721
1.053633,907
1.0553,909
1.056967,747
1.058633,808
1.0603,723
1.061967,548
1.063633,595
1.0653,779
1.066967,772
1.068633,663
1.0703,677
1.071967,875
1.073633,915
1.0753,708
1.076967,777
1.078633,799
1.0803,720
1.081967,717
1.083633,757
1.0853,742
1.086967,728
1.088633,754
1.0903,523
1.091967,707
1.093633,767
1.0953,614
1.096967,657
1.098633,644
1.1003,631
1.101967,630
1.103633,629
1.1053,722
1.106967,736
1.108633,651
1.1103,565
1.111967,680
1.113633,792
1.1153,922
1.116967,963
1.118633,801
1.1203,656
1.121967,628
1.123633,832
1.1253,652
1.126967,809
1.128633,789
1.1303,796
1.131967,787
1.133633,777
1.1353,655
1.136967,860
1.138633,595
1.1403,720
1.141967,830
1.143633,775
1.1453,798
1.146967,646
1.148633,786
1.1503,645
1.151967,701
1.153633,700
1.1553,753
1.156967,771
1.158633,782
1.1603,732
1.161967,731
1.163633,730
1.1653,745
1.166967,760
1.168633,749
1.1703,738
1.171967,730
1.173633,723
1.1753,771
1.176967,819
1.178633,793
1.1803,810
1.181967,842
1.183633,748
1.1853,755
1.186967,761
1.188633,786
1.1903,760
1.191967,734
1.193633,765
1.1953,796
1.196967,846
1.198633,988
