"SampleName","A2Rd2_02-22"
"Target Mass 1",
"Column Name","IA-3 (3um, 4.6X100)"
"Channel","QDa 1: SIR Ch2"
0.00195,338
0.003616667,620
0.005283333,820
0.00695,867
0.008616666,963
0.01028333,909
0.01195,1088
0.01361667,1028
0.01528333,1126
0.01695,992
0.01861667,1127
0.02028333,988
0.02195,993
0.02361667,919
0.02528333,818
0.02695,906
0.02861667,847
0.03028333,844
0.03195,932
0.03361667,1041
0.03528333,1013
0.03695,881
0.03861667,1037
0.04028333,927
0.04195,979
0.04361667,910
0.04528333,1016
0.04695,1042
0.04861667,975
0.05028334,852
0.05195,1051
0.05361667,1056
0.05528333,790
0.05695,1008
0.05861667,925
0.06028333,958
0.06195,780
0.06361666,1039
0.06528334,913
0.06695,888
0.06861667,890
0.07028333,889
0.07195,768
0.07361667,916
0.07528333,949
0.07695,874
0.07861666,989
0.08028334,1067
0.08195,768
0.08361667,966
0.08528333,832
0.08695,1014
0.08861667,847
0.09028333,916
0.09195,879
0.09361666,892
0.09528334,961
0.09695,1031
0.09861667,988
0.1002833,883
0.10195,893
0.1036167,791
0.1052833,1069
0.10695,1109
0.1086167,821
0.1102833,915
0.11195,1122
0.1136167,794
0.1152833,913
0.11695,881
0.1186167,851
0.1202833,890
0.12195,930
0.1236167,943
0.1252833,942
0.12695,940
0.1286167,960
0.1302833,979
0.13195,1064
0.1336167,756
0.1352833,886
0.13695,815
0.1386167,853
0.1402833,989
0.14195,1061
0.1436167,996
0.1452833,798
0.14695,896
0.1486167,855
0.1502833,956
0.15195,905
0.1536167,1016
0.1552833,977
0.15695,819
0.1586167,783
0.1602833,811
0.16195,848
0.1636167,881
0.1652833,852
0.16695,822
0.1686167,835
0.1702833,918
0.17195,693
0.1736167,742
0.1752833,955
0.17695,831
0.1786167,1018
0.1802833,946
0.18195,972
0.1836167,1041
0.1852833,974
0.18695,740
0.1886167,721
0.1902833,914
0.19195,923
0.1936167,832
0.1952833,1029
0.19695,1030
0.1986167,930
0.2002833,919
0.20195,821
0.2036167,936
0.2052833,926
0.20695,915
0.2086167,929
0.2102833,964
0.21195,675
0.2136167,921
0.2152833,1161
0.21695,1039
0.2186167,999
0.2202833,1040
0.22195,1016
0.2236167,992
0.2252833,1054
0.22695,1086
0.2286167,1118
0.2302833,1254
0.23195,1205
0.2336167,997
0.2352833,1053
0.23695,1312
0.2386167,1387
0.2402833,1314
0.24195,1193
0.2436167,1215
0.2452833,1263
0.24695,945
0.2486167,1360
0.2502833,1167
0.25195,1343
0.2536167,1056
0.2552833,1268
0.25695,1276
0.2586167,1375
0.2602833,1087
0.26195,1168
0.2636333,915
0.2652833,1184
0.26695,1078
0.2686167,1067
0.2702833,1144
0.27195,1085
0.2736167,993
0.2752833,1185
0.27695,1098
0.2786167,1028
0.2803,1055
0.2819667,1014
0.2836167,771
0.2852833,1091
0.28695,1003
0.2886167,922
0.2902833,1055
0.29195,1145
0.2936167,1072
0.2952833,1271
0.29695,1282
0.2986333,1035
0.3002833,1165
0.30195,1012
0.3036167,826
0.3052833,984
0.30695,1206
0.3086167,1285
0.3102833,1301
0.31195,1276
0.3136333,1170
0.3153,1274
0.31695,1225
0.3186167,1200
0.3202833,1284
0.32195,1195
0.3236167,1215
0.3252833,1128
0.32695,1193
0.3286333,1199
0.3302833,1205
0.3319667,1249
0.3336333,1258
0.3353,1267
0.3369667,1271
0.3386333,1291
0.3402833,1405
0.34195,1452
0.3436167,1350
0.3453,1289
0.3469667,1381
0.3486333,1362
0.3503,1347
0.3519667,1408
0.3536333,1469
0.3553,1262
0.3569667,1414
0.3586333,1383
0.3602833,1289
0.3619667,1397
0.3636333,1738
0.3653,2247
0.3669667,3014
0.3686333,3746
0.3703,3703
0.3719667,3284
0.3736167,3777
0.3753,3796
0.37695,3793
0.3786333,3753
0.3803,3713
0.3819667,3310
0.3836333,2440
0.3853,2036
0.3869667,1492
0.3886333,1256
0.3903,994
0.3919667,863
0.3936333,746
0.3953,599
0.3969667,552
0.3986333,561
0.4003,505
0.4019667,461
0.4036333,510
0.4053,481
0.4069667,452
0.4086333,497
0.4103,542
0.4119667,583
0.4136333,575
0.4153,497
0.4169667,557
0.4186333,617
0.4203,637
0.4219667,657
0.4236333,699
0.4253,699
0.4269667,662
0.4286333,826
0.4303,845
0.4319667,857
0.4336333,860
0.4353,884
0.4369667,921
0.4386333,936
0.4403,951
0.4419667,1151
0.4436333,1099
0.4453,1004
0.4469667,1191
0.4486333,1182
0.4503,1182
0.4519667,1192
0.4536333,1234
0.4553,1289
0.4569667,1311
0.4586333,1315
0.4603,1320
0.4619667,1420
0.4636333,1187
0.4653,1402
0.4669667,1308
0.4686333,1317
0.4703,1304
0.4719667,1292
0.4736333,1262
0.4753,1232
0.4769667,1224
0.4786333,1215
0.4803,1240
0.4819667,1266
0.4836333,1385
0.4853,1067
0.4869667,1143
0.4886333,1248
0.4903,1240
0.4919667,1095
0.4936333,1192
0.4953,988
0.4969667,1015
0.4986333,1038
0.5003,1062
0.5019667,843
0.5036333,871
0.5053,899
0.5069667,1062
0.5086333,1114
0.5103,945
0.5119666,909
0.5136333,1100
0.5153,1066
0.5169666,926
0.5186333,776
0.5203,1021
0.5219667,941
0.5236334,851
0.5253,1019
0.5269667,999
0.5286334,979
0.5303,841
0.5319667,847
0.5336334,963
0.5353,940
0.5369667,943
0.5386333,946
0.5403,843
0.5419667,934
0.5436333,1025
0.5453,991
0.5469667,928
0.5486333,999
0.5503,1069
0.5519667,854
0.5536333,1005
0.5553,823
0.5569667,920
0.5586333,784
0.5603,973
0.5619667,969
0.5636333,965
0.5653,975
0.5669667,985
0.5686333,925
0.5703,852
0.5719666,921
0.5736333,925
0.5753,930
0.5769666,989
0.5786333,831
0.5803,855
0.5819666,879
0.5836333,1124
0.5853,1108
0.5869667,811
0.5886334,1090
0.5903,880
0.5919667,1169
0.5936334,1150
0.5953,1116
0.5969667,985
0.5986333,798
0.6003,960
0.6019667,839
0.6036333,1019
0.6053,1111
0.6069667,1140
0.6086333,1002
0.6103,1029
0.6119667,1014
0.6136333,1051
0.6153,1124
0.6169667,1127
0.6186333,946
0.6203,1118
0.6219667,1067
0.6236333,997
0.6253,1181
0.6269667,1235
0.6286333,1200
0.6303,1148
0.6319667,1008
0.6336333,1095
0.6353,1137
0.6369666,1109
0.6386333,955
0.6403,973
0.6419666,992
0.6436333,960
0.6453,1073
0.6469667,1171
0.6486334,1196
0.6503,1093
0.6519667,1051
0.6536334,1088
0.6553,971
0.6569667,916
0.6586334,955
0.6603,995
0.6619667,995
0.6636333,995
0.6653,1196
0.6669667,1180
0.6686333,1141
0.6703,1616
0.6719667,1663
0.6736333,1806
0.6753,2457
0.6769667,2849
0.6786333,3247
0.6803,5179
0.6819667,5724
0.6836333,7770
0.6853,9596
0.6869667,12152
0.6886333,14092
0.6903,17288
0.6919667,19916
0.6936333,21672
0.6953,23992
0.6969666,24624
0.6986333,27016
0.7003,28048
0.7019666,30076
0.7036333,29016
0.7053,29732
0.7069666,29744
0.7086333,28620
0.7103,29016
0.7119667,28620
0.7136334,29508
0.7153,29772
0.7169667,27680
0.7186334,28424
0.7203,27980
0.7219667,26224
0.7236333,24492
0.7253,22328
0.7269667,19348
0.7286333,19424
0.7303,16508
0.7319667,15776
0.7336333,12040
0.7353,11236
0.7369667,9920
0.7386333,9084
0.7403,7282
0.7419667,6272
0.7436333,5623
0.7453,5224
0.7469667,5200
0.7486333,4064
0.7503,3657
0.7519667,3218
0.7536333,2777
0.7553,2580
0.7569667,2369
0.7586333,2295
0.7603,1933
0.7619666,2319
0.7636333,1967
0.7653,1924
0.7669666,2015
0.7686333,1910
0.7703,1518
0.7719667,1944
0.7736334,2206
0.7753,2422
0.7769667,2906
0.7786334,3181
0.7803,3927
0.7819667,5275
0.7836334,6853
0.7853,8700
0.7869667,11216
0.7886333,13988
0.7903,15512
0.7919667,19788
0.7936333,22476
0.7953,25352
0.7969667,29388
0.7986333,31496
0.8003,34560
0.8019667,35808
0.8036333,36832
0.8053,37216
0.8069667,39504
0.8086333,39840
0.8103,40432
0.8119667,40512
0.8136333,38768
0.8153,38976
0.8169667,38304
0.8186333,38784
0.8203,38752
0.8219666,38784
0.8236333,38112
0.8253,37888
0.8269666,37680
0.8286333,35040
0.8303,33024
0.8319666,31728
0.8336333,29572
0.8353,27252
0.8369667,24036
0.8386334,21892
0.8403,20052
0.8419667,17976
0.8436334,16296
0.8453,14592
0.8469667,12204
0.8486333,11352
0.8503,9816
0.8519667,8137
0.8536333,6978
0.8553,6401
0.8569667,6377
0.8586333,4965
0.8603,4561
0.8619667,4493
0.8636333,3283
0.8653,3881
0.8669667,3277
0.8686333,3223
0.8703,2811
0.8719667,2641
0.8736333,2227
0.8753,2244
0.8769667,2487
0.8786333,2563
0.8803,2300
0.8819667,2496
0.8836333,2692
0.8853,3073
0.8869666,2913
0.8886333,2783
0.8903,2671
0.8919666,2316
0.8936333,2217
0.8953,2563
0.8969667,2327
0.8986334,2467
0.9003,2062
0.9019667,2276
0.9036334,2018
0.9053,1962
0.9069667,1991
0.9086334,2020
0.9103,1809
0.9119667,2013
0.9136333,2033
0.9153,1931
0.9169667,1595
0.9186333,1580
0.9203,2026
0.9219667,1828
0.9236333,1760
0.9253,2039
0.9269667,1686
0.9286333,1875
0.9303,1954
0.9319667,1548
0.9336333,1877
0.9353,1677
0.9369667,1921
0.9386333,1504
0.9403,1593
0.9419667,1748
0.9436333,1796
0.9453,1620
0.9469666,2102
0.9486333,2191
0.9503,2128
0.9519666,2328
0.9536333,2567
0.9553,2962
0.9569666,3382
0.9586333,4009
0.9603,5522
0.9619667,6521
0.9636334,8133
0.9653,9236
0.9669667,11428
0.9686334,13212
0.9703,16312
0.9719667,19388
0.9736333,21944
0.9753,25568
0.9769667,27632
0.9786333,30520
0.9803,36304
0.9819667,38624
0.9836333,41776
0.9853,44720
0.9869667,48288
0.9886333,48352
0.9903,51200
0.9919667,54080
0.9936333,52160
0.9953,53024
0.9969667,54272
0.9986333,55440
1.0003,56848
1.001967,57152
1.003633,56480
1.0053,54880
1.006967,56880
1.008633,56064
1.0103,56912
1.011967,58496
1.013633,58752
1.0153,55280
1.016967,56752
1.018633,54128
1.0203,57120
1.021967,56416
1.023633,51808
1.0253,50864
1.026967,48464
1.028633,46544
1.0303,42752
1.031967,40576
1.033633,37440
1.0353,33408
1.036967,32072
1.038633,28784
1.0403,26276
1.041967,24264
1.043633,22864
1.0453,20344
1.046967,18732
1.048633,16916
1.0503,16324
1.051967,15964
1.053633,15164
1.0553,15220
1.056967,15132
1.058633,15600
1.0603,14148
1.061967,15020
1.063633,15652
1.0653,16572
1.066967,16712
1.068633,17412
1.0703,18092
1.071967,17692
1.073633,18428
1.0753,18840
1.076967,19256
1.078633,19212
1.0803,19164
1.081967,20496
1.083633,20564
1.0853,22416
1.086967,21468
1.088633,21024
1.0903,21364
1.091967,20660
1.093633,21356
1.0953,21168
1.096967,21820
1.098633,20356
1.1003,20480
1.101967,21460
1.103633,21180
1.1053,20020
1.106967,20804
1.108633,20500
1.1103,19204
1.111967,19020
1.113633,19100
1.1153,18364
1.116967,16520
1.118633,16396
1.1203,15968
1.121967,15048
1.123633,14520
1.1253,13848
1.126967,11836
1.128633,11920
1.1303,9996
1.131967,10236
1.133633,8952
1.1353,8232
1.136967,7427
1.138633,7976
1.1403,7293
1.141967,6026
1.143633,5960
1.1453,6211
1.146967,5502
1.148633,4798
1.1503,4821
1.151967,4518
1.153633,4021
1.1553,4276
1.156967,3349
1.158633,3747
1.1603,3079
1.161967,3034
1.163633,3140
1.1653,2748
1.166967,2590
1.168633,2749
1.1703,2525
1.171967,2493
1.173633,2645
1.1753,2342
1.176967,2354
1.178633,2220
1.1803,1971
1.181967,2080
1.183633,1764
1.1853,2120
1.186967,2243
1.188633,2327
1.1903,2378
1.191967,2487
1.193633,2517
1.1953,2587
1.196967,2694
1.198633,2837
