"SampleName","A2Rd2_02-89"
"Target Mass 1",
"Column Name","IA-3 (3um, 4.6X100)"
"Channel","QDa 1: SIR Ch1"
0.00195,341
0.003616667,548
0.005283333,624
0.00695,581
0.008616666,605
0.01028333,489
0.01195,528
0.01361667,488
0.01528333,519
0.01695,551
0.01861667,638
0.02028333,631
0.02195,537
0.02361667,620
0.02528333,617
0.02695,563
0.02861667,551
0.03028333,448
0.03195,552
0.03361667,520
0.03528333,488
0.03695,534
0.03861667,580
0.04028333,588
0.04195,453
0.04361667,421
0.04528333,579
0.04695,530
0.04861667,516
0.05028334,547
0.05195,689
0.05361667,695
0.05528333,761
0.05695,596
0.05861667,615
0.06028333,626
0.06195,480
0.06361666,474
0.06528334,563
0.06695,512
0.06861667,604
0.07028333,574
0.07195,544
0.07361667,464
0.07528333,520
0.07695,661
0.07861666,613
0.08028334,634
0.08195,622
0.08361667,474
0.08528333,497
0.08695,690
0.08861667,595
0.09028333,616
0.09195,549
0.09361666,578
0.09528334,540
0.09695,612
0.09861667,449
0.1002833,656
0.10195,640
0.1036167,448
0.1052833,485
0.10695,449
0.1086167,568
0.1102833,530
0.11195,491
0.1136167,500
0.1152833,508
0.11695,513
0.1186167,518
0.1202833,523
0.12195,527
0.1236167,497
0.1252833,467
0.12695,488
0.1286167,616
0.1302833,594
0.13195,563
0.1336167,604
0.1352833,464
0.13695,590
0.1386167,479
0.1402833,474
0.14195,516
0.1436167,559
0.1452833,647
0.14695,615
0.1486167,466
0.1502833,501
0.15195,501
0.1536167,500
0.1552833,356
0.15695,497
0.1586167,527
0.1602833,556
0.16195,452
0.1636167,506
0.1652833,495
0.16695,494
0.1686167,585
0.1702833,577
0.17195,527
0.1736167,613
0.1752833,539
0.17695,475
0.1786167,494
0.1802833,472
0.18195,450
0.1836167,457
0.1852833,464
0.18695,388
0.1886167,425
0.1902833,526
0.19195,519
0.1936167,512
0.1952833,461
0.19695,531
0.1986167,504
0.2002833,477
0.20195,528
0.2036167,519
0.2052833,510
0.20695,523
0.2086167,535
0.2102833,542
0.21195,522
0.2136167,513
0.2152833,505
0.21695,584
0.2186167,559
0.2202833,534
0.22195,433
0.2236167,507
0.2252833,506
0.22695,510
0.2286167,514
0.2302833,542
0.23195,510
0.2336167,479
0.2352833,424
0.23695,555
0.2386167,536
0.2402833,516
0.24195,538
0.2436167,551
0.2452833,468
0.24695,472
0.2486167,451
0.2502833,564
0.25195,554
0.2536167,519
0.2552833,484
0.25695,525
0.2586167,573
0.2602833,581
0.26195,513
0.2636167,472
0.2652833,577
0.26695,591
0.2686333,501
0.2702833,556
0.27195,573
0.2736167,545
0.2752833,517
0.27695,493
0.2786167,451
0.2803,457
0.28195,463
0.2836167,445
0.2852833,614
0.28695,536
0.2886167,458
0.2902833,473
0.29195,578
0.2936167,669
0.2952833,639
0.29695,506
0.2986333,531
0.3002833,496
0.30195,541
0.3036167,529
0.3052833,517
0.30695,494
0.3086167,472
0.3102833,510
0.31195,515
0.3136167,520
0.3153,554
0.31695,523
0.3186167,492
0.3202833,534
0.32195,576
0.3236167,553
0.3252833,390
0.32695,485
0.3286167,494
0.3303,653
0.33195,708
0.3336333,521
0.3353,593
0.3369667,546
0.3386167,502
0.3403,488
0.34195,473
0.3436167,332
0.3452833,595
0.3469667,542
0.3486333,568
0.3503,548
0.35195,527
0.3536333,499
0.3553,451
0.35695,609
0.3586167,597
0.3602833,650
0.36195,753
0.3636333,845
0.3652833,1246
0.36695,1806
0.3686333,2893
0.3703,3360
0.3719667,3691
0.3736167,3230
0.3752833,3001
0.37695,3341
0.3786167,3320
0.3803,3921
0.38195,4000
0.3836167,4091
0.3853,3925
0.38695,3473
0.3886333,2854
0.3902833,2485
0.39195,2015
0.3936167,1845
0.3952833,1364
0.3969667,1504
0.3986333,1508
0.4002833,1140
0.40195,1393
0.4036333,1541
0.4053,1340
0.4069667,1376
0.4086167,1271
0.4103,1108
0.41195,1232
0.4136333,1197
0.4153,1162
0.41695,1270
0.4186167,1438
0.4203,1368
0.4219667,1537
0.4236333,1565
0.4253,1354
0.4269667,1271
0.4286167,1490
0.4303,1497
0.43195,1503
0.4336333,2096
0.4353,3280
0.4369667,4468
0.4386333,7391
0.4403,12328
0.4419667,20484
0.4436333,34032
0.4453,49712
0.4469667,70704
0.4486333,92112
0.4503,120544
0.4519667,147776
0.4536333,173760
0.4553,200192
0.4569667,225088
0.4586333,248320
0.4603,259840
0.4619667,271616
0.4636333,278912
0.4653,283392
0.4669667,286336
0.4686333,287616
0.4703,283840
0.4719667,289024
0.4736333,287232
0.4753,290944
0.4769667,294080
0.4786333,301504
0.4803,305024
0.4819667,307264
0.4836333,301504
0.4853,290752
0.4869667,278400
0.4886333,259200
0.4903,237824
0.4919667,215744
0.4936333,191232
0.4953,164352
0.4969667,145728
0.4986333,123568
0.5003,103216
0.5019667,86176
0.5036333,72528
0.5053,60240
0.5069667,49936
0.5086333,39488
0.5103,31772
0.5119666,27452
0.5136333,21740
0.5153,19748
0.5169666,15956
0.5186333,13340
0.5203,12320
0.5219667,11032
0.5236334,9276
0.5253,8110
0.5269667,7858
0.5286334,7382
0.5303,6213
0.5319667,5395
0.5336334,5542
0.5353,5208
0.5369667,5007
0.5386333,4441
0.5403,4388
0.5419667,4109
0.5436333,3872
0.5453,3733
0.5469667,3767
0.5486333,3041
0.5503,3029
0.5519667,2879
0.5536333,2968
0.5553,2948
0.5569667,2987
0.5586333,2558
0.5603,3273
0.5619667,2476
0.5636333,2167
0.5653,2533
0.5669667,2314
0.5686333,2088
0.5703,2557
0.5719666,2348
0.5736333,2009
0.5753,2148
0.5769666,2010
0.5786333,1950
0.5803,1780
0.5819666,1885
0.5836333,1869
0.5853,1854
0.5869667,1901
0.5886334,1590
0.5903,1970
0.5919667,1997
0.5936334,1901
0.5953,1829
0.5969667,1869
0.5986333,1909
0.6003,1864
0.6019667,1820
0.6036333,1782
0.6053,1915
0.6069667,1551
0.6086333,1642
0.6103,1669
0.6119667,1565
0.6136333,1461
0.6153,1520
0.6169667,1584
0.6186333,1514
0.6203,1452
0.6219667,1510
0.6236333,1319
0.6253,1543
0.6269667,1287
0.6286333,1337
0.6303,1411
0.6319667,1238
0.6336333,1065
0.6353,1235
0.6369666,1307
0.6386333,1278
0.6403,1387
0.6419666,1116
0.6436333,1108
0.6453,1217
0.6469667,1175
0.6486334,1056
0.6503,1171
0.6519667,1139
0.6536334,1107
0.6553,1204
0.6569667,1264
0.6586334,1342
0.6603,912
0.6619667,1259
0.6636333,916
0.6653,1052
0.6669667,1188
0.6686333,1015
0.6703,1060
0.6719667,1105
0.6736333,1096
0.6753,1087
0.6769667,1049
0.6786333,1058
0.6803,1111
0.6819667,1163
0.6836333,1225
0.6853,1276
0.6869667,1074
0.6886333,947
0.6903,848
0.6919667,1026
0.6936333,1028
0.6953,941
0.6969666,954
0.6986333,734
0.7003,1066
0.7019666,826
0.7036333,1016
0.7053,1027
0.7069666,990
0.7086333,952
0.7103,987
0.7119667,946
0.7136334,904
0.7153,908
0.7169667,912
0.7186334,894
0.7203,875
0.7219667,889
0.7236333,905
0.7253,967
0.7269667,959
0.7286333,1106
0.7303,1092
0.7319667,1006
0.7336333,1087
0.7353,1049
0.7369667,995
0.7386333,1048
0.7403,1068
0.7419667,1183
0.7436333,781
0.7453,979
0.7469667,796
0.7486333,961
0.7503,871
0.7519667,782
0.7536333,976
0.7553,1017
0.7569667,1104
0.7586333,1160
0.7603,1073
0.7619666,1031
0.7636333,962
0.7653,828
0.7669666,882
0.7686333,779
0.7703,845
0.7719667,846
0.7736334,846
0.7753,900
0.7769667,874
0.7786334,847
0.7803,951
0.7819667,971
0.7836334,1007
0.7853,865
0.7869667,766
0.7886333,1007
0.7903,1124
0.7919667,1030
0.7936333,1136
0.7953,1164
0.7969667,886
0.7986333,835
0.8003,880
0.8019667,751
0.8036333,890
0.8053,948
0.8069667,1007
0.8086333,944
0.8103,881
0.8119667,1124
0.8136333,1074
0.8153,1024
0.8169667,908
0.8186333,912
0.8203,1057
0.8219666,1015
0.8236333,1116
0.8253,926
0.8269666,1056
0.8286333,1092
0.8303,1161
0.8319666,1008
0.8336333,1157
0.8353,1094
0.8369667,1097
0.8386334,944
0.8403,966
0.8419667,927
0.8436334,1031
0.8453,1155
0.8469667,1210
0.8486333,1112
0.8503,1156
0.8519667,1100
0.8536333,991
0.8553,1034
0.8569667,831
0.8586333,888
0.8603,813
0.8619667,904
0.8636333,788
0.8653,784
0.8669667,968
0.8686333,922
0.8703,875
0.8719667,908
0.8736333,829
0.8753,846
0.8769667,1225
0.8786333,1495
0.8803,2131
0.8819667,2297
0.8836333,2967
0.8853,3371
0.8869666,3711
0.8886333,3630
0.8903,3917
0.8919666,3875
0.8936333,3832
0.8953,3601
0.8969667,4001
0.8986334,3953
0.9003,3905
0.9019667,3704
0.9036334,3989
0.9053,3599
0.9069667,3656
0.9086334,3713
0.9103,3733
0.9119667,3753
0.9136333,3953
0.9153,3930
0.9169667,4174
0.9186333,4078
0.9203,3828
0.9219667,3695
0.9236333,3612
0.9253,3649
0.9269667,3585
0.9286333,3522
0.9303,3656
0.9319667,3789
0.9336333,3816
0.9353,3688
0.9369667,3832
0.9386333,3967
0.9403,3051
0.9419667,3459
0.9436333,3129
0.9453,2834
0.9469666,2787
0.9486333,2947
0.9503,2877
0.9519666,2800
0.9536333,2355
0.9553,2208
0.9569666,2411
0.9586333,2165
0.9603,2044
0.9619667,2005
0.9636334,1792
0.9653,1970
0.9669667,2017
0.9686334,1811
0.9703,1786
0.9719667,1298
0.9736333,1445
0.9753,1507
0.9769667,1253
0.9786333,1235
0.9803,1152
0.9819667,1078
0.9836333,990
0.9853,1095
0.9869667,1012
0.9886333,918
0.9903,1046
0.9919667,961
0.9936333,926
0.9953,913
0.9969667,822
0.9986333,741
1.0003,787
1.001967,766
1.003633,775
1.0053,688
1.006967,843
1.008633,602
1.0103,697
1.011967,627
1.013633,689
1.0153,679
1.016967,683
1.018633,654
1.0203,652
1.021967,663
1.023633,653
1.0253,643
1.026967,660
1.028633,657
1.0303,654
1.031967,650
1.033633,646
1.0353,656
1.036967,665
1.038633,620
1.0403,639
1.041967,682
1.043633,666
1.0453,650
1.046967,585
1.048633,592
1.0503,600
1.051967,805
1.053633,785
1.0553,713
1.056967,641
1.058633,693
1.0603,759
1.061967,721
1.063633,683
1.0653,607
1.066967,641
1.068633,675
1.0703,746
1.071967,817
1.073633,515
1.0753,833
1.076967,793
1.078633,763
1.0803,744
1.081967,739
1.083633,733
1.0853,758
1.086967,800
1.088633,782
1.0903,770
1.091967,737
1.093633,551
1.0953,762
1.096967,676
1.098633,723
1.1003,753
1.101967,556
1.103633,770
1.1053,618
1.106967,575
1.108633,747
1.1103,767
1.111967,740
1.113633,706
1.1153,779
1.116967,673
1.118633,703
1.1203,732
1.121967,628
1.123633,666
1.1253,789
1.126967,867
1.128633,875
1.1303,730
1.131967,850
1.133633,811
1.1353,813
1.136967,800
1.138633,697
1.1403,691
1.141967,652
1.143633,613
1.1453,704
1.146967,698
1.148633,692
1.1503,700
1.151967,707
1.153633,706
1.1553,706
1.156967,750
1.158633,755
1.1603,760
1.161967,758
1.163633,756
1.1653,863
1.166967,893
1.168633,967
1.1703,742
1.171967,972
1.173633,994
1.1753,815
1.176967,779
1.178633,787
1.1803,799
1.181967,811
1.183633,697
1.1853,862
1.186967,902
1.188633,809
1.1903,962
1.191967,686
1.193633,805
1.1953,906
1.196967,880
1.198633,848
