"SampleName","A2Rd2_02-4"
"Target Mass 1",
"Column Name","IA-3 (3um, 4.6X100)"
"Channel","QDa 1: SIR Ch2"
0.00195,451
0.003616667,513
0.005283333,582
0.00695,839
0.008616666,932
0.01028333,1172
0.01195,949
0.01361667,1076
0.01528333,1072
0.01695,987
0.01861667,970
0.02028333,1019
0.02195,1028
0.02361667,1047
0.02528333,965
0.02695,962
0.02861667,935
0.03028333,986
0.03195,974
0.03361667,962
0.03528333,952
0.03695,942
0.03861667,1057
0.04028333,1195
0.04195,1164
0.04361667,1191
0.04528333,926
0.04695,945
0.04861667,991
0.05028334,955
0.05195,919
0.05361667,1057
0.05528333,1087
0.05695,1053
0.05861667,1007
0.06028333,1087
0.06195,1036
0.06361666,1073
0.06528334,1006
0.06695,930
0.06861667,954
0.07028333,913
0.07195,876
0.07361667,853
0.07528333,989
0.07695,953
0.07861666,827
0.08028334,846
0.08195,1030
0.08361667,939
0.08528333,1016
0.08695,821
0.08861667,957
0.09028333,918
0.09195,985
0.09361666,813
0.09528334,858
0.09695,904
0.09861667,906
0.1002833,909
0.10195,867
0.1036167,892
0.1052833,916
0.10695,1015
0.1086167,946
0.1102833,876
0.11195,822
0.1136167,810
0.1152833,838
0.11695,795
0.1186167,927
0.1202833,989
0.12195,956
0.1236167,1124
0.1252833,1082
0.12695,1039
0.1286167,819
0.1302833,944
0.13195,910
0.1336167,941
0.1352833,845
0.13695,801
0.1386167,986
0.1402833,956
0.14195,926
0.1436167,850
0.1452833,903
0.14695,956
0.1486167,876
0.1502833,945
0.15195,876
0.1536167,919
0.1552833,961
0.15695,930
0.1586167,830
0.1602833,903
0.16195,952
0.1636167,993
0.1652833,927
0.16695,1034
0.1686167,775
0.1702833,765
0.17195,695
0.1736167,979
0.1752833,1029
0.17695,842
0.1786167,886
0.1802833,849
0.18195,846
0.1836167,757
0.1852833,669
0.18695,755
0.1886167,841
0.1902833,917
0.19195,958
0.1936167,897
0.1952833,918
0.19695,939
0.1986167,851
0.2002833,827
0.20195,803
0.2036167,919
0.2052833,957
0.20695,963
0.2086167,923
0.2102833,883
0.21195,912
0.2136167,940
0.2152833,1124
0.21695,1079
0.2186167,1054
0.2202833,1029
0.22195,1397
0.2236167,1320
0.2252833,1084
0.22695,1002
0.2286167,1377
0.2302833,1190
0.23195,1250
0.2336167,1132
0.2352833,1255
0.23695,1088
0.2386167,1159
0.2402833,1231
0.24195,1178
0.2436167,1194
0.2453,1210
0.24695,1261
0.2486167,1313
0.2502833,1323
0.25195,1195
0.2536167,1284
0.2552833,1265
0.25695,1245
0.2586167,1118
0.2602833,1135
0.26195,1178
0.2636167,1134
0.2652833,1219
0.26695,1218
0.2686167,1216
0.2702833,944
0.27195,1072
0.2736167,1276
0.2752833,1198
0.27695,1217
0.2786167,1127
0.2803,1048
0.2819667,1072
0.2836167,1173
0.2852833,1170
0.28695,1161
0.2886167,1151
0.2902833,1084
0.29195,1094
0.2936167,1144
0.2952833,1131
0.29695,1118
0.2986333,1100
0.3003,1202
0.30195,1203
0.3036167,1038
0.3052833,1180
0.30695,1430
0.3086167,1553
0.3102833,1343
0.31195,1357
0.3136167,1258
0.3153,1457
0.3169667,1482
0.3186167,1469
0.3202833,1526
0.32195,1288
0.3236167,1276
0.3252833,1339
0.32695,1150
0.3286167,1179
0.3302833,1288
0.3319667,1282
0.3336333,1272
0.3352833,1263
0.33695,1316
0.3386167,1370
0.3402833,1113
0.3419667,1290
0.3436333,1225
0.3453,1288
0.34695,1350
0.3486167,1310
0.3503,1385
0.35195,1260
0.3536167,1320
0.3552833,1381
0.35695,1334
0.3586333,1286
0.3602833,1439
0.3619667,1376
0.3636167,1586
0.3653,2071
0.3669667,2988
0.3686333,4119
0.3703,4096
0.3719667,4494
0.3736333,4681
0.3753,4705
0.3769667,4346
0.3786333,4103
0.3802833,4077
0.3819667,3387
0.3836333,3152
0.3853,2280
0.38695,1735
0.3886333,1819
0.3902833,1371
0.3919667,1149
0.3936333,797
0.3953,748
0.39695,681
0.3986333,560
0.4003,468
0.4019667,491
0.4036333,463
0.4053,436
0.4069667,564
0.4086333,572
0.4103,581
0.4119667,594
0.4136333,608
0.4153,664
0.4169667,743
0.4186333,714
0.4203,686
0.4219667,700
0.4236333,660
0.4253,717
0.4269667,775
0.4286333,734
0.4303,694
0.4319667,723
0.4336333,696
0.4353,987
0.4369667,927
0.4386333,904
0.4403,992
0.4419667,1126
0.4436333,1131
0.4453,1022
0.4469667,1092
0.4486333,1054
0.4503,1056
0.4519667,1056
0.4536333,1056
0.4553,1319
0.4569667,1262
0.4586333,1416
0.4603,1390
0.4619667,1365
0.4636333,1467
0.4653,1502
0.4669667,1480
0.4686333,1426
0.4703,1275
0.4719667,1292
0.4736333,1499
0.4753,1500
0.4769667,1457
0.4786333,1666
0.4803,1184
0.4819667,1473
0.4836333,1255
0.4853,1430
0.4869667,1545
0.4886333,1353
0.4903,1325
0.4919667,1172
0.4936333,1095
0.4953,1178
0.4969667,1260
0.4986333,1254
0.5003,894
0.5019667,993
0.5036333,1152
0.5053,1149
0.5069667,1151
0.5086333,1156
0.5103,1075
0.5119666,951
0.5136333,920
0.5153,972
0.5169666,909
0.5186333,1035
0.5203,1047
0.5219667,1050
0.5236334,969
0.5253,1090
0.5269667,1081
0.5286334,1105
0.5303,736
0.5319667,815
0.5336334,921
0.5353,942
0.5369667,774
0.5386333,805
0.5403,837
0.5419667,1028
0.5436333,974
0.5453,902
0.5469667,837
0.5486333,895
0.5503,953
0.5519667,979
0.5536333,873
0.5553,879
0.5569667,879
0.5586333,856
0.5603,833
0.5619667,959
0.5636333,948
0.5653,938
0.5669667,894
0.5686333,850
0.5703,909
0.5719666,969
0.5736333,943
0.5753,928
0.5769666,916
0.5786333,904
0.5803,921
0.5819666,857
0.5836333,886
0.5853,916
0.5869667,938
0.5886334,960
0.5903,1056
0.5919667,1082
0.5936334,1031
0.5953,981
0.5969667,1057
0.5986333,997
0.6003,972
0.6019667,1030
0.6036333,1042
0.6053,890
0.6069667,951
0.6086333,984
0.6103,1062
0.6119667,1098
0.6136333,994
0.6153,837
0.6169667,962
0.6186333,1000
0.6203,973
0.6219667,1031
0.6236333,889
0.6253,782
0.6269667,997
0.6286333,908
0.6303,1089
0.6319667,962
0.6336333,934
0.6353,1051
0.6369666,969
0.6386333,917
0.6403,833
0.6419666,942
0.6436333,951
0.6453,904
0.6469667,768
0.6486334,996
0.6503,893
0.6519667,985
0.6536334,931
0.6553,878
0.6569667,901
0.6586334,933
0.6603,936
0.6619667,940
0.6636333,759
0.6653,974
0.6669667,895
0.6686333,984
0.6703,918
0.6719667,912
0.6736333,772
0.6753,859
0.6769667,908
0.6786333,956
0.6803,873
0.6819667,801
0.6836333,841
0.6853,843
0.6869667,846
0.6886333,845
0.6903,731
0.6919667,874
0.6936333,810
0.6953,912
0.6969666,877
0.6986333,732
0.7003,803
0.7019666,865
0.7036333,674
0.7053,816
0.7069666,898
0.7086333,1030
0.7103,931
0.7119667,1046
0.7136334,933
0.7153,973
0.7169667,1081
0.7186334,837
0.7203,739
0.7219667,814
0.7236333,853
0.7253,891
0.7269667,743
0.7286333,765
0.7303,787
0.7319667,889
0.7336333,929
0.7353,866
0.7369667,825
0.7386333,951
0.7403,1018
0.7419667,958
0.7436333,860
0.7453,882
0.7469667,566
0.7486333,771
0.7503,933
0.7519667,947
0.7536333,713
0.7553,942
0.7569667,907
0.7586333,871
0.7603,967
0.7619666,849
0.7636333,884
0.7653,739
0.7669666,776
0.7686333,772
0.7703,818
0.7719667,810
0.7736334,802
0.7753,801
0.7769667,799
0.7786334,611
0.7803,927
0.7819667,814
0.7836334,921
0.7853,914
0.7869667,852
0.7886333,864
0.7903,896
0.7919667,781
0.7936333,908
0.7953,997
0.7969667,919
0.7986333,938
0.8003,874
0.8019667,891
0.8036333,907
0.8053,837
0.8069667,924
0.8086333,901
0.8103,900
0.8119667,933
0.8136333,830
0.8153,793
0.8169667,1052
0.8186333,916
0.8203,780
0.8219666,888
0.8236333,885
0.8253,859
0.8269666,837
0.8286333,859
0.8303,629
0.8319666,999
0.8336333,1077
0.8353,987
0.8369667,920
0.8386334,970
0.8403,730
0.8419667,934
0.8436334,962
0.8453,885
0.8469667,906
0.8486333,927
0.8503,921
0.8519667,960
0.8536333,908
0.8553,857
0.8569667,708
0.8586333,933
0.8603,879
0.8619667,967
0.8636333,891
0.8653,867
0.8669667,924
0.8686333,981
0.8703,999
0.8719667,893
0.8736333,908
0.8753,809
0.8769667,646
0.8786333,868
0.8803,1095
0.8819667,967
0.8836333,1443
0.8853,1360
0.8869666,1281
0.8886333,1034
0.8903,1218
0.8919666,1294
0.8936333,1393
0.8953,1199
0.8969667,1198
0.8986334,1354
0.9003,1365
0.9019667,1043
0.9036334,1320
0.9053,1167
0.9069667,1130
0.9086334,1344
0.9103,1114
0.9119667,1347
0.9136333,1310
0.9153,1134
0.9169667,1322
0.9186333,1235
0.9203,1399
0.9219667,1310
0.9236333,1220
0.9253,1368
0.9269667,1436
0.9286333,1460
0.9303,1445
0.9319667,1171
0.9336333,1240
0.9353,1374
0.9369667,1382
0.9386333,1339
0.9403,1291
0.9419667,1520
0.9436333,1495
0.9453,1095
0.9469666,1361
0.9486333,1434
0.9503,1200
0.9519666,1209
0.9536333,1264
0.9553,1141
0.9569666,1312
0.9586333,1387
0.9603,1318
0.9619667,1043
0.9636334,992
0.9653,1128
0.9669667,1120
0.9686334,1067
0.9703,728
0.9719667,1127
0.9736333,910
0.9753,967
0.9769667,814
0.9786333,831
0.9803,943
0.9819667,852
0.9836333,762
0.9853,739
0.9869667,717
0.9886333,850
0.9903,840
0.9919667,830
0.9936333,903
0.9953,729
0.9969667,713
0.9986333,748
1.0003,798
1.001967,780
1.003633,722
1.0053,784
1.006967,845
1.008633,855
1.0103,864
1.011967,767
1.013633,920
1.0153,755
1.016967,1003
1.018633,1046
1.0203,950
1.021967,776
1.023633,971
1.0253,786
1.026967,858
1.028633,854
1.0303,923
1.031967,932
1.033633,941
1.0353,860
1.036967,853
1.038633,1010
1.0403,955
1.041967,829
1.043633,847
1.0453,753
1.046967,802
1.048633,852
1.0503,808
1.051967,764
1.053633,858
1.0553,797
1.056967,736
1.058633,887
1.0603,967
1.061967,913
1.063633,865
1.0653,968
1.066967,693
1.068633,998
1.0703,689
1.071967,908
1.073633,755
1.0753,1003
1.076967,941
1.078633,753
1.0803,911
1.081967,968
1.083633,942
1.0853,859
1.086967,647
1.088633,918
1.0903,915
1.091967,860
1.093633,890
1.0953,766
1.096967,817
1.098633,868
1.1003,874
1.101967,925
1.103633,976
1.1053,798
1.106967,855
1.108633,925
1.1103,938
1.111967,877
1.113633,852
1.1153,880
1.116967,893
1.118633,907
1.1203,882
1.121967,893
1.123633,748
1.1253,733
1.126967,900
1.128633,827
1.1303,868
1.131967,887
1.133633,790
1.1353,932
1.136967,962
1.138633,944
1.1403,698
1.141967,957
1.143633,746
1.1453,764
1.146967,1010
1.148633,880
1.1503,863
1.151967,857
1.153633,857
1.1553,1007
1.156967,670
1.158633,936
1.1603,876
1.161967,1025
1.163633,876
1.1653,968
1.166967,887
1.168633,751
1.1703,941
1.171967,939
1.173633,701
1.1753,886
1.176967,838
1.178633,890
1.1803,754
1.181967,910
1.183633,771
1.1853,850
1.186967,929
1.188633,805
1.1903,750
1.191967,956
1.193633,927
1.1953,860
1.196967,649
1.198633,837
