"SampleName","A2Rd2_02-21"
"Target Mass 1",
"Column Name","IA-3 (3um, 4.6X100)"
"Channel","QDa 1: SIR Ch2"
0.00195,324
0.003616667,639
0.005283333,781
0.00695,806
0.008616666,819
0.01028333,1026
0.01195,975
0.01361667,873
0.01528333,943
0.01695,1083
0.01861667,983
0.02028333,884
0.02195,898
0.02361667,888
0.02528333,866
0.02695,824
0.02861667,781
0.03028333,844
0.03195,906
0.03361667,972
0.03528333,908
0.03695,903
0.03861667,899
0.04028333,902
0.04195,905
0.04361667,1237
0.04528333,1199
0.04695,1149
0.04861667,996
0.05028334,1073
0.05195,962
0.05361667,1005
0.05528333,769
0.05695,878
0.05861667,886
0.06028333,1049
0.06195,976
0.06361666,867
0.06528334,838
0.06695,810
0.06861667,1016
0.07028333,1017
0.07195,1020
0.07361667,911
0.07528333,876
0.07695,1095
0.07861666,974
0.08028334,853
0.08195,921
0.08361667,1047
0.08528333,1020
0.08695,912
0.08861667,803
0.09028333,925
0.09195,1053
0.09361666,1029
0.09528334,1082
0.09695,942
0.09861667,814
0.1002833,876
0.10195,865
0.1036167,855
0.1052833,948
0.10695,892
0.1086167,836
0.1102833,946
0.11195,914
0.1136167,883
0.1152833,956
0.11695,845
0.1186167,917
0.1202833,948
0.12195,979
0.1236167,753
0.1252833,820
0.12695,888
0.1286167,909
0.1302833,930
0.13195,886
0.1336167,868
0.1352833,850
0.13695,854
0.1386167,858
0.1402833,876
0.14195,893
0.1436167,868
0.1452833,843
0.14695,879
0.1486167,930
0.1502833,968
0.15195,1007
0.1536167,986
0.1552833,940
0.15695,981
0.1586167,1043
0.1602833,1141
0.16195,1109
0.1636167,922
0.1652833,892
0.16695,996
0.1686167,979
0.1702833,903
0.17195,880
0.1736167,867
0.1752833,854
0.17695,854
0.1786167,854
0.1802833,1015
0.18195,1068
0.1836167,1009
0.1852833,778
0.18695,1010
0.1886167,900
0.1902833,869
0.19195,851
0.1936167,1067
0.1952833,1022
0.19695,761
0.1986167,810
0.2002833,846
0.20195,881
0.2036167,907
0.2052833,842
0.20695,894
0.2086167,969
0.2102833,1164
0.21195,1143
0.2136167,822
0.2152833,1115
0.21695,1102
0.2186167,1241
0.2202833,1002
0.22195,1101
0.2236167,1121
0.2252833,1396
0.22695,1307
0.2286167,1106
0.2302833,1028
0.23195,1064
0.2336167,1281
0.2352833,1289
0.23695,1464
0.2386167,1305
0.2402833,1235
0.24195,1348
0.2436167,1240
0.2452833,1457
0.24695,1419
0.2486167,1188
0.2502833,1279
0.2519667,1429
0.2536167,1353
0.2552833,1382
0.25695,1321
0.2586167,1157
0.2602833,1240
0.26195,1378
0.2636333,1237
0.2652833,1294
0.26695,1162
0.2686167,1093
0.2702833,1062
0.27195,1069
0.2736167,1096
0.2752833,1066
0.27695,1037
0.2786167,1125
0.2803,1022
0.28195,1328
0.2836167,1399
0.2852833,1120
0.28695,1251
0.2886167,812
0.2902833,1265
0.29195,1039
0.2936167,1066
0.2952833,1066
0.29695,1068
0.2986333,1070
0.3003,1141
0.30195,1212
0.3036167,1227
0.3052833,1191
0.30695,1101
0.3086167,1114
0.3102833,1126
0.31195,1460
0.3136167,1475
0.3153,1556
0.3169667,1487
0.3186167,1418
0.3202833,1443
0.32195,1385
0.3236167,1327
0.3252833,1304
0.32695,1282
0.3286167,1355
0.3302833,1317
0.33195,1279
0.3336333,1255
0.3353,1232
0.33695,1429
0.3386167,1383
0.3402833,1548
0.3419667,1401
0.3436167,1215
0.3452833,1250
0.34695,1435
0.3486167,1381
0.3503,1492
0.3519667,1511
0.3536167,1498
0.3552833,1484
0.35695,1482
0.3586333,1574
0.3602833,1232
0.36195,1291
0.3636167,1585
0.3652833,2423
0.3669667,3181
0.3686333,4175
0.3702833,3692
0.3719667,4356
0.3736167,3843
0.3753,4505
0.37695,4344
0.3786333,4050
0.3802833,4017
0.3819667,3446
0.3836333,2897
0.3853,2517
0.38695,2036
0.3886333,1701
0.3902833,1067
0.3919667,903
0.3936167,806
0.3953,530
0.39695,850
0.3986333,471
0.4003,525
0.4019667,582
0.4036333,572
0.4053,558
0.4069667,544
0.4086333,584
0.4103,486
0.4119667,699
0.4136167,705
0.4153,605
0.4169667,688
0.4186333,681
0.4203,673
0.4219667,674
0.4236333,675
0.4253,557
0.4269667,670
0.4286333,782
0.4303,714
0.4319667,782
0.4336333,771
0.4353,761
0.4369667,837
0.4386333,1001
0.4403,1014
0.4419667,1074
0.4436333,940
0.4453,1020
0.4469667,1048
0.4486333,1076
0.4503,1152
0.4519667,1141
0.4536333,1130
0.4553,984
0.4569667,1229
0.4586333,1283
0.4603,1384
0.4619667,1325
0.4636333,1267
0.4653,1294
0.4669667,1392
0.4686333,1520
0.4703,1575
0.4719667,1250
0.4736333,1128
0.4753,1296
0.4769667,1259
0.4786333,1250
0.4803,1135
0.4819667,1111
0.4836333,1142
0.4853,1051
0.4869667,1107
0.4886333,1164
0.4903,1292
0.4919667,1168
0.4936333,1045
0.4953,1210
0.4969667,1135
0.4986333,1146
0.5003,892
0.5019667,1041
0.5036333,1018
0.5053,1018
0.5069667,794
0.5086333,1029
0.5103,1071
0.5119666,953
0.5136333,921
0.5153,1080
0.5169666,1104
0.5186333,763
0.5203,813
0.5219667,1102
0.5236334,926
0.5253,939
0.5269667,953
0.5286334,998
0.5303,832
0.5319667,982
0.5336334,776
0.5353,871
0.5369667,859
0.5386333,792
0.5403,862
0.5419667,932
0.5436333,1062
0.5453,986
0.5469667,985
0.5486333,865
0.5503,906
0.5519667,922
0.5536333,982
0.5553,814
0.5569667,984
0.5586333,1127
0.5603,756
0.5619667,871
0.5636333,976
0.5653,909
0.5669667,773
0.5686333,894
0.5703,1001
0.5719666,1025
0.5736333,1049
0.5753,1169
0.5769666,830
0.5786333,1055
0.5803,1088
0.5819666,779
0.5836333,905
0.5853,957
0.5869667,943
0.5886334,928
0.5903,1187
0.5919667,1174
0.5936334,911
0.5953,1014
0.5969667,1099
0.5986333,875
0.6003,1159
0.6019667,1089
0.6036333,979
0.6053,1059
0.6069667,857
0.6086333,1065
0.6103,934
0.6119667,1055
0.6136333,978
0.6153,909
0.6169667,966
0.6186333,953
0.6203,977
0.6219667,851
0.6236333,829
0.6253,1028
0.6269667,980
0.6286333,1077
0.6303,853
0.6319667,1003
0.6336333,912
0.6353,996
0.6369666,992
0.6386333,920
0.6403,847
0.6419666,897
0.6436333,947
0.6453,784
0.6469667,1008
0.6486334,737
0.6503,1072
0.6519667,773
0.6536334,973
0.6553,929
0.6569667,1060
0.6586334,878
0.6603,906
0.6619667,953
0.6636333,824
0.6653,1014
0.6669667,1110
0.6686333,950
0.6703,803
0.6719667,831
0.6736333,707
0.6753,1003
0.6769667,1112
0.6786333,1012
0.6803,979
0.6819667,841
0.6836333,881
0.6853,745
0.6869667,868
0.6886333,904
0.6903,940
0.6919667,860
0.6936333,779
0.6953,853
0.6969666,868
0.6986333,905
0.7003,853
0.7019666,802
0.7036333,923
0.7053,935
0.7069666,727
0.7086333,814
0.7103,803
0.7119667,779
0.7136334,841
0.7153,895
0.7169667,948
0.7186334,747
0.7203,904
0.7219667,897
0.7236333,671
0.7253,732
0.7269667,873
0.7286333,866
0.7303,1006
0.7319667,926
0.7336333,939
0.7353,936
0.7369667,712
0.7386333,717
0.7403,846
0.7419667,941
0.7436333,890
0.7453,955
0.7469667,854
0.7486333,753
0.7503,868
0.7519667,901
0.7536333,775
0.7553,691
0.7569667,718
0.7586333,744
0.7603,824
0.7619666,904
0.7636333,876
0.7653,843
0.7669666,809
0.7686333,781
0.7703,752
0.7719667,906
0.7736334,891
0.7753,877
0.7769667,893
0.7786334,910
0.7803,739
0.7819667,930
0.7836334,849
0.7853,794
0.7869667,1031
0.7886333,1054
0.7903,910
0.7919667,1058
0.7936333,881
0.7953,1079
0.7969667,788
0.7986333,765
0.8003,1013
0.8019667,1129
0.8036333,926
0.8053,1013
0.8069667,1063
0.8086333,900
0.8103,770
0.8119667,845
0.8136333,931
0.8153,959
0.8169667,927
0.8186333,882
0.8203,920
0.8219666,963
0.8236333,814
0.8253,857
0.8269666,932
0.8286333,856
0.8303,814
0.8319666,942
0.8336333,923
0.8353,904
0.8369667,837
0.8386334,942
0.8403,910
0.8419667,815
0.8436334,880
0.8453,835
0.8469667,957
0.8486333,949
0.8503,807
0.8519667,933
0.8536333,949
0.8553,890
0.8569667,818
0.8586333,988
0.8603,809
0.8619667,897
0.8636333,985
0.8653,876
0.8669667,1042
0.8686333,970
0.8703,1048
0.8719667,851
0.8736333,794
0.8753,908
0.8769667,1120
0.8786333,1096
0.8803,1120
0.8819667,1068
0.8836333,1306
0.8853,1460
0.8869666,1411
0.8886333,1504
0.8903,1217
0.8919666,1278
0.8936333,1354
0.8953,1287
0.8969667,1544
0.8986334,1473
0.9003,1603
0.9019667,1319
0.9036334,1211
0.9053,1326
0.9069667,1214
0.9086334,1485
0.9103,1469
0.9119667,1400
0.9136333,1522
0.9153,1318
0.9169667,1435
0.9186333,1544
0.9203,1571
0.9219667,1432
0.9236333,1319
0.9253,1453
0.9269667,1534
0.9286333,1421
0.9303,1326
0.9319667,1333
0.9336333,1473
0.9353,1501
0.9369667,1358
0.9386333,1143
0.9403,1375
0.9419667,1267
0.9436333,1285
0.9453,1177
0.9469666,1400
0.9486333,1507
0.9503,1087
0.9519666,1223
0.9536333,1100
0.9553,1122
0.9569666,1145
0.9586333,1169
0.9603,1002
0.9619667,1068
0.9636334,1021
0.9653,1030
0.9669667,983
0.9686334,997
0.9703,1046
0.9719667,935
0.9736333,815
0.9753,828
0.9769667,841
0.9786333,854
0.9803,866
0.9819667,796
0.9836333,866
0.9853,778
0.9869667,689
0.9886333,773
0.9903,862
0.9919667,906
0.9936333,931
0.9953,956
0.9969667,833
0.9986333,683
1.0003,1009
1.001967,762
1.003633,934
1.0053,911
1.006967,862
1.008633,979
1.0103,819
1.011967,1078
1.013633,1137
1.0153,1142
1.016967,824
1.018633,952
1.0203,771
1.021967,1028
1.023633,1081
1.0253,1029
1.026967,816
1.028633,982
1.0303,849
1.031967,912
1.033633,971
1.0353,870
1.036967,817
1.038633,1013
1.0403,803
1.041967,997
1.043633,771
1.0453,834
1.046967,959
1.048633,904
1.0503,862
1.051967,883
1.053633,888
1.0553,884
1.056967,870
1.058633,857
1.0603,954
1.061967,939
1.063633,898
1.0653,898
1.066967,843
1.068633,862
1.0703,931
1.071967,794
1.073633,939
1.0753,1026
1.076967,881
1.078633,824
1.0803,1028
1.081967,980
1.083633,873
1.0853,736
1.086967,700
1.088633,740
1.0903,758
1.091967,776
1.093633,805
1.0953,867
1.096967,821
1.098633,776
1.1003,826
1.101967,875
1.103633,736
1.1053,891
1.106967,807
1.108633,862
1.1103,920
1.111967,835
1.113633,883
1.1153,931
1.116967,868
1.118633,791
1.1203,842
1.121967,894
1.123633,891
1.1253,817
1.126967,825
1.128633,833
1.1303,811
1.131967,812
1.133633,812
1.1353,867
1.136967,900
1.138633,885
1.1403,852
1.141967,864
1.143633,877
1.1453,727
1.146967,706
1.148633,893
1.1503,954
1.151967,790
1.153633,716
1.1553,767
1.156967,830
1.158633,850
1.1603,877
1.161967,632
1.163633,823
1.1653,755
1.166967,843
1.168633,739
1.1703,628
1.171967,633
1.173633,757
1.1753,885
1.176967,789
1.178633,692
1.1803,884
1.181967,618
1.183633,810
1.1853,840
1.186967,911
1.188633,847
1.1903,782
1.191967,672
1.193633,844
1.1953,605
1.196967,956
1.198633,826
