"SampleName","A2Rd2_02-43"
"Target Mass 1",
"Column Name","IA-3 (3um, 4.6X100)"
"Channel","QDa 1: SIR Ch1"
0.00195,355
0.003616667,584
0.005283333,594
0.00695,478
0.008616666,555
0.01028333,450
0.01195,512
0.01361667,594
0.01528333,611
0.01695,463
0.01861667,524
0.02028333,392
0.02195,496
0.02361667,603
0.02528333,543
0.02695,466
0.02861667,515
0.03028333,536
0.03195,562
0.03361667,512
0.03528333,510
0.03695,509
0.03861667,510
0.04028333,524
0.04195,538
0.04361667,429
0.04528333,321
0.04695,420
0.04861667,573
0.05028334,596
0.05195,665
0.05361667,569
0.05528333,468
0.05695,546
0.05861667,580
0.06028333,614
0.06195,473
0.06361666,660
0.06528334,568
0.06695,588
0.06861667,537
0.07028333,603
0.07195,470
0.07361667,490
0.07528333,583
0.07695,536
0.07861666,548
0.08028334,540
0.08195,533
0.08361667,534
0.08528333,534
0.08695,419
0.08861667,491
0.09028333,509
0.09195,510
0.09361666,440
0.09528334,558
0.09695,573
0.09861667,428
0.1002833,556
0.10195,496
0.1036167,628
0.1052833,564
0.10695,499
0.1086167,524
0.1102833,476
0.11195,554
0.1136167,555
0.1152833,442
0.11695,488
0.1186167,442
0.1202833,397
0.12195,522
0.1236167,563
0.1252833,527
0.12695,545
0.1286167,564
0.1302833,565
0.13195,532
0.1336167,466
0.1352833,476
0.13695,553
0.1386167,380
0.1402833,497
0.14195,581
0.1436167,581
0.1452833,471
0.14695,514
0.1486167,614
0.1502833,626
0.15195,610
0.1536167,610
0.1552833,422
0.15695,558
0.1586167,554
0.1602833,480
0.16195,405
0.1636167,565
0.1652833,518
0.16695,505
0.1686167,491
0.1702833,389
0.17195,627
0.1736167,609
0.1752833,556
0.17695,568
0.1786167,521
0.1802833,462
0.18195,469
0.1836167,512
0.1852833,476
0.18695,441
0.1886167,520
0.1902833,427
0.19195,488
0.1936167,550
0.1952833,563
0.19695,516
0.1986167,533
0.2002833,551
0.20195,590
0.2036167,558
0.2052833,525
0.20695,578
0.2086167,550
0.2102833,459
0.21195,514
0.2136167,580
0.2152833,668
0.21695,653
0.2186167,525
0.2202833,571
0.22195,410
0.2236167,478
0.2252833,433
0.22695,506
0.2286167,493
0.2302833,519
0.23195,413
0.2336167,481
0.2352833,577
0.23695,503
0.2386167,460
0.2402833,428
0.24195,428
0.2436167,421
0.2452833,415
0.24695,424
0.2486167,432
0.2502833,512
0.25195,525
0.2536167,538
0.2552833,572
0.25695,382
0.2586167,494
0.2602833,561
0.26195,664
0.2636167,607
0.2652833,412
0.26695,615
0.2686167,406
0.2702833,335
0.27195,623
0.2736167,481
0.2752833,682
0.27695,451
0.2786167,429
0.2803,460
0.28195,470
0.2836333,480
0.2852833,377
0.28695,452
0.2886167,506
0.2902833,546
0.29195,539
0.2936167,598
0.2952833,607
0.29695,488
0.2986333,576
0.3002833,556
0.30195,460
0.3036167,482
0.3052833,443
0.30695,404
0.3086167,535
0.3102833,605
0.31195,515
0.3136167,614
0.3153,551
0.31695,553
0.3186167,593
0.3202833,550
0.32195,508
0.3236167,496
0.3252833,451
0.32695,578
0.3286167,543
0.3302833,615
0.33195,601
0.3336333,598
0.3352833,602
0.33695,486
0.3386167,465
0.3403,444
0.34195,625
0.3436167,580
0.3452833,517
0.3469667,484
0.3486333,492
0.3503,685
0.35195,712
0.3536167,592
0.3552833,563
0.3569667,386
0.3586167,699
0.3603,662
0.36195,725
0.3636333,823
0.3653,1361
0.3669667,1756
0.3686333,2582
0.3703,3159
0.3719667,3792
0.3736333,3229
0.3752833,3909
0.3769667,4159
0.3786167,4520
0.3803,4896
0.3819667,4655
0.3836333,4937
0.3853,4398
0.3869667,3455
0.3886333,3399
0.3903,3056
0.39195,2200
0.3936333,1941
0.3952833,1527
0.3969667,1483
0.3986333,1172
0.4003,1323
0.40195,971
0.4036333,1005
0.4053,953
0.4069667,994
0.4086167,1008
0.4103,1023
0.41195,1017
0.4136333,1011
0.4153,1066
0.4169667,1072
0.4186167,1077
0.4203,1114
0.4219667,1139
0.4236333,1271
0.4253,1278
0.4269667,1285
0.4286333,1104
0.4303,1358
0.4319667,1591
0.4336333,1776
0.4353,2817
0.4369667,4208
0.4386333,7175
0.4403,11360
0.4419667,17344
0.4436333,27340
0.4453,39696
0.4469667,54368
0.4486333,71168
0.4503,85104
0.4519667,103024
0.4536333,118512
0.4553,130800
0.4569667,142784
0.4586333,148736
0.4603,156736
0.4619667,159744
0.4636333,166400
0.4653,163904
0.4669667,169920
0.4686333,175296
0.4703,184512
0.4719667,192768
0.4736333,205888
0.4753,209792
0.4769667,208448
0.4786333,208320
0.4803,200768
0.4819667,189120
0.4836333,177152
0.4853,160128
0.4869667,140480
0.4886333,121344
0.4903,103856
0.4919667,84752
0.4936333,72752
0.4953,59104
0.4969667,47056
0.4986333,36880
0.5003,30140
0.5019667,25384
0.5036333,19056
0.5053,15620
0.5069667,12264
0.5086333,11260
0.5103,9372
0.5119666,7701
0.5136333,6564
0.5153,6325
0.5169666,5145
0.5186333,4443
0.5203,4561
0.5219667,4037
0.5236334,3595
0.5253,3389
0.5269667,3261
0.5286334,3004
0.5303,3075
0.5319667,2930
0.5336334,2731
0.5353,2820
0.5369667,2551
0.5386333,2592
0.5403,2670
0.5419667,2388
0.5436333,2566
0.5453,1951
0.5469667,2144
0.5486333,2117
0.5503,1998
0.5519667,2002
0.5536333,1693
0.5553,1843
0.5569667,1978
0.5586333,1554
0.5603,1660
0.5619667,1682
0.5636333,1553
0.5653,1498
0.5669667,1400
0.5686333,1278
0.5703,1337
0.5719666,1345
0.5736333,1354
0.5753,1238
0.5769666,1366
0.5786333,1372
0.5803,1428
0.5819666,1404
0.5836333,1282
0.5853,1495
0.5869667,1269
0.5886334,1444
0.5903,1394
0.5919667,1348
0.5936334,1524
0.5953,1198
0.5969667,1209
0.5986333,1209
0.6003,1249
0.6019667,1288
0.6036333,1359
0.6053,1135
0.6069667,1254
0.6086333,1373
0.6103,1387
0.6119667,1138
0.6136333,1107
0.6153,1210
0.6169667,1078
0.6186333,1117
0.6203,1136
0.6219667,1128
0.6236333,1117
0.6253,1117
0.6269667,1118
0.6286333,999
0.6303,1036
0.6319667,1058
0.6336333,1012
0.6353,1078
0.6369666,1067
0.6386333,919
0.6403,908
0.6419666,1124
0.6436333,1023
0.6453,810
0.6469667,1019
0.6486334,957
0.6503,1024
0.6519667,1004
0.6536334,858
0.6553,886
0.6569667,976
0.6586334,914
0.6603,856
0.6619667,797
0.6636333,888
0.6653,787
0.6669667,889
0.6686333,860
0.6703,903
0.6719667,881
0.6736333,859
0.6753,886
0.6769667,830
0.6786333,699
0.6803,947
0.6819667,852
0.6836333,880
0.6853,933
0.6869667,836
0.6886333,802
0.6903,665
0.6919667,736
0.6936333,724
0.6953,713
0.6969666,777
0.6986333,842
0.7003,816
0.7019666,790
0.7036333,789
0.7053,739
0.7069666,689
0.7086333,804
0.7103,694
0.7119667,816
0.7136334,995
0.7153,1040
0.7169667,845
0.7186334,777
0.7203,844
0.7219667,956
0.7236333,916
0.7253,809
0.7269667,873
0.7286333,868
0.7303,790
0.7319667,969
0.7336333,720
0.7353,763
0.7369667,911
0.7386333,806
0.7403,836
0.7419667,823
0.7436333,698
0.7453,674
0.7469667,695
0.7486333,706
0.7503,737
0.7519667,733
0.7536333,729
0.7553,649
0.7569667,680
0.7586333,710
0.7603,816
0.7619666,864
0.7636333,867
0.7653,749
0.7669666,778
0.7686333,833
0.7703,771
0.7719667,912
0.7736334,903
0.7753,712
0.7769667,890
0.7786334,997
0.7803,747
0.7819667,831
0.7836334,747
0.7853,746
0.7869667,882
0.7886333,832
0.7903,828
0.7919667,812
0.7936333,842
0.7953,840
0.7969667,814
0.7986333,817
0.8003,783
0.8019667,749
0.8036333,783
0.8053,777
0.8069667,771
0.8086333,916
0.8103,933
0.8119667,822
0.8136333,711
0.8153,799
0.8169667,822
0.8186333,1043
0.8203,955
0.8219666,1018
0.8236333,1016
0.8253,970
0.8269666,1063
0.8286333,932
0.8303,846
0.8319666,932
0.8336333,1013
0.8353,992
0.8369667,974
0.8386334,993
0.8403,1012
0.8419667,862
0.8436334,831
0.8453,998
0.8469667,888
0.8486333,835
0.8503,863
0.8519667,927
0.8536333,925
0.8553,635
0.8569667,896
0.8586333,915
0.8603,829
0.8619667,787
0.8636333,855
0.8653,791
0.8669667,615
0.8686333,807
0.8703,747
0.8719667,824
0.8736333,786
0.8753,842
0.8769667,969
0.8786333,1235
0.8803,1670
0.8819667,2301
0.8836333,2426
0.8853,2821
0.8869666,3052
0.8886333,3257
0.8903,3430
0.8919666,3449
0.8936333,3696
0.8953,3918
0.8969667,3874
0.8986334,3786
0.9003,3417
0.9019667,3763
0.9036334,3615
0.9053,3958
0.9069667,4120
0.9086334,3876
0.9103,3594
0.9119667,3891
0.9136333,3921
0.9153,3622
0.9169667,4038
0.9186333,4226
0.9203,4113
0.9219667,3697
0.9236333,3877
0.9253,3499
0.9269667,3741
0.9286333,3435
0.9303,3658
0.9319667,3697
0.9336333,3630
0.9353,3060
0.9369667,3346
0.9386333,3048
0.9403,3347
0.9419667,3328
0.9436333,2837
0.9453,2454
0.9469666,2526
0.9486333,2766
0.9503,2483
0.9519666,2151
0.9536333,2207
0.9553,2091
0.9569666,2271
0.9586333,2307
0.9603,2270
0.9619667,1992
0.9636334,1736
0.9653,1727
0.9669667,1515
0.9686334,1458
0.9703,1583
0.9719667,1291
0.9736333,1155
0.9753,1094
0.9769667,984
0.9786333,1206
0.9803,973
0.9819667,1048
0.9836333,721
0.9853,900
0.9869667,731
0.9886333,770
0.9903,723
0.9919667,796
0.9936333,513
0.9953,701
0.9969667,720
0.9986333,634
1.0003,676
1.001967,717
1.003633,828
1.0053,801
1.006967,614
1.008633,616
1.0103,522
1.011967,574
1.013633,625
1.0153,587
1.016967,549
1.018633,663
1.0203,730
1.021967,693
1.023633,713
1.0253,465
1.026967,797
1.028633,607
1.0303,702
1.031967,724
1.033633,743
1.0353,690
1.036967,646
1.038633,640
1.0403,649
1.041967,803
1.043633,773
1.0453,688
1.046967,577
1.048633,487
1.0503,852
1.051967,820
1.053633,658
1.0553,724
1.056967,701
1.058633,794
1.0603,572
1.061967,624
1.063633,661
1.0653,706
1.066967,752
1.068633,515
1.0703,475
1.071967,593
1.073633,879
1.0753,885
1.076967,645
1.078633,671
1.0803,721
1.081967,672
1.083633,659
1.0853,628
1.086967,514
1.088633,641
1.0903,677
1.091967,631
1.093633,655
1.0953,622
1.096967,608
1.098633,610
1.1003,612
1.101967,599
1.103633,547
1.1053,757
1.106967,714
1.108633,628
1.1103,704
1.111967,663
1.113633,677
1.1153,653
1.116967,630
1.118633,642
1.1203,654
1.121967,646
1.123633,666
1.1253,860
1.126967,851
1.128633,837
1.1303,642
1.131967,778
1.133633,658
1.1353,621
1.136967,567
1.138633,700
1.1403,708
1.141967,674
1.143633,716
1.1453,763
1.146967,770
1.148633,672
1.1503,765
1.151967,556
1.153633,783
1.1553,819
1.156967,860
1.158633,699
1.1603,718
1.161967,648
1.163633,760
1.1653,725
1.166967,737
1.168633,758
1.1703,755
1.171967,752
1.173633,775
1.1753,781
1.176967,798
1.178633,774
1.1803,766
1.181967,734
1.183633,901
1.1853,899
1.186967,843
1.188633,766
1.1903,896
1.191967,775
1.193633,945
1.1953,851
1.196967,757
1.198633,851
