"SampleName","A2Rd2_02-6"
"Target Mass 1",
"Column Name","IA-3 (3um, 4.6X100)"
"Channel","QDa 1: SIR Ch1"
0.00195,404
0.003616667,603
0.005283333,505
0.00695,633
0.008616666,481
0.01028333,434
0.01195,616
0.01361667,618
0.01528333,650
0.01695,589
0.01861667,637
0.02028333,686
0.02195,569
0.02361667,425
0.02528333,592
0.02695,523
0.02861667,498
0.03028333,699
0.03195,660
0.03361667,421
0.03528333,655
0.03695,624
0.03861667,682
0.04028333,467
0.04195,484
0.04361667,562
0.04528333,571
0.04695,545
0.04861667,518
0.05028334,445
0.05195,568
0.05361667,581
0.05528333,595
0.05695,457
0.05861667,493
0.06028333,550
0.06195,573
0.06361666,632
0.06528334,409
0.06695,409
0.06861667,618
0.07028333,538
0.07195,602
0.07361667,628
0.07528333,493
0.07695,477
0.07861666,499
0.08028334,522
0.08195,549
0.08361667,540
0.08528333,531
0.08695,548
0.08861667,540
0.09028333,532
0.09195,516
0.09361666,500
0.09528334,640
0.09695,627
0.09861667,603
0.1002833,588
0.10195,443
0.1036167,534
0.1052833,626
0.10695,596
0.1086167,553
0.1102833,511
0.11195,572
0.1136167,529
0.1152833,511
0.11695,481
0.1186167,545
0.1202833,546
0.12195,546
0.1236167,544
0.1252833,542
0.12695,620
0.1286167,621
0.1302833,427
0.13195,577
0.1336167,593
0.1352833,675
0.13695,656
0.1386167,628
0.1402833,529
0.14195,592
0.1436167,545
0.1452833,557
0.14695,467
0.1486167,567
0.1502833,562
0.15195,557
0.1536167,378
0.1552833,467
0.15695,544
0.1586167,568
0.1602833,566
0.16195,321
0.1636167,492
0.1652833,525
0.16695,573
0.1686167,593
0.1702833,418
0.17195,499
0.1736167,587
0.1752833,523
0.17695,528
0.1786167,549
0.1802833,426
0.18195,549
0.1836167,548
0.1852833,546
0.18695,626
0.1886167,628
0.1902833,484
0.19195,459
0.1936167,468
0.1952833,456
0.19695,445
0.1986167,501
0.2002833,469
0.20195,438
0.2036167,516
0.2052833,550
0.20695,635
0.2086167,661
0.2102833,484
0.21195,499
0.2136167,530
0.2152833,635
0.21695,666
0.2186167,582
0.2202833,630
0.22195,577
0.2236167,492
0.2252833,569
0.22695,597
0.2286167,527
0.2302833,551
0.23195,480
0.2336167,529
0.2352833,579
0.23695,534
0.2386167,524
0.2402833,508
0.24195,523
0.2436167,513
0.2452833,498
0.24695,482
0.2486167,522
0.2502833,479
0.25195,436
0.2536167,588
0.2552833,559
0.25695,529
0.2586167,433
0.2602833,437
0.26195,381
0.2636167,546
0.2652833,540
0.26695,455
0.2686167,475
0.2703,498
0.27195,550
0.2736167,551
0.2752833,518
0.27695,546
0.2786167,525
0.2802833,533
0.28195,602
0.2836167,444
0.2852833,542
0.28695,596
0.2886167,533
0.2902833,469
0.29195,595
0.2936167,561
0.2952833,587
0.29695,532
0.2986333,630
0.3002833,624
0.30195,584
0.3036167,501
0.3052833,592
0.30695,616
0.3086167,522
0.3102833,536
0.31195,591
0.3136167,637
0.3153,683
0.31695,491
0.3186167,568
0.3203,433
0.32195,483
0.3236167,636
0.3252833,581
0.32695,577
0.3286167,492
0.3302833,460
0.33195,473
0.3336333,446
0.3352833,420
0.33695,425
0.3386167,431
0.3402833,522
0.34195,532
0.3436167,523
0.3452833,633
0.34695,668
0.3486167,638
0.3503,610
0.35195,409
0.3536167,619
0.3553,546
0.35695,560
0.3586167,650
0.3602833,478
0.3619667,544
0.3636167,1020
0.3652833,1296
0.36695,1897
0.3686333,2797
0.3703,3921
0.3719667,4770
0.3736167,4986
0.3752833,6163
0.37695,5807
0.3786167,6658
0.3802833,6433
0.38195,6058
0.3836333,5889
0.3853,4443
0.38695,4123
0.3886333,3676
0.3902833,2997
0.39195,2428
0.3936167,1917
0.3952833,1704
0.39695,1299
0.3986167,1064
0.4003,1310
0.40195,1003
0.4036333,1193
0.4053,1151
0.4069667,1022
0.4086333,1020
0.4103,955
0.4119667,952
0.4136333,950
0.4153,1160
0.4169667,1042
0.4186333,923
0.4203,893
0.4219667,913
0.4236333,934
0.4253,1080
0.4269667,1112
0.4286333,1139
0.4303,1103
0.4319667,1564
0.4336333,1790
0.4353,2809
0.4369667,4025
0.4386333,6289
0.4403,9920
0.4419667,15828
0.4436333,23244
0.4453,35312
0.4469667,47488
0.4486333,61680
0.4503,81904
0.4519667,99072
0.4536333,114560
0.4553,132160
0.4569667,148672
0.4586333,166592
0.4603,175040
0.4619667,183168
0.4636333,194176
0.4653,209408
0.4669667,219904
0.4686333,234048
0.4703,248128
0.4719667,261952
0.4736333,275648
0.4753,284800
0.4769667,291456
0.4786333,287104
0.4803,276928
0.4819667,261056
0.4836333,237696
0.4853,216512
0.4869667,188160
0.4886333,161344
0.4903,139328
0.4919667,116048
0.4936333,95072
0.4953,79584
0.4969667,62976
0.4986333,48448
0.5003,38448
0.5019667,32024
0.5036333,25584
0.5053,18784
0.5069667,16736
0.5086333,11948
0.5103,11924
0.5119666,9632
0.5136333,8916
0.5153,6711
0.5169666,6372
0.5186333,6474
0.5203,5847
0.5219667,5628
0.5236334,4481
0.5253,4465
0.5269667,4140
0.5286334,3759
0.5303,3790
0.5319667,3611
0.5336334,3204
0.5353,3461
0.5369667,3579
0.5386333,3332
0.5403,2751
0.5419667,2929
0.5436333,2376
0.5453,2839
0.5469667,2352
0.5486333,2643
0.5503,2478
0.5519667,2605
0.5536333,2289
0.5553,2064
0.5569667,2357
0.5586333,2142
0.5603,2069
0.5619667,1956
0.5636333,1918
0.5653,1484
0.5669667,1560
0.5686333,1762
0.5703,1556
0.5719666,1670
0.5736333,1569
0.5753,1683
0.5769666,1659
0.5786333,1557
0.5803,1454
0.5819666,1294
0.5836333,1466
0.5853,1499
0.5869667,1533
0.5886334,1534
0.5903,1535
0.5919667,1219
0.5936334,1300
0.5953,1435
0.5969667,1383
0.5986333,1488
0.6003,1323
0.6019667,1243
0.6036333,1420
0.6053,1290
0.6069667,1273
0.6086333,1217
0.6103,1244
0.6119667,1271
0.6136333,1357
0.6153,1385
0.6169667,1413
0.6186333,1374
0.6203,1301
0.6219667,1404
0.6236333,1464
0.6253,808
0.6269667,1193
0.6286333,1065
0.6303,999
0.6319667,1151
0.6336333,1118
0.6353,814
0.6369666,1039
0.6386333,1119
0.6403,993
0.6419666,980
0.6436333,1017
0.6453,1023
0.6469667,1029
0.6486334,867
0.6503,1037
0.6519667,1078
0.6536334,835
0.6553,829
0.6569667,955
0.6586334,920
0.6603,712
0.6619667,759
0.6636333,854
0.6653,803
0.6669667,758
0.6686333,988
0.6703,1033
0.6719667,1076
0.6736333,899
0.6753,968
0.6769667,962
0.6786333,844
0.6803,867
0.6819667,823
0.6836333,780
0.6853,753
0.6869667,726
0.6886333,799
0.6903,839
0.6919667,906
0.6936333,825
0.6953,797
0.6969666,611
0.6986333,707
0.7003,675
0.7019666,643
0.7036333,890
0.7053,867
0.7069666,821
0.7086333,908
0.7103,743
0.7119667,806
0.7136334,693
0.7153,832
0.7169667,638
0.7186334,780
0.7203,655
0.7219667,650
0.7236333,786
0.7253,718
0.7269667,714
0.7286333,711
0.7303,727
0.7319667,807
0.7336333,813
0.7353,818
0.7369667,785
0.7386333,698
0.7403,847
0.7419667,821
0.7436333,871
0.7453,805
0.7469667,812
0.7486333,891
0.7503,874
0.7519667,845
0.7536333,829
0.7553,878
0.7569667,740
0.7586333,813
0.7603,775
0.7619666,695
0.7636333,698
0.7653,701
0.7669666,650
0.7686333,734
0.7703,706
0.7719667,678
0.7736334,723
0.7753,740
0.7769667,757
0.7786334,684
0.7803,751
0.7819667,779
0.7836334,807
0.7853,771
0.7869667,787
0.7886333,760
0.7903,759
0.7919667,757
0.7936333,756
0.7953,746
0.7969667,783
0.7986333,820
0.8003,925
0.8019667,614
0.8036333,894
0.8053,778
0.8069667,805
0.8086333,844
0.8103,836
0.8119667,696
0.8136333,742
0.8153,879
0.8169667,805
0.8186333,803
0.8203,800
0.8219666,785
0.8236333,759
0.8253,792
0.8269666,873
0.8286333,847
0.8303,887
0.8319666,643
0.8336333,931
0.8353,753
0.8369667,783
0.8386334,905
0.8403,966
0.8419667,934
0.8436334,901
0.8453,920
0.8469667,938
0.8486333,835
0.8503,875
0.8519667,959
0.8536333,920
0.8553,807
0.8569667,925
0.8586333,936
0.8603,914
0.8619667,799
0.8636333,802
0.8653,938
0.8669667,599
0.8686333,918
0.8703,709
0.8719667,772
0.8736333,732
0.8753,716
0.8769667,879
0.8786333,1121
0.8803,1551
0.8819667,1720
0.8836333,2267
0.8853,2202
0.8869666,3080
0.8886333,2911
0.8903,3197
0.8919666,3041
0.8936333,3059
0.8953,3078
0.8969667,2925
0.8986334,3245
0.9003,3436
0.9019667,3518
0.9036334,3530
0.9053,3285
0.9069667,3397
0.9086334,3655
0.9103,3656
0.9119667,3169
0.9136333,3009
0.9153,3420
0.9169667,3480
0.9186333,3316
0.9203,3520
0.9219667,3045
0.9236333,3606
0.9253,3342
0.9269667,3377
0.9286333,2805
0.9303,3202
0.9319667,3140
0.9336333,3133
0.9353,3178
0.9369667,3180
0.9386333,3183
0.9403,2717
0.9419667,2864
0.9436333,2947
0.9453,2739
0.9469666,2752
0.9486333,2413
0.9503,2536
0.9519666,2311
0.9536333,2149
0.9553,2405
0.9569666,2145
0.9586333,2227
0.9603,2161
0.9619667,1652
0.9636334,1817
0.9653,1710
0.9669667,1671
0.9686334,1408
0.9703,1253
0.9719667,1534
0.9736333,1458
0.9753,1215
0.9769667,1100
0.9786333,1071
0.9803,741
0.9819667,890
0.9836333,758
0.9853,715
0.9869667,833
0.9886333,861
0.9903,611
0.9919667,647
0.9936333,614
0.9953,603
0.9969667,592
0.9986333,602
1.0003,611
1.001967,620
1.003633,615
1.0053,609
1.006967,639
1.008633,564
1.0103,570
1.011967,558
1.013633,592
1.0153,689
1.016967,722
1.018633,554
1.0203,715
1.021967,713
1.023633,793
1.0253,511
1.026967,639
1.028633,639
1.0303,593
1.031967,547
1.033633,624
1.0353,616
1.036967,608
1.038633,578
1.0403,618
1.041967,659
1.043633,763
1.0453,739
1.046967,715
1.048633,589
1.0503,655
1.051967,726
1.053633,753
1.0553,620
1.056967,648
1.058633,653
1.0603,659
1.061967,612
1.063633,426
1.0653,576
1.066967,718
1.068633,671
1.070317,710
1.071967,766
1.073633,793
1.0753,563
1.076967,817
1.078633,724
1.0803,668
1.081967,714
1.083633,725
1.085317,574
1.086967,635
1.088633,657
1.0903,608
1.091967,559
1.093633,611
1.0953,663
1.096967,685
1.098633,755
1.1003,738
1.101967,645
1.10365,688
1.1053,738
1.106967,673
1.108633,646
1.1103,726
1.111967,704
1.113633,682
1.1153,700
1.116967,551
1.118633,770
1.120317,753
1.121967,853
1.123633,622
1.1253,535
1.126967,678
1.128633,630
1.1303,834
1.131983,846
1.13365,683
1.1353,694
1.136967,720
1.13865,690
1.1403,667
1.141967,871
1.143633,467
1.1453,623
1.146967,556
1.148633,648
1.150317,606
1.151967,779
1.15365,755
1.155317,631
1.156967,714
1.158633,751
1.1603,705
1.161967,678
1.163633,670
1.1653,726
1.166983,781
1.168633,779
1.170317,748
1.171967,800
1.17365,760
1.1753,719
1.176983,810
1.178633,706
1.180317,814
1.181967,706
1.18365,742
1.1853,772
1.186967,792
1.188633,938
1.190317,907
1.191967,920
1.19365,837
1.195317,799
1.196983,872
1.19865,872
