"SampleName","A2Rd2_02-47"
"Target Mass 1",
"Column Name","IA-3 (3um, 4.6X100)"
"Channel","QDa 1: SIR Ch2"
0.00195,529
0.003616667,625
0.005283333,728
0.00695,677
0.008616666,766
0.01028333,854
0.01195,939
0.01361667,817
0.01528333,757
0.01695,697
0.01861667,927
0.02028333,929
0.02195,1044
0.02361667,896
0.02528333,809
0.02695,905
0.02861667,989
0.03028333,1000
0.03195,910
0.03361667,993
0.03528333,923
0.03695,993
0.03861667,820
0.04028333,1116
0.04195,1021
0.04361667,836
0.04528333,996
0.04695,867
0.04861667,754
0.05028334,1072
0.05195,877
0.05361667,865
0.05528333,989
0.05695,917
0.05861667,862
0.06028333,962
0.06195,889
0.06361666,1067
0.06528334,1009
0.06695,957
0.06861667,930
0.07028333,1022
0.07195,860
0.07361667,1083
0.07528333,1026
0.07695,938
0.07861666,973
0.08028334,1008
0.08195,986
0.08361667,806
0.08528333,745
0.08695,1043
0.08861667,1180
0.09028333,1138
0.09195,1022
0.09361666,1021
0.09528334,764
0.09695,873
0.09861667,878
0.1002833,971
0.10195,902
0.1036167,772
0.1052833,831
0.10695,917
0.1086167,900
0.1102833,882
0.11195,812
0.1136167,742
0.1152833,792
0.11695,1121
0.1186167,1051
0.1202833,820
0.12195,863
0.1236167,776
0.1252833,802
0.12695,828
0.1286167,927
0.1302833,930
0.13195,920
0.1336167,843
0.1352833,917
0.13695,1032
0.1386167,1009
0.1402833,830
0.14195,710
0.1436167,946
0.1452833,627
0.14695,945
0.1486167,814
0.1502833,884
0.15195,933
0.1536167,984
0.1552833,749
0.15695,924
0.1586167,877
0.1602833,953
0.16195,922
0.1636167,769
0.1652833,906
0.16695,679
0.1686167,913
0.1702833,871
0.17195,943
0.1736167,850
0.1752833,829
0.17695,882
0.1786167,936
0.1802833,734
0.18195,982
0.1836167,694
0.1852833,940
0.18695,1022
0.1886167,700
0.1902833,864
0.19195,825
0.1936167,744
0.1952833,801
0.19695,812
0.1986167,823
0.2002833,867
0.20195,844
0.2036167,820
0.2052833,970
0.20695,978
0.2086167,987
0.2102833,920
0.21195,966
0.2136167,937
0.2152833,909
0.21695,853
0.2186167,917
0.2202833,980
0.22195,1095
0.2236167,1087
0.2252833,1167
0.22695,1116
0.2286167,1094
0.2302833,1072
0.23195,1160
0.2336167,1187
0.2352833,1025
0.23695,1249
0.2386167,1111
0.2402833,1010
0.24195,1153
0.2436167,1170
0.2452833,1187
0.2469667,1197
0.2486167,1206
0.2502833,1031
0.25195,1211
0.2536167,1142
0.2552833,1074
0.25695,1056
0.2586167,1037
0.2602833,1083
0.26195,1111
0.2636167,1138
0.2652833,1069
0.26695,1184
0.2686167,1034
0.2702833,1221
0.27195,965
0.2736167,1185
0.2752833,1069
0.27695,1161
0.2786167,985
0.2802833,869
0.28195,1083
0.2836167,1060
0.2852833,1090
0.28695,1162
0.2886167,1182
0.2902833,1075
0.29195,1080
0.2936167,1005
0.2952833,960
0.29695,1104
0.2986333,955
0.3002833,915
0.30195,996
0.3036167,1036
0.3052833,1112
0.30695,1184
0.3086167,1185
0.3102833,1210
0.31195,1234
0.3136167,1294
0.3153,1291
0.31695,1362
0.3186167,1348
0.3202833,1209
0.32195,1396
0.3236167,1237
0.3252833,1311
0.32695,1326
0.3286167,1304
0.3302833,1234
0.33195,1251
0.3336333,1198
0.3352833,1166
0.33695,1201
0.3386167,1301
0.3402833,1308
0.34195,1147
0.3436167,1301
0.3453,1368
0.3469667,1415
0.3486167,1424
0.3503,1385
0.35195,1346
0.3536167,1459
0.3552833,1250
0.35695,1471
0.3586167,1537
0.3602833,1257
0.3619667,1370
0.3636167,1290
0.3652833,1916
0.36695,3305
0.3686333,2846
0.3703,3682
0.3719667,3690
0.3736167,3094
0.3753,2844
0.37695,3152
0.3786333,2891
0.3802833,3164
0.38195,2814
0.3836167,2346
0.3853,2055
0.3869667,1799
0.3886333,1477
0.3902833,1181
0.39195,890
0.3936167,878
0.3953,571
0.3969667,581
0.3986167,412
0.4002833,608
0.40195,460
0.4036333,614
0.4053,425
0.40695,588
0.4086333,571
0.4103,516
0.4119667,481
0.4136333,556
0.4153,689
0.41695,618
0.4186167,547
0.4203,603
0.4219667,659
0.4236333,821
0.4253,830
0.4269667,795
0.4286333,787
0.4302833,782
0.43195,764
0.4336167,747
0.4352833,802
0.43695,858
0.4386333,836
0.4403,813
0.4419667,802
0.4436333,796
0.4453,790
0.4469667,1052
0.4486167,1029
0.4503,1283
0.45195,1133
0.4536333,1320
0.4553,1105
0.4569667,1288
0.4586333,1193
0.4603,1198
0.4619667,1399
0.4636333,1459
0.4653,1448
0.4669667,1330
0.4686333,1218
0.4703,1146
0.4719667,1406
0.4736333,1433
0.4753,1124
0.4769667,1185
0.4786333,1146
0.4803,1113
0.4819667,1194
0.4836333,1275
0.4853,1279
0.4869667,1000
0.4886333,1262
0.4903,1090
0.4919667,1172
0.4936333,1196
0.4953,1062
0.4969667,913
0.4986333,1267
0.5003,938
0.5019667,921
0.5036333,798
0.5053,1025
0.5069667,955
0.5086333,1055
0.5103,873
0.5119666,859
0.5136333,958
0.5153,1037
0.5169666,691
0.5186333,817
0.5203,988
0.5219667,834
0.5236334,1077
0.5253,979
0.5269667,892
0.5286334,886
0.5303,952
0.5319667,958
0.5336334,965
0.5353,881
0.5369667,869
0.5386333,856
0.5403,970
0.5419667,1100
0.5436333,1046
0.5453,992
0.5469667,673
0.5486333,976
0.5503,844
0.5519667,1074
0.5536333,962
0.5553,944
0.5569667,969
0.5586333,995
0.5603,896
0.5619667,841
0.5636333,1066
0.5653,1003
0.5669667,712
0.5686333,806
0.5703,909
0.5719666,876
0.5736333,844
0.5753,867
0.5769666,891
0.5786333,1045
0.5803,1101
0.5819666,931
0.5836333,823
0.5853,967
0.5869667,1018
0.5886334,827
0.5903,904
0.5919667,1005
0.5936334,923
0.5953,912
0.5969667,900
0.5986333,750
0.6003,955
0.6019667,751
0.6036333,882
0.6053,989
0.6069667,895
0.6086333,945
0.6103,995
0.6119667,940
0.6136333,979
0.6153,1123
0.6169667,1082
0.6186333,971
0.6203,858
0.6219667,945
0.6236333,922
0.6253,900
0.6269667,827
0.6286333,959
0.6303,934
0.6319667,944
0.6336333,954
0.6353,1019
0.6369666,1036
0.6386333,1053
0.6403,1143
0.6419666,779
0.6436333,1047
0.6453,912
0.6469667,746
0.6486334,879
0.6503,863
0.6519667,735
0.6536334,888
0.6553,847
0.6569667,980
0.6586334,1034
0.6603,948
0.6619667,862
0.6636333,1021
0.6653,886
0.6669667,960
0.6686333,877
0.6703,988
0.6719667,1071
0.6736333,1128
0.6753,1180
0.6769667,1313
0.6786333,1446
0.6803,1884
0.6819667,2338
0.6836333,2513
0.6853,2946
0.6869667,3042
0.6886333,4240
0.6903,4453
0.6919667,4888
0.6936333,6221
0.6953,5941
0.6969666,5623
0.6986333,6359
0.7003,6204
0.7019666,6383
0.7036333,6562
0.7053,6784
0.7069666,6703
0.7086333,6622
0.7103,6517
0.7119667,6329
0.7136334,6209
0.7153,6520
0.7169667,6449
0.7186334,6553
0.7203,5919
0.7219667,6037
0.7236333,6005
0.7253,5216
0.7269667,5381
0.7286333,4491
0.7303,4606
0.7319667,3888
0.7336333,3751
0.7353,3505
0.7369667,3250
0.7386333,2904
0.7403,2622
0.7419667,2516
0.7436333,2248
0.7453,1977
0.7469667,1991
0.7486333,1764
0.7503,1894
0.7519667,1807
0.7536333,1585
0.7553,1426
0.7569667,1366
0.7586333,1222
0.7603,1190
0.7619666,1167
0.7636333,1271
0.7653,1042
0.7669666,1018
0.7686333,946
0.7703,1012
0.7719667,1077
0.7736334,1347
0.7753,1318
0.7769667,1454
0.7786334,1644
0.7803,1977
0.7819667,2355
0.7836334,2938
0.7853,3636
0.7869667,4725
0.7886333,5067
0.7903,6148
0.7919667,7472
0.7936333,7796
0.7953,8836
0.7969667,10288
0.7986333,10360
0.8003,11248
0.8019667,11832
0.8036333,12308
0.8053,12596
0.8069667,12532
0.8086333,12468
0.8103,12304
0.8119667,12024
0.8136333,11900
0.8153,11820
0.8169667,11816
0.8186333,11700
0.8203,11320
0.8219666,11372
0.8236333,10820
0.8253,11088
0.8269666,11224
0.8286333,10832
0.8303,10844
0.8319666,10564
0.8336333,10344
0.8353,8476
0.8369667,9104
0.8386334,8103
0.8403,7295
0.8419667,6762
0.8436334,6086
0.8453,5445
0.8469667,4797
0.8486333,4235
0.8503,4200
0.8519667,3545
0.8536333,3513
0.8553,3298
0.8569667,3186
0.8586333,2297
0.8603,2496
0.8619667,2371
0.8636333,2254
0.8653,1956
0.8669667,1877
0.8686333,1970
0.8703,1472
0.8719667,1384
0.8736333,1392
0.8753,1356
0.8769667,1250
0.8786333,1495
0.8803,1721
0.8819667,1609
0.8836333,1722
0.8853,1628
0.8869666,1402
0.8886333,1754
0.8903,1767
0.8919666,1623
0.8936333,1598
0.8953,1643
0.8969667,1635
0.8986334,1626
0.9003,1538
0.9019667,1612
0.9036334,1499
0.9053,1355
0.9069667,1599
0.9086334,1488
0.9103,1377
0.9119667,1529
0.9136333,1600
0.9153,1495
0.9169667,1332
0.9186333,1576
0.9203,1254
0.9219667,1225
0.9236333,1356
0.9253,1390
0.9269667,1439
0.9286333,1329
0.9303,1327
0.9319667,1325
0.9336333,1381
0.9353,1486
0.9369667,1632
0.9386333,1131
0.9403,1500
0.9419667,1379
0.9436333,1394
0.9453,1311
0.9469666,1287
0.9486333,1440
0.9503,1557
0.9519666,1481
0.9536333,1399
0.9553,1357
0.9569666,1546
0.9586333,2255
0.9603,2177
0.9619667,2471
0.9636334,2716
0.9653,3190
0.9669667,3203
0.9686334,3761
0.9703,4575
0.9719667,4941
0.9736333,5850
0.9753,6224
0.9769667,6978
0.9786333,6776
0.9803,8396
0.9819667,9108
0.9836333,8960
0.9853,9112
0.9869667,9560
0.9886333,10004
0.9903,10956
0.9919667,11124
0.9936333,9924
0.9953,10952
0.9969667,10804
0.9986333,10580
1.0003,10632
1.001967,10652
1.003633,10592
1.0053,10004
1.006967,10928
1.008633,10136
1.0103,10120
1.011967,10512
1.013633,10656
1.0153,10364
1.016967,10048
1.018633,9372
1.0203,10584
1.021967,10440
1.023633,10560
1.0253,10184
1.026967,10008
1.028633,9460
1.0303,8348
1.031967,7707
1.033633,8208
1.0353,7158
1.036967,6749
1.038633,6364
1.0403,5799
1.041967,5266
1.043633,5560
1.0453,4624
1.046967,4972
1.048633,4172
1.0503,3811
1.051967,4055
1.053633,4092
1.0553,4255
1.056967,4216
1.058633,3785
1.0603,3781
1.061967,4001
1.063633,4222
1.0653,4322
1.066967,4381
1.068633,4413
1.0703,4977
1.071967,5071
1.073633,4827
1.0753,4843
1.076967,4968
1.078633,4744
1.0803,5066
1.081967,5494
1.083633,5620
1.0853,5381
1.086967,4837
1.088633,5015
1.0903,5328
1.091967,4909
1.093633,4998
1.0953,5218
1.096967,5408
1.098633,4278
1.1003,4548
1.101967,4502
1.103633,4512
1.1053,4522
1.106967,4564
1.108633,4533
1.1103,4501
1.111967,4536
1.113633,4572
1.1153,4604
1.116967,3927
1.118633,4038
1.1203,4068
1.121967,3881
1.123633,3818
1.1253,3364
1.126967,3634
1.128633,3301
1.1303,3023
1.131967,2791
1.133633,2743
1.1353,2866
1.136967,2479
1.138633,2475
1.1403,2592
1.141967,2019
1.143633,2164
1.1453,1844
1.146967,2149
1.148633,1803
1.1503,1800
1.151967,1807
1.153633,1616
1.1553,1785
1.156967,1308
1.158633,1561
1.1603,1584
1.161967,1410
1.163633,1326
1.1653,1280
1.166967,1396
1.168633,1422
1.1703,1277
1.171967,1246
1.173633,1182
1.1753,1118
1.176967,975
1.178633,1066
1.1803,1158
1.181967,1175
1.183633,1276
1.1853,1207
1.186967,1191
1.188633,1254
1.1903,920
1.191967,1317
1.193633,1152
1.1953,1428
1.196967,1389
1.198633,1146
