"SampleName","A2Rd2_02-58"
"Target Mass 1",
"Column Name","IA-3 (3um, 4.6X100)"
"Channel","QDa 1: SIR Ch1"
0.00195,367
0.003616667,524
0.005283333,604
0.00695,498
0.008616666,572
0.01028333,547
0.01195,564
0.01361667,459
0.01528333,507
0.01695,556
0.01861667,543
0.02028333,531
0.02195,502
0.02361667,561
0.02528333,534
0.02695,507
0.02861667,605
0.03028333,509
0.03195,412
0.03361667,460
0.03528333,508
0.03695,532
0.03861667,496
0.04028333,499
0.04195,582
0.04361667,607
0.04528333,571
0.04695,489
0.04861667,551
0.05028334,607
0.05195,503
0.05361667,546
0.05528333,471
0.05695,601
0.05861667,418
0.06028333,437
0.06195,484
0.06361666,530
0.06528334,496
0.06695,473
0.06861667,558
0.07028333,395
0.07195,452
0.07361667,510
0.07528333,453
0.07695,490
0.07861666,540
0.08028334,573
0.08195,524
0.08361667,475
0.08528333,461
0.08695,510
0.08861667,406
0.09028333,402
0.09195,398
0.09361666,464
0.09528334,530
0.09695,555
0.09861667,575
0.1002833,542
0.10195,564
0.1036167,542
0.1052833,543
0.10695,564
0.1086167,516
0.1102833,491
0.11195,466
0.1136167,462
0.1152833,479
0.11695,429
0.1186167,380
0.1202833,488
0.12195,507
0.1236167,556
0.1252833,449
0.12695,568
0.1286167,628
0.1302833,395
0.13195,501
0.1336167,575
0.1352833,605
0.13695,621
0.1386167,602
0.1402833,582
0.14195,513
0.1436167,425
0.1452833,542
0.14695,439
0.1486167,508
0.1502833,568
0.15195,431
0.1536167,471
0.1552833,513
0.15695,467
0.1586167,559
0.1602833,585
0.16195,397
0.1636167,467
0.1652833,397
0.16695,445
0.1686167,476
0.1702833,456
0.17195,437
0.1736167,430
0.1752833,423
0.17695,395
0.1786167,368
0.1802833,435
0.18195,456
0.1836167,543
0.1852833,526
0.18695,602
0.1886167,578
0.1902833,596
0.19195,403
0.1936167,559
0.1952833,479
0.19695,496
0.1986167,603
0.2002833,592
0.20195,448
0.2036167,472
0.2052833,455
0.20695,469
0.2086167,411
0.2102833,484
0.21195,497
0.2136167,484
0.2152833,525
0.21695,565
0.2186167,550
0.2202833,402
0.22195,426
0.2236167,450
0.2252833,535
0.22695,479
0.2286167,423
0.2302833,572
0.23195,605
0.2336167,576
0.2352833,669
0.23695,482
0.2386167,575
0.2402833,669
0.24195,431
0.2436167,450
0.2452833,521
0.24695,491
0.2486167,460
0.2502833,494
0.25195,527
0.2536333,544
0.2552833,560
0.25695,435
0.2586167,498
0.2602833,579
0.26195,532
0.2636167,572
0.2652833,608
0.26695,486
0.2686167,462
0.2702833,345
0.27195,395
0.2736167,388
0.2752833,604
0.27695,564
0.2786167,501
0.2803,469
0.28195,529
0.2836333,559
0.2852833,584
0.28695,600
0.2886167,434
0.2902833,592
0.29195,490
0.2936167,480
0.2952833,509
0.29695,499
0.2986333,490
0.3003,566
0.30195,502
0.3036333,437
0.3052833,571
0.30695,615
0.3086167,492
0.3102833,521
0.31195,558
0.3136167,595
0.3153,545
0.3169667,496
0.3186167,566
0.3202833,582
0.32195,506
0.3236167,579
0.3252833,637
0.32695,614
0.3286167,635
0.3302833,657
0.3319667,463
0.3336333,684
0.3352833,574
0.33695,638
0.3386167,630
0.3402833,622
0.3419667,430
0.3436167,515
0.3452833,568
0.34695,511
0.3486167,455
0.3503,446
0.3519667,451
0.3536333,456
0.3552833,517
0.35695,576
0.3586333,636
0.3602833,641
0.36195,625
0.3636167,817
0.3653,1047
0.3669667,1753
0.3686333,3181
0.3703,3175
0.3719667,3272
0.3736167,3285
0.3753,3298
0.37695,3777
0.3786333,4097
0.3802833,4539
0.3819667,4777
0.3836333,4750
0.3853,4134
0.38695,3585
0.3886333,3181
0.3902833,2629
0.3919667,2465
0.3936167,1810
0.3953,1673
0.39695,1247
0.3986333,1244
0.4003,1112
0.4019667,1233
0.4036333,1296
0.4053,1015
0.4069667,1036
0.4086333,1068
0.4102833,1100
0.4119667,1141
0.4136333,1182
0.4153,1405
0.4169667,1385
0.4186333,1364
0.4203,1587
0.4219667,1482
0.4236333,1377
0.4253,1707
0.4269667,1779
0.4286333,1578
0.4303,1819
0.4319667,1864
0.4336333,2471
0.4353,3027
0.4369667,4412
0.4386333,6608
0.4403,11260
0.4419667,16816
0.4436333,25144
0.4453,37488
0.4469667,49904
0.4486333,66784
0.4503,81488
0.4519667,95408
0.4536333,109904
0.4553,120512
0.4569667,132928
0.4586333,141952
0.4603,143680
0.4619667,148480
0.4636333,148672
0.4653,150912
0.4669667,150272
0.4686333,156160
0.4703,161344
0.4719667,166784
0.4736333,172352
0.4753,178624
0.4769667,184768
0.4786333,188928
0.4803,184128
0.4819667,177920
0.4836333,165568
0.4853,154240
0.4869667,138944
0.4886333,120864
0.4903,105776
0.4919667,86304
0.4936333,71776
0.4953,60368
0.4969667,47968
0.4986333,39984
0.5003,30360
0.5019667,26004
0.5036333,20368
0.5053,17084
0.5069667,13904
0.5086333,11028
0.5103,10016
0.5119666,7989
0.5136333,6947
0.5153,5950
0.5169666,5094
0.5186333,5299
0.5203,4674
0.5219667,4382
0.5236334,3668
0.5253,3568
0.5269667,3538
0.5286334,3635
0.5303,3209
0.5319667,2821
0.5336334,2908
0.5353,2658
0.5369667,2382
0.5386333,2245
0.5403,2574
0.5419667,2466
0.5436333,2585
0.5453,2126
0.5469667,2283
0.5486333,2062
0.5503,1902
0.5519667,1799
0.5536333,1758
0.5553,1757
0.5569667,1728
0.5586333,1869
0.5603,1579
0.5619667,1832
0.5636333,1636
0.5653,1550
0.5669667,1403
0.5686333,1586
0.5703,1555
0.5719666,1463
0.5736333,1366
0.5753,1477
0.5769666,1326
0.5786333,1278
0.5803,1342
0.5819666,1238
0.5836333,1335
0.5853,1206
0.5869667,1269
0.5886334,1333
0.5903,1175
0.5919667,1205
0.5936334,1235
0.5953,1247
0.5969667,1259
0.5986333,1317
0.6003,1424
0.6019667,1530
0.6036333,1552
0.6053,1158
0.6069667,1318
0.6086333,1364
0.6103,1435
0.6119667,1552
0.6136333,1004
0.6153,1417
0.6169667,1514
0.6186333,1382
0.6203,1150
0.6219667,1332
0.6236333,1373
0.6253,1315
0.6269667,1303
0.6286333,1297
0.6303,1134
0.6319667,1069
0.6336333,1217
0.6353,827
0.6369666,971
0.6386333,1188
0.6403,964
0.6419666,1024
0.6436333,1005
0.6453,1033
0.6469667,955
0.6486334,935
0.6503,1031
0.6519667,924
0.6536334,816
0.6553,893
0.6569667,862
0.6586334,769
0.6603,888
0.6619667,754
0.6636333,877
0.6653,875
0.6669667,811
0.6686333,848
0.6703,894
0.6719667,883
0.6736333,871
0.6753,848
0.6769667,945
0.6786333,659
0.6803,798
0.6819667,998
0.6836333,882
0.6853,768
0.6869667,979
0.6886333,878
0.6903,682
0.6919667,694
0.6936333,707
0.6953,702
0.6969666,653
0.6986333,605
0.7003,623
0.7019666,640
0.7036333,807
0.7053,787
0.7069666,767
0.7086333,835
0.7103,795
0.7119667,755
0.7136334,726
0.7153,770
0.7169667,764
0.7186334,779
0.7203,828
0.7219667,827
0.7236333,817
0.7253,746
0.7269667,739
0.7286333,780
0.7303,747
0.7319667,771
0.7336333,795
0.7353,784
0.7369667,796
0.7386333,778
0.7403,686
0.7419667,603
0.7436333,779
0.7453,862
0.7469667,824
0.7486333,774
0.7503,701
0.7519667,754
0.7536333,630
0.7553,743
0.7569667,647
0.7586333,701
0.7603,604
0.7619666,655
0.7636333,707
0.7653,606
0.7669666,667
0.7686333,743
0.7703,551
0.7719667,649
0.7736334,747
0.7753,608
0.7769667,820
0.7786334,775
0.7803,719
0.7819667,624
0.7836334,557
0.7853,697
0.7869667,854
0.7886333,822
0.7903,614
0.7919667,714
0.7936333,906
0.7953,601
0.7969667,860
0.7986333,620
0.8003,889
0.8019667,595
0.8036333,820
0.8053,815
0.8069667,643
0.8086333,688
0.8103,713
0.8119667,648
0.8136333,583
0.8153,507
0.8169667,613
0.8186333,718
0.8203,637
0.8219666,555
0.8236333,591
0.8253,626
0.8269666,651
0.8286333,676
0.8303,581
0.8319666,597
0.8336333,596
0.8353,637
0.8369667,713
0.8386334,794
0.8403,750
0.8419667,647
0.8436334,763
0.8453,790
0.8469667,689
0.8486333,708
0.8503,725
0.8519667,690
0.8536333,724
0.8553,537
0.8569667,756
0.8586333,583
0.8603,654
0.8619667,688
0.8636333,699
0.8653,561
0.8669667,660
0.8686333,700
0.8703,684
0.8719667,572
0.8736333,735
0.8753,722
0.8769667,795
0.8786333,865
0.8803,1182
0.8819667,1140
0.8836333,1529
0.8853,2084
0.8869666,2051
0.8886333,2116
0.8903,2256
0.8919666,2254
0.8936333,2367
0.8953,2614
0.8969667,2546
0.8986334,2762
0.9003,2673
0.9019667,2584
0.9036334,2333
0.9053,2604
0.9069667,2476
0.9086334,2564
0.9103,2543
0.9119667,2521
0.9136333,2503
0.9153,2566
0.9169667,2527
0.9186333,2489
0.9203,2485
0.9219667,2481
0.9236333,2516
0.9253,2551
0.9269667,2617
0.9286333,2317
0.9303,2659
0.9319667,2582
0.9336333,2279
0.9353,2593
0.9369667,2074
0.9386333,2183
0.9403,2381
0.9419667,2191
0.9436333,2363
0.9453,1861
0.9469666,2094
0.9486333,2037
0.9503,1966
0.9519666,1997
0.9536333,1801
0.9553,1679
0.9569666,1550
0.9586333,1678
0.9603,1338
0.9619667,1327
0.9636334,1226
0.9653,1063
0.9669667,1132
0.9686334,1110
0.9703,1194
0.9719667,1004
0.9736333,1014
0.9753,1064
0.9769667,1100
0.9786333,772
0.9803,925
0.9819667,691
0.9836333,729
0.9853,644
0.9869667,719
0.9886333,667
0.9903,762
0.9919667,543
0.9936333,626
0.9953,557
0.9969667,625
0.9986333,540
1.0003,659
1.001967,451
1.003633,592
1.0053,634
1.006967,508
1.008633,544
1.0103,630
1.011967,431
1.013633,503
1.0153,551
1.016967,539
1.018633,527
1.0203,474
1.021967,569
1.023633,478
1.0253,545
1.026967,413
1.028633,459
1.0303,521
1.031967,583
1.033633,526
1.0353,593
1.036967,552
1.038633,534
1.0403,449
1.041967,533
1.043633,511
1.0453,554
1.046967,522
1.048633,490
1.0503,486
1.051967,482
1.053633,577
1.0553,588
1.056967,607
1.058633,564
1.0603,603
1.061967,627
1.063633,595
1.0653,562
1.066967,508
1.068633,516
1.0703,524
1.071967,670
1.073633,684
1.0753,588
1.076967,614
1.078633,521
1.0803,594
1.081967,485
1.083633,622
1.0853,567
1.086967,656
1.088633,610
1.0903,447
1.091967,559
1.093633,502
1.0953,441
1.096967,583
1.098633,618
1.1003,648
1.101967,597
1.103633,548
1.1053,662
1.106967,687
1.108633,571
1.1103,705
1.111967,532
1.113633,605
1.1153,432
1.116967,642
1.118633,533
1.1203,604
1.121967,472
1.123633,630
1.1253,678
1.126967,457
1.128633,533
1.1303,439
1.131967,543
1.133633,541
1.1353,427
1.136967,452
1.138633,365
1.1403,439
1.141967,512
1.143633,681
1.1453,628
1.146967,563
1.148633,526
1.1503,467
1.151967,575
1.153633,610
1.1553,663
1.156967,548
1.158633,589
1.1603,566
1.161967,686
1.163633,663
1.1653,558
1.166967,701
1.168633,573
1.1703,517
1.171967,515
1.173633,683
1.1753,706
1.176967,736
1.178633,655
1.1803,522
1.181967,629
1.183633,646
1.1853,498
1.186967,561
1.188633,478
1.1903,508
1.191967,538
1.193633,406
1.1953,607
1.196967,746
1.198633,755
