"SampleName","A2Rd2_02-48"
"Target Mass 1",
"Column Name","IA-3 (3um, 4.6X100)"
"Channel","QDa 1: SIR Ch2"
0.00195,558
0.003616667,618
0.005283333,685
0.00695,813
0.008616666,803
0.01028333,793
0.01195,899
0.01361667,782
0.01528333,665
0.01695,956
0.01861667,840
0.02028333,771
0.02195,898
0.02361667,808
0.02528333,717
0.02695,965
0.02861667,896
0.03028333,926
0.03195,799
0.03361667,991
0.03528333,1042
0.03695,962
0.03861667,861
0.04028333,985
0.04195,1008
0.04361667,1030
0.04528333,963
0.04695,1087
0.04861667,807
0.05028334,1141
0.05195,874
0.05361667,993
0.05528333,891
0.05695,921
0.05861667,921
0.06028333,949
0.06195,945
0.06361666,931
0.06528334,918
0.06695,824
0.06861667,850
0.07028333,876
0.07195,1142
0.07361667,1187
0.07528333,854
0.07695,815
0.07861666,976
0.08028334,809
0.08195,1004
0.08361667,903
0.08528333,1077
0.08695,983
0.08861667,777
0.09028333,1054
0.09195,888
0.09361666,1070
0.09528334,824
0.09695,981
0.09861667,1068
0.1002833,1024
0.10195,1037
0.1036167,1104
0.1052833,876
0.10695,922
0.1086167,1137
0.1102833,766
0.11195,685
0.1136167,952
0.1152833,1031
0.11695,993
0.1186167,868
0.1202833,931
0.12195,860
0.1236167,876
0.1252833,893
0.12695,865
0.1286167,837
0.1302833,829
0.13195,820
0.1336167,869
0.1352833,774
0.13695,808
0.1386167,842
0.1402833,894
0.14195,909
0.1436167,923
0.1452833,942
0.14695,962
0.1486167,791
0.1502833,981
0.15195,913
0.1536167,870
0.1552833,704
0.15695,979
0.1586167,893
0.1602833,847
0.16195,784
0.1636167,845
0.1652833,792
0.16695,848
0.1686167,855
0.1702833,906
0.17195,932
0.1736167,1031
0.1752833,1050
0.17695,909
0.1786167,967
0.1802833,779
0.18195,917
0.1836167,879
0.1852833,963
0.18695,985
0.1886167,741
0.1902833,853
0.19195,886
0.1936167,855
0.1952833,848
0.19695,841
0.1986167,842
0.2002833,843
0.20195,868
0.2036167,893
0.2052833,977
0.20695,1051
0.2086167,1088
0.2102833,861
0.21195,1072
0.2136167,1068
0.2152833,772
0.21695,1276
0.2186167,1042
0.2202833,883
0.22195,990
0.2236167,1219
0.2252833,1138
0.22695,1314
0.2286167,1169
0.2302833,1281
0.23195,1262
0.2336167,1235
0.2352833,1248
0.23695,1260
0.2386167,1269
0.2402833,1091
0.24195,1294
0.2436167,1121
0.2452833,1147
0.24695,1160
0.2486167,1198
0.2502833,1215
0.25195,1233
0.2536167,1120
0.2552833,1069
0.25695,1095
0.2586167,1121
0.2602833,1145
0.26195,1168
0.2636333,1111
0.2652833,1053
0.26695,995
0.2686167,1211
0.2702833,1191
0.27195,1247
0.2736167,1068
0.2752833,1214
0.27695,1078
0.2786167,1205
0.2803,1250
0.28195,969
0.2836167,946
0.2852833,1167
0.2869667,1079
0.2886167,908
0.2902833,1129
0.29195,963
0.2936167,1092
0.2952833,895
0.29695,778
0.2986333,1078
0.3002833,863
0.30195,1052
0.3036167,1072
0.3052833,1096
0.30695,1187
0.3086167,1160
0.3102833,1113
0.3119667,1065
0.3136167,1438
0.3153,1454
0.31695,1343
0.3186167,1163
0.3203,1192
0.32195,1172
0.3236167,1049
0.3252833,1127
0.3269667,1163
0.3286333,1199
0.3302833,1232
0.33195,1010
0.3336333,1350
0.3352833,1160
0.3369667,1189
0.3386167,1179
0.3402833,1109
0.34195,1039
0.3436167,1238
0.3453,1239
0.34695,1240
0.3486167,1258
0.3503,1275
0.35195,1152
0.3536333,1219
0.3553,1316
0.35695,1458
0.3586167,1448
0.3602833,1401
0.3619667,1318
0.3636167,1430
0.3653,2219
0.36695,2796
0.3686333,3218
0.3703,3296
0.3719667,3492
0.3736333,3041
0.3752833,2588
0.37695,2979
0.3786333,3196
0.3802833,2965
0.3819667,2870
0.3836333,2473
0.3853,2286
0.3869667,1869
0.3886333,1641
0.3903,1295
0.3919667,1008
0.3936167,924
0.3953,652
0.39695,604
0.3986333,546
0.4002833,687
0.4019667,455
0.4036333,663
0.4053,558
0.4069667,639
0.4086333,589
0.4103,559
0.4119667,530
0.4136333,660
0.4153,688
0.4169667,938
0.4186333,846
0.4203,621
0.4219667,729
0.4236333,896
0.4253,783
0.4269667,907
0.4286333,788
0.4303,862
0.4319667,793
0.4336333,774
0.4353,756
0.4369667,666
0.4386333,1081
0.4403,976
0.4419667,961
0.4436333,976
0.4453,1134
0.4469667,1139
0.4486333,1108
0.4503,1268
0.4519667,1264
0.4536333,1261
0.4553,1386
0.4569667,1315
0.4586333,1244
0.4603,1644
0.4619667,1740
0.4636333,1375
0.4653,1659
0.4669667,1641
0.4686333,1469
0.4703,1645
0.4719667,1720
0.4736333,1496
0.4753,1662
0.4769667,1724
0.4786333,1742
0.4803,1365
0.4819667,1328
0.4836333,1483
0.4853,1430
0.4869667,1483
0.4886333,1223
0.4903,1352
0.4919667,1163
0.4936333,1302
0.4953,1441
0.4969667,1154
0.4986333,989
0.5003,1299
0.5019667,943
0.5036333,1069
0.5053,1048
0.5069667,1079
0.5086333,1111
0.5103,914
0.5119666,1097
0.5136333,1074
0.5153,1013
0.5169666,834
0.5186333,732
0.5203,934
0.5219667,1117
0.5236334,1212
0.5253,831
0.5269667,1033
0.5286334,1101
0.5303,1038
0.5319667,953
0.5336334,1019
0.5353,1028
0.5369667,1037
0.5386333,1101
0.5403,923
0.5419667,1054
0.5436333,1144
0.5453,1042
0.5469667,980
0.5486333,1000
0.5503,1080
0.5519667,809
0.5536333,1091
0.5553,1111
0.5569667,985
0.5586333,1056
0.5603,1128
0.5619667,932
0.5636333,967
0.5653,1034
0.5669667,1076
0.5686333,1121
0.5703,1093
0.5719666,1113
0.5736333,1137
0.5753,1081
0.5769666,1012
0.5786333,1194
0.5803,924
0.5819666,1123
0.5836333,989
0.5853,781
0.5869667,1156
0.5886334,961
0.5903,892
0.5919667,1033
0.5936334,1022
0.5953,968
0.5969667,966
0.5986333,962
0.6003,1012
0.6019667,1063
0.6036333,1052
0.6053,904
0.6069667,1056
0.6086333,960
0.6103,1019
0.6119667,906
0.6136333,1032
0.6153,860
0.6169667,974
0.6186333,993
0.6203,1013
0.6219667,1042
0.6236333,1044
0.6253,1047
0.6269667,1024
0.6286333,1114
0.6303,904
0.6319667,927
0.6336333,988
0.6353,1003
0.6369666,1018
0.6386333,1033
0.6403,1017
0.6419666,1006
0.6436333,1031
0.6453,1055
0.6469667,1055
0.6486334,1055
0.6503,1092
0.6519667,1130
0.6536334,905
0.6553,1001
0.6569667,914
0.6586334,868
0.6603,948
0.6619667,1075
0.6636333,1108
0.6653,962
0.6669667,880
0.6686333,963
0.6703,984
0.6719667,1005
0.6736333,924
0.6753,944
0.6769667,863
0.6786333,903
0.6803,944
0.6819667,796
0.6836333,1002
0.6853,828
0.6869667,1094
0.6886333,1114
0.6903,1145
0.6919667,995
0.6936333,1173
0.6953,1247
0.6969666,1068
0.6986333,1149
0.7003,968
0.7019666,1040
0.7036333,1125
0.7053,1086
0.7069666,1090
0.7086333,893
0.7103,904
0.7119667,953
0.7136334,897
0.7153,840
0.7169667,1047
0.7186334,995
0.7203,1096
0.7219667,1015
0.7236333,726
0.7253,993
0.7269667,1076
0.7286333,1136
0.7303,1043
0.7319667,1022
0.7336333,857
0.7353,1000
0.7369667,1025
0.7386333,1036
0.7403,1047
0.7419667,1060
0.7436333,1074
0.7453,1063
0.7469667,1053
0.7486333,797
0.7503,857
0.7519667,810
0.7536333,763
0.7553,778
0.7569667,760
0.7586333,743
0.7603,906
0.7619666,970
0.7636333,843
0.7653,1002
0.7669666,1079
0.7686333,839
0.7703,948
0.7719667,952
0.7736334,842
0.7753,889
0.7769667,967
0.7786334,981
0.7803,855
0.7819667,901
0.7836334,893
0.7853,886
0.7869667,900
0.7886333,913
0.7903,868
0.7919667,869
0.7936333,1093
0.7953,1093
0.7969667,1126
0.7986333,946
0.8003,1216
0.8019667,1278
0.8036333,934
0.8053,1218
0.8069667,1296
0.8086333,1326
0.8103,1298
0.8119667,1145
0.8136333,1074
0.8153,1245
0.8169667,1081
0.8186333,1343
0.8203,1313
0.8219666,1179
0.8236333,1180
0.8253,877
0.8269666,1009
0.8286333,1189
0.8303,1211
0.8319666,1027
0.8336333,1079
0.8353,1139
0.8369667,1200
0.8386334,1156
0.8403,1221
0.8419667,901
0.8436334,1077
0.8453,1011
0.8469667,1122
0.8486333,907
0.8503,918
0.8519667,918
0.8536333,865
0.8553,830
0.8569667,796
0.8586333,832
0.8603,1020
0.8619667,1012
0.8636333,1023
0.8653,908
0.8669667,885
0.8686333,861
0.8703,865
0.8719667,868
0.8736333,773
0.8753,893
0.8769667,901
0.8786333,908
0.8803,1126
0.8819667,1320
0.8836333,1270
0.8853,1390
0.8869666,1462
0.8886333,1501
0.8903,1453
0.8919666,1440
0.8936333,1519
0.8953,1585
0.8969667,1561
0.8986334,1314
0.9003,1874
0.9019667,1783
0.9036334,1640
0.9053,1084
0.9069667,1358
0.9086334,1674
0.9103,1530
0.9119667,1482
0.9136333,1477
0.9153,1680
0.9169667,1654
0.9186333,1435
0.9203,1502
0.9219667,1660
0.9236333,1617
0.9253,1437
0.9269667,1410
0.9286333,1654
0.9303,1557
0.9319667,1390
0.9336333,1315
0.9353,1136
0.9369667,1337
0.9386333,1476
0.9403,1527
0.9419667,1536
0.9436333,1226
0.9453,1404
0.9469666,1255
0.9486333,1421
0.9503,1268
0.9519666,1477
0.9536333,1506
0.9553,1053
0.9569666,999
0.9586333,1480
0.9603,1017
0.9619667,1109
0.9636334,1286
0.9653,1204
0.9669667,1127
0.9686334,1208
0.9703,1065
0.9719667,969
0.9736333,1069
0.9753,1053
0.9769667,1036
0.9786333,1089
0.9803,1142
0.9819667,946
0.9836333,1113
0.9853,1080
0.9869667,1234
0.9886333,1248
0.9903,1267
0.9919667,1021
0.9936333,1120
0.9953,1115
0.9969667,1151
0.9986333,1078
1.0003,985
1.001967,1224
1.003633,978
1.0053,973
1.006967,1215
1.008633,1118
1.0103,1071
1.011967,1031
1.013633,1072
1.0153,1113
1.016967,1003
1.018633,1027
1.0203,999
1.021967,972
1.023633,1086
1.0253,1039
1.026967,993
1.028633,1156
1.0303,1116
1.031967,1077
1.033633,1116
1.0353,1055
1.036967,992
1.038633,1145
1.0403,918
1.041967,979
1.043633,885
1.0453,1038
1.046967,999
1.048633,979
1.0503,1069
1.051967,910
1.053633,1115
1.0553,961
1.056967,929
1.058633,921
1.0603,971
1.061967,989
1.063633,902
1.0653,995
1.066967,968
1.068633,940
1.0703,848
1.071967,905
1.073633,980
1.0753,995
1.076967,1009
1.078633,1006
1.0803,970
1.081967,923
1.083633,1003
1.0853,1067
1.086967,857
1.088633,939
1.0903,1017
1.091967,1049
1.093633,769
1.0953,823
1.096967,1082
1.098633,811
1.1003,836
1.101967,860
1.103633,1019
1.1053,1001
1.106967,870
1.108633,1005
1.1103,1038
1.111967,813
1.113633,862
1.1153,911
1.116967,767
1.118633,898
1.1203,791
1.121967,1054
1.123633,1033
1.1253,814
1.126967,865
1.128633,939
1.1303,823
1.131967,840
1.133633,836
1.1353,833
1.136967,925
1.138633,908
1.1403,876
1.141967,844
1.143633,836
1.1453,828
1.146967,894
1.148633,901
1.1503,765
1.151967,765
1.153633,766
1.1553,867
1.156967,1039
1.158633,964
1.1603,777
1.161967,907
1.163633,857
1.1653,863
1.166967,850
1.168633,837
1.1703,967
1.171967,950
1.173633,601
1.1753,811
1.176967,1104
1.178633,1014
1.1803,890
1.181967,990
1.183633,820
1.1853,988
1.186967,887
1.188633,723
1.1903,1008
1.191967,726
1.193633,1010
1.1953,893
1.196967,942
1.198633,919
