"SampleName","A2Rd2_02-76"
"Target Mass 1",
"Column Name","IA-3 (3um, 4.6X100)"
"Channel","QDa 1: SIR Ch2"
0.00195,551
0.003616667,630
0.005283333,554
0.00695,755
0.008616666,814
0.01028333,846
0.01195,847
0.01361667,909
0.01528333,914
0.01695,917
0.01861667,953
0.02028333,913
0.02195,873
0.02361667,787
0.02528333,831
0.02695,874
0.02861667,916
0.03028333,963
0.03195,905
0.03361667,979
0.03528333,923
0.03695,705
0.03861667,1045
0.04028333,930
0.04195,1050
0.04361667,1068
0.04528333,943
0.04695,922
0.04861667,873
0.05028334,864
0.05195,910
0.05361667,932
0.05528333,781
0.05695,881
0.05861667,1018
0.06028333,937
0.06195,1032
0.06361666,917
0.06528334,887
0.06695,903
0.06861667,931
0.07028333,940
0.07195,896
0.07361667,831
0.07528333,800
0.07695,921
0.07861666,859
0.08028334,966
0.08195,737
0.08361667,915
0.08528333,1013
0.08695,958
0.08861667,779
0.09028333,673
0.09195,894
0.09361666,882
0.09528334,808
0.09695,924
0.09861667,722
0.1002833,1058
0.10195,1048
0.1036167,1122
0.1052833,939
0.10695,855
0.1086167,852
0.1102833,886
0.11195,866
0.1136167,860
0.1152833,1040
0.11695,947
0.1186167,854
0.1202833,899
0.12195,716
0.1236167,907
0.1252833,785
0.12695,754
0.1286167,913
0.1302833,838
0.13195,886
0.1336167,884
0.1352833,881
0.13695,857
0.1386167,834
0.1402833,683
0.14195,1043
0.1436167,963
0.1452833,817
0.14695,853
0.1486167,913
0.1502833,809
0.15195,890
0.1536167,812
0.1552833,835
0.15695,1036
0.1586167,1026
0.1602833,950
0.16195,646
0.1636167,855
0.1652833,848
0.16695,888
0.1686167,849
0.1702833,811
0.17195,856
0.1736167,858
0.1752833,861
0.17695,863
0.1786167,816
0.1802833,893
0.18195,772
0.1836167,919
0.1852833,884
0.18695,915
0.1886167,822
0.1902833,821
0.19195,910
0.1936167,879
0.1952833,946
0.19695,961
0.1986167,849
0.2002833,755
0.20195,881
0.2036167,866
0.2052833,851
0.20695,873
0.2086167,932
0.2102833,990
0.21195,948
0.2136167,990
0.2152833,939
0.21695,877
0.2186167,873
0.2202833,869
0.22195,1012
0.2236167,1061
0.2252833,1103
0.22695,1198
0.2286167,867
0.2302833,1152
0.23195,1095
0.2336167,1231
0.2352833,1257
0.23695,1124
0.2386167,1038
0.2402833,1082
0.24195,1085
0.2436167,1033
0.2452833,1129
0.24695,1084
0.2486167,1038
0.2502833,1066
0.25195,1094
0.2536167,1055
0.2552833,1133
0.25695,1081
0.2586167,1030
0.2602833,1160
0.26195,1131
0.2636167,1068
0.2652833,1172
0.26695,1182
0.2686167,930
0.2702833,1058
0.27195,938
0.2736167,871
0.2752833,930
0.27695,866
0.2786167,910
0.2803,983
0.28195,965
0.2836167,947
0.2852833,958
0.28695,946
0.2886167,934
0.2902833,943
0.29195,953
0.2936167,929
0.2952833,777
0.29695,1191
0.2986333,1192
0.3002833,914
0.30195,1039
0.3036333,1070
0.3052833,1010
0.30695,1014
0.3086167,1143
0.3102833,1111
0.31195,1079
0.3136167,1092
0.3153,1106
0.31695,1194
0.3186167,1495
0.3203,1416
0.32195,1333
0.3236167,1296
0.3252833,1277
0.32695,1377
0.3286167,1056
0.3302833,1287
0.33195,1181
0.3336333,1311
0.3352833,1063
0.3369667,1081
0.3386167,1114
0.3402833,1123
0.34195,1183
0.3436167,1244
0.3452833,1200
0.34695,1280
0.3486167,1282
0.3503,1237
0.35195,1238
0.3536333,1238
0.3552833,1253
0.35695,1267
0.3586167,1351
0.3602833,1288
0.36195,1225
0.3636167,1525
0.3652833,1979
0.36695,3110
0.3686333,3601
0.3703,3666
0.3719667,3358
0.3736167,2833
0.3753,2809
0.37695,2974
0.3786333,3030
0.3802833,2311
0.3819667,2744
0.3836167,2858
0.3853,1747
0.3869667,1707
0.3886333,1466
0.3902833,1056
0.3919667,858
0.3936167,775
0.3953,587
0.39695,485
0.3986333,534
0.4002833,538
0.4019667,458
0.4036333,449
0.4053,441
0.4069667,510
0.4086333,531
0.4102833,543
0.4119667,539
0.4136333,535
0.4153,543
0.4169667,552
0.4186333,698
0.4203,835
0.4219667,859
0.4236333,802
0.4253,854
0.4269667,763
0.4286333,860
0.4303,658
0.4319667,813
0.4336333,989
0.4353,839
0.4369667,936
0.4386333,814
0.4403,947
0.4419667,900
0.4436333,988
0.4453,1005
0.4469667,1021
0.4486333,908
0.4503,1326
0.4519667,1303
0.4536333,1071
0.4553,1190
0.4569667,1383
0.4586333,1374
0.4603,1244
0.4619667,1211
0.4636333,1246
0.4653,1234
0.4669667,1333
0.4686333,1432
0.4703,1405
0.4719667,1375
0.4736333,1336
0.4753,1371
0.4769667,1365
0.4786333,1359
0.4803,1212
0.4819667,1063
0.4836333,1146
0.4853,1153
0.4869667,1159
0.4886333,1206
0.4903,1259
0.4919667,1008
0.4936333,1152
0.4953,1013
0.4969667,956
0.4986333,895
0.5003,1064
0.5019667,980
0.5036333,897
0.5053,900
0.5069667,905
0.5086333,910
0.5103,877
0.5119666,946
0.5136333,909
0.5153,873
0.5169666,1015
0.5186333,644
0.5203,712
0.5219667,886
0.5236334,1000
0.5253,1075
0.5269667,1227
0.5286334,756
0.5303,1017
0.5319667,861
0.5336334,1005
0.5353,942
0.5369667,898
0.5386333,987
0.5403,977
0.5419667,1009
0.5436333,1042
0.5453,864
0.5469667,1001
0.5486333,984
0.5503,964
0.5519667,985
0.5536333,1010
0.5553,1001
0.5569667,992
0.5586333,1012
0.5603,944
0.5619667,889
0.5636333,984
0.5653,940
0.5669667,1019
0.5686333,831
0.5703,993
0.5719666,1047
0.5736333,937
0.5753,976
0.5769666,1060
0.5786333,888
0.5803,1014
0.5819666,857
0.5836333,1107
0.5853,948
0.5869667,790
0.5886334,774
0.5903,832
0.5919667,824
0.5936334,817
0.5953,755
0.5969667,1050
0.5986333,1148
0.6003,1045
0.6019667,1078
0.6036333,771
0.6053,949
0.6069667,969
0.6086333,1057
0.6103,889
0.6119667,886
0.6136333,1025
0.6153,825
0.6169667,953
0.6186333,1059
0.6203,875
0.6219667,922
0.6236333,987
0.6253,907
0.6269667,929
0.6286333,951
0.6303,907
0.6319667,863
0.6336333,919
0.6353,854
0.6369666,788
0.6386333,848
0.6403,907
0.6419666,858
0.6436333,810
0.6453,797
0.6469667,785
0.6486334,754
0.6503,724
0.6519667,792
0.6536334,861
0.6553,869
0.6569667,975
0.6586334,1081
0.6603,1016
0.6619667,1053
0.6636333,1015
0.6653,852
0.6669667,885
0.6686333,1085
0.6703,1048
0.6719667,1349
0.6736333,1528
0.6753,1955
0.6769667,2430
0.6786333,3134
0.6803,3734
0.6819667,4472
0.6836333,5261
0.6853,7229
0.6869667,9168
0.6886333,9796
0.6903,11616
0.6919667,13396
0.6936333,13864
0.6953,15548
0.6969666,16280
0.6986333,17308
0.7003,17416
0.7019666,17980
0.7036333,16088
0.7053,16860
0.7069666,16768
0.7086333,16200
0.7103,15320
0.7119667,14724
0.7136334,14748
0.7153,14184
0.7169667,14320
0.7186334,14112
0.7203,13280
0.7219667,13564
0.7236333,12984
0.7253,12192
0.7269667,11876
0.7286333,10800
0.7303,11044
0.7319667,10100
0.7336333,9016
0.7353,8528
0.7369667,7918
0.7386333,7118
0.7403,5866
0.7419667,5109
0.7436333,4852
0.7453,4460
0.7469667,4513
0.7486333,3646
0.7503,3213
0.7519667,2650
0.7536333,2926
0.7553,2186
0.7569667,2364
0.7586333,1827
0.7603,1874
0.7619666,2114
0.7636333,1614
0.7653,1982
0.7669666,1798
0.7686333,1537
0.7703,1510
0.7719667,1638
0.7736334,1649
0.7753,1611
0.7769667,1708
0.7786334,2234
0.7803,2269
0.7819667,2673
0.7836334,2856
0.7853,3810
0.7869667,3769
0.7886333,4896
0.7903,6274
0.7919667,6868
0.7936333,7701
0.7953,8792
0.7969667,9536
0.7986333,10476
0.8003,10824
0.8019667,10696
0.8036333,11620
0.8053,11536
0.8069667,10644
0.8086333,10728
0.8103,10812
0.8119667,10508
0.8136333,9900
0.8153,9808
0.8169667,9492
0.8186333,8876
0.8203,9004
0.8219666,8844
0.8236333,8848
0.8253,8852
0.8269666,7942
0.8286333,8688
0.8303,8964
0.8319666,7864
0.8336333,7990
0.8353,8384
0.8369667,7666
0.8386334,7141
0.8403,6749
0.8419667,6239
0.8436334,6216
0.8453,5815
0.8469667,5044
0.8486333,4540
0.8503,3852
0.8519667,3482
0.8536333,3295
0.8553,3442
0.8569667,3236
0.8586333,2695
0.8603,2911
0.8619667,2359
0.8636333,2260
0.8653,2086
0.8669667,1591
0.8686333,1449
0.8703,1641
0.8719667,1370
0.8736333,1469
0.8753,1510
0.8769667,1466
0.8786333,1510
0.8803,1502
0.8819667,1676
0.8836333,1850
0.8853,2060
0.8869666,2069
0.8886333,1926
0.8903,1560
0.8919666,2060
0.8936333,1744
0.8953,1549
0.8969667,1537
0.8986334,1376
0.9003,1847
0.9019667,1765
0.9036334,1791
0.9053,1567
0.9069667,1818
0.9086334,1453
0.9103,1617
0.9119667,1760
0.9136333,1485
0.9153,1353
0.9169667,1576
0.9186333,1427
0.9203,1680
0.9219667,1652
0.9236333,1625
0.9253,1719
0.9269667,1546
0.9286333,1390
0.9303,1430
0.9319667,1556
0.9336333,1514
0.9353,1323
0.9369667,1222
0.9386333,1370
0.9403,1406
0.9419667,1433
0.9436333,1525
0.9453,1615
0.9469666,1648
0.9486333,1541
0.9503,1650
0.9519666,2223
0.9536333,2869
0.9553,3320
0.9569666,3504
0.9586333,5063
0.9603,5579
0.9619667,7187
0.9636334,8003
0.9653,9908
0.9669667,11704
0.9686334,14588
0.9703,16740
0.9719667,19656
0.9736333,22748
0.9753,24580
0.9769667,27928
0.9786333,30240
0.9803,34112
0.9819667,35232
0.9836333,37856
0.9853,40000
0.9869667,41856
0.9886333,42752
0.9903,42800
0.9919667,42112
0.9936333,41664
0.9953,43120
0.9969667,42896
0.9986333,39408
1.0003,39936
1.001967,38528
1.003633,36624
1.0053,36944
1.006967,36576
1.008633,34016
1.0103,34512
1.011967,35408
1.013633,35248
1.0153,34912
1.016967,33488
1.018633,35648
1.0203,35760
1.021967,35376
1.023633,35632
1.0253,35872
1.026967,33568
1.028633,35072
1.0303,33008
1.031967,30208
1.033633,28784
1.0353,29200
1.036967,27984
1.038633,24468
1.0403,24516
1.041967,22220
1.043633,20864
1.0453,18644
1.046967,19416
1.048633,17276
1.0503,17396
1.051967,15876
1.053633,16872
1.0553,15496
1.056967,16064
1.058633,15616
1.0603,15852
1.061967,17432
1.063633,17596
1.0653,17924
1.066967,18340
1.068633,18752
1.0703,19924
1.071967,20488
1.073633,21656
1.0753,21064
1.076967,21468
1.078633,22076
1.0803,21524
1.081967,20972
1.083633,21244
1.0853,21688
1.086967,21096
1.088633,21316
1.0903,20260
1.091967,19904
1.093633,18876
1.0953,19528
1.096967,19668
1.098633,19264
1.1003,18252
1.101967,18356
1.103633,18612
1.1053,17728
1.106967,17312
1.108633,17740
1.1103,17000
1.111967,16424
1.113633,16456
1.1153,17020
1.116967,15744
1.118633,16204
1.1203,15684
1.121967,14776
1.123633,14404
1.1253,13764
1.126967,13564
1.128633,12880
1.1303,11492
1.131967,10944
1.133633,10632
1.1353,9712
1.136967,9288
1.138633,8568
1.1403,7889
1.141967,7412
1.143633,7106
1.1453,7121
1.146967,6641
1.148633,5990
1.1503,5776
1.151967,5371
1.153633,5235
1.1553,4356
1.156967,4617
1.158633,3992
1.1603,4263
1.161967,3738
1.163633,3539
1.1653,2990
1.166967,3184
1.168633,2945
1.1703,2789
1.171967,2414
1.173633,2798
1.1753,2714
1.176967,2595
1.178633,2570
1.1803,2420
1.181967,2457
1.183633,2494
1.1853,2278
1.186967,2518
1.188633,2293
1.1903,2613
1.191967,2418
1.193633,2594
1.1953,2715
1.196967,2642
1.198633,2530
