"SampleName","A2Rd2_02-25"
"Target Mass 1",
"Column Name","IA-3 (3um, 4.6X100)"
"Channel","QDa 1: SIR Ch1"
0.00195,325
0.003616667,577
0.005283333,568
0.00695,417
0.008616666,606
0.01028333,482
0.01195,357
0.01361667,580
0.01528333,535
0.01695,678
0.01861667,537
0.02028333,397
0.02195,592
0.02361667,632
0.02528333,621
0.02695,533
0.02861667,487
0.03028333,611
0.03195,519
0.03361667,472
0.03528333,490
0.03695,498
0.03861667,477
0.04028333,397
0.04195,437
0.04361667,431
0.04528333,412
0.04695,394
0.04861667,593
0.05028334,554
0.05195,561
0.05361667,487
0.05528333,511
0.05695,622
0.05861667,391
0.06028333,389
0.06195,400
0.06361666,446
0.06528334,447
0.06695,449
0.06861667,475
0.07028333,453
0.07195,431
0.07361667,544
0.07528333,520
0.07695,572
0.07861666,518
0.08028334,569
0.08195,494
0.08361667,469
0.08528333,443
0.08695,505
0.08861667,405
0.09028333,489
0.09195,477
0.09361666,470
0.09528334,463
0.09695,498
0.09861667,496
0.1002833,477
0.10195,402
0.1036167,448
0.1052833,515
0.10695,350
0.1086167,410
0.1102833,531
0.11195,415
0.1136167,551
0.1152833,461
0.11695,420
0.1186167,572
0.1202833,397
0.12195,635
0.1236167,516
0.1252833,588
0.12695,469
0.1286167,378
0.1302833,566
0.13195,472
0.1336167,550
0.1352833,415
0.13695,387
0.1386167,520
0.1402833,573
0.14195,484
0.1436167,487
0.1452833,493
0.14695,484
0.1486167,476
0.1502833,407
0.15195,414
0.1536167,421
0.1552833,596
0.15695,561
0.1586167,505
0.1602833,491
0.16195,384
0.1636167,527
0.1652833,533
0.16695,506
0.1686167,519
0.1702833,504
0.17195,436
0.1736167,488
0.1752833,451
0.17695,447
0.1786167,442
0.1802833,420
0.18195,398
0.1836167,330
0.1852833,386
0.18695,441
0.1886167,313
0.1902833,537
0.19195,505
0.1936167,543
0.1952833,516
0.19695,488
0.1986333,379
0.2002833,433
0.20195,487
0.2036167,589
0.2052833,554
0.20695,566
0.2086167,442
0.2102833,478
0.21195,482
0.2136167,401
0.2152833,504
0.21695,486
0.2186167,449
0.2202833,527
0.22195,419
0.2236167,421
0.2252833,400
0.22695,441
0.2286333,483
0.2302833,457
0.23195,493
0.2336167,452
0.2352833,411
0.23695,452
0.2386167,562
0.2402833,622
0.24195,531
0.2436167,548
0.2453,404
0.24695,461
0.2486333,508
0.2502833,507
0.25195,570
0.2536167,555
0.2552833,460
0.25695,478
0.2586167,391
0.2603,418
0.26195,538
0.2636333,488
0.2653,524
0.2669667,446
0.2686167,349
0.2702833,473
0.27195,473
0.2736167,495
0.2752833,438
0.27695,438
0.2786167,438
0.2803,464
0.2819667,467
0.2836167,471
0.2852833,500
0.28695,422
0.2886167,433
0.2902833,422
0.29195,447
0.2936167,473
0.2952833,477
0.29695,501
0.2986333,525
0.3002833,464
0.30195,402
0.3036333,551
0.3052833,511
0.30695,493
0.3086167,505
0.3102833,532
0.3119667,422
0.3136333,445
0.3153,468
0.31695,573
0.3186167,621
0.3203,403
0.32195,461
0.3236167,468
0.3252833,436
0.32695,448
0.3286167,460
0.3303,445
0.33195,472
0.3336333,450
0.3352833,427
0.3369667,490
0.3386167,478
0.3403,467
0.34195,451
0.3436333,486
0.3453,521
0.3469667,515
0.3486333,509
0.3503,405
0.3519667,583
0.3536333,469
0.3553,553
0.3569667,500
0.3586167,530
0.3603,674
0.3619667,772
0.3636333,989
0.3653,1351
0.3669667,2136
0.3686333,3323
0.3703,4135
0.3719667,4531
0.3736333,4866
0.3753,5264
0.3769667,5140
0.3786333,6158
0.3803,6170
0.3819667,5822
0.3836333,5412
0.3853,4412
0.3869667,3592
0.3886333,3479
0.3903,2634
0.3919667,1594
0.3936333,1548
0.3953,1340
0.3969667,1419
0.3986333,984
0.4003,875
0.4019667,1034
0.4036333,881
0.4053,1020
0.4069667,915
0.4086333,1014
0.4103,953
0.4119667,996
0.4136333,850
0.4153,876
0.4169667,817
0.4186333,855
0.4203,894
0.4219667,1178
0.4236333,1141
0.4253,944
0.4269667,1036
0.4286333,1087
0.4303,1027
0.4319667,1403
0.4336333,1519
0.4353,2382
0.4369667,4068
0.4386333,6315
0.4403,9856
0.4419667,15980
0.4436333,22536
0.4453,34096
0.4469667,46512
0.4486333,61712
0.4503,76320
0.4519667,94304
0.4536333,108400
0.4553,120128
0.4569667,129600
0.4586333,143616
0.4603,149696
0.4619667,156416
0.4636333,160320
0.4653,163008
0.4669667,175616
0.4686333,185280
0.4703,193856
0.4719667,201600
0.4736333,212224
0.4753,213120
0.4769667,219840
0.4786333,213248
0.4803,198528
0.4819667,182848
0.4836333,168768
0.4853,147648
0.4869667,128496
0.4886333,108864
0.4903,90704
0.4919667,76304
0.4936333,61568
0.4953,49888
0.4969667,37968
0.4986333,31304
0.5003,26092
0.5019667,19744
0.5036333,15860
0.5053,12424
0.5069667,10468
0.5086333,9800
0.5103,7486
0.5119666,6036
0.5136333,5623
0.5153,5575
0.5169666,4650
0.5186333,4459
0.5203,4440
0.5219667,3961
0.5236334,3733
0.5253,3473
0.5269667,3347
0.5286334,3264
0.5303,2963
0.5319667,2888
0.5336334,2914
0.5353,2707
0.5369667,2487
0.5386333,2655
0.5403,2238
0.5419667,2046
0.5436333,2254
0.5453,1966
0.5469667,2099
0.5486333,2070
0.5503,1871
0.5519667,2002
0.5536333,1887
0.5553,1747
0.5569667,1847
0.5586333,1661
0.5603,1838
0.5619667,1396
0.5636333,1537
0.5653,1813
0.5669667,1437
0.5686333,1389
0.5703,1685
0.5719666,1403
0.5736333,1340
0.5753,1304
0.5769666,1428
0.5786333,1274
0.5803,1157
0.5819666,1195
0.5836333,1269
0.5853,1289
0.5869667,1308
0.5886334,1158
0.5903,1123
0.5919667,1277
0.5936334,1459
0.5953,1370
0.5969667,1300
0.5986333,1231
0.6003,1396
0.6019667,1125
0.6036333,1198
0.6053,1375
0.6069667,1334
0.6086333,1297
0.6103,1280
0.6119667,1366
0.6136333,1005
0.6153,1054
0.6169667,1169
0.6186333,1216
0.6203,925
0.6219667,938
0.6236333,1017
0.6253,1023
0.6269667,991
0.6286333,959
0.6303,1060
0.6319667,863
0.6336333,1003
0.6353,958
0.6369666,985
0.6386333,887
0.6403,926
0.6419666,965
0.6436333,868
0.6453,895
0.6469667,795
0.6486334,880
0.6503,708
0.6519667,959
0.6536334,941
0.6553,845
0.6569667,799
0.6586334,743
0.6603,747
0.6619667,739
0.6636333,706
0.6653,710
0.6669667,795
0.6686333,839
0.6703,588
0.6719667,923
0.6736333,994
0.6753,961
0.6769667,842
0.6786333,794
0.6803,744
0.6819667,808
0.6836333,863
0.6853,862
0.6869667,857
0.6886333,853
0.6903,762
0.6919667,849
0.6936333,736
0.6953,784
0.6969666,904
0.6986333,885
0.7003,733
0.7019666,807
0.7036333,713
0.7053,661
0.7069666,642
0.7086333,813
0.7103,823
0.7119667,855
0.7136334,946
0.7153,654
0.7169667,874
0.7186334,653
0.7203,805
0.7219667,848
0.7236333,765
0.7253,924
0.7269667,682
0.7286333,690
0.7303,800
0.7319667,757
0.7336333,714
0.7353,722
0.7369667,771
0.7386333,755
0.7403,740
0.7419667,666
0.7436333,696
0.7453,727
0.7469667,950
0.7486333,935
0.7503,780
0.7519667,782
0.7536333,845
0.7553,710
0.7569667,932
0.7586333,853
0.7603,975
0.7619666,923
0.7636333,967
0.7653,772
0.7669666,985
0.7686333,758
0.7703,728
0.7719667,817
0.7736334,842
0.7753,708
0.7769667,920
0.7786334,814
0.7803,749
0.7819667,893
0.7836334,857
0.7853,821
0.7869667,867
0.7886333,852
0.7903,710
0.7919667,809
0.7936333,724
0.7953,743
0.7969667,761
0.7986333,878
0.8003,923
0.8019667,918
0.8036333,914
0.8053,917
0.8069667,805
0.8086333,882
0.8103,783
0.8119667,936
0.8136333,1000
0.8153,881
0.8169667,900
0.8186333,872
0.8203,832
0.8219666,869
0.8236333,905
0.8253,939
0.8269666,916
0.8286333,904
0.8303,892
0.8319666,880
0.8336333,942
0.8353,741
0.8369667,801
0.8386334,925
0.8403,931
0.8419667,966
0.8436334,1002
0.8453,810
0.8469667,814
0.8486333,768
0.8503,871
0.8519667,993
0.8536333,1054
0.8553,699
0.8569667,883
0.8586333,937
0.8603,815
0.8619667,683
0.8636333,955
0.8653,1003
0.8669667,729
0.8686333,624
0.8703,934
0.8719667,719
0.8736333,908
0.8753,768
0.8769667,1164
0.8786333,1467
0.8803,1653
0.8819667,2062
0.8836333,2619
0.8853,2831
0.8869666,3579
0.8886333,3133
0.8903,3580
0.8919666,3256
0.8936333,3398
0.8953,3961
0.8969667,3766
0.8986334,3817
0.9003,3659
0.9019667,3710
0.9036334,3698
0.9053,3771
0.9069667,3844
0.9086334,3340
0.9103,3439
0.9119667,3614
0.9136333,3746
0.9153,3879
0.9169667,3697
0.9186333,3747
0.9203,3506
0.9219667,3992
0.9236333,3855
0.9253,3916
0.9269667,3448
0.9286333,3722
0.9303,3181
0.9319667,3293
0.9336333,3406
0.9353,3334
0.9369667,3264
0.9386333,3103
0.9403,3185
0.9419667,2638
0.9436333,2986
0.9453,2931
0.9469666,2907
0.9486333,2731
0.9503,2685
0.9519666,2511
0.9536333,2277
0.9553,2189
0.9569666,1980
0.9586333,2277
0.9603,2197
0.9619667,1860
0.9636334,2033
0.9653,1827
0.9669667,1698
0.9686334,1658
0.9703,1556
0.9719667,1348
0.9736333,1092
0.9753,1246
0.9769667,1237
0.9786333,1078
0.9803,1099
0.9819667,983
0.9836333,873
0.9853,893
0.9869667,934
0.9886333,840
0.9903,731
0.9919667,716
0.9936333,800
0.9953,816
0.9969667,702
0.9986333,798
1.0003,655
1.001967,600
1.003633,648
1.0053,548
1.006967,583
1.008633,707
1.0103,711
1.011967,706
1.013633,650
1.0153,594
1.016967,594
1.018633,489
1.0203,515
1.021967,656
1.023633,681
1.0253,706
1.026967,659
1.028633,655
1.0303,746
1.031967,493
1.033633,725
1.0353,749
1.036967,626
1.038633,670
1.0403,668
1.041967,631
1.043633,599
1.0453,568
1.046967,599
1.048633,734
1.0503,781
1.051967,735
1.053633,698
1.0553,583
1.056967,575
1.058633,566
1.0603,590
1.061967,628
1.063633,665
1.0653,702
1.066967,733
1.068633,742
1.0703,633
1.071967,662
1.073633,665
1.0753,681
1.076967,488
1.078633,568
1.0803,641
1.081967,601
1.083633,614
1.0853,628
1.086967,710
1.088633,725
1.0903,649
1.091967,629
1.093633,708
1.0953,678
1.096967,648
1.098633,669
1.1003,724
1.101967,780
1.103633,818
1.1053,730
1.106967,596
1.108633,552
1.1103,689
1.111967,634
1.113633,580
1.1153,699
1.116967,523
1.118633,482
1.1203,727
1.121967,777
1.123633,600
1.1253,673
1.126967,630
1.128633,584
1.1303,645
1.131967,705
1.133633,696
1.1353,711
1.136967,694
1.138633,677
1.1403,671
1.141967,666
1.143633,675
1.1453,598
1.146967,645
1.148633,650
1.1503,656
1.151967,700
1.153633,745
1.1553,553
1.156967,836
1.158633,634
1.1603,777
1.161967,633
1.163633,758
1.1653,845
1.166967,713
1.168633,926
1.1703,898
1.171967,876
1.173633,671
1.1753,714
1.176967,803
1.178633,804
1.1803,805
1.181967,814
1.183633,822
1.1853,831
1.186967,867
1.188633,891
1.1903,914
1.191967,781
1.193633,929
1.1953,669
1.196967,834
1.198633,684
