"SampleName","A2Rd2_02-82"
"Target Mass 1",
"Column Name","IA-3 (3um, 4.6X100)"
"Channel","QDa 1: SIR Ch1"
0.00195,343
0.003616667,499
0.005283333,408
0.00695,520
0.008616666,576
0.01028333,491
0.01195,588
0.01361667,597
0.01528333,449
0.01695,527
0.01861667,561
0.02028333,499
0.02195,571
0.02361667,504
0.02528333,437
0.02695,549
0.02861667,524
0.03028333,499
0.03195,524
0.03361667,548
0.03528333,546
0.03695,497
0.03861667,449
0.04028333,551
0.04195,568
0.04361667,461
0.04528333,499
0.04695,549
0.04861667,560
0.05028334,571
0.05195,510
0.05361667,514
0.05528333,518
0.05695,544
0.05861667,570
0.06028333,581
0.06195,545
0.06361666,415
0.06528334,512
0.06695,549
0.06861667,493
0.07028333,581
0.07195,566
0.07361667,601
0.07528333,606
0.07695,565
0.07861666,508
0.08028334,541
0.08195,507
0.08361667,449
0.08528333,543
0.08695,581
0.08861667,618
0.09028333,660
0.09195,442
0.09361666,496
0.09528334,559
0.09695,569
0.09861667,580
0.1002833,488
0.10195,577
0.1036167,550
0.1052833,432
0.10695,572
0.1086167,584
0.1102833,392
0.11195,480
0.1136167,618
0.1152833,568
0.11695,424
0.1186167,537
0.1202833,591
0.12195,590
0.1236167,546
0.1252833,576
0.12695,673
0.1286167,659
0.1302833,558
0.13195,540
0.1336167,645
0.1352833,504
0.13695,508
0.1386167,512
0.1402833,611
0.14195,357
0.1436167,622
0.1452833,470
0.14695,586
0.1486167,510
0.1502833,573
0.15195,575
0.1536167,444
0.1552833,592
0.15695,521
0.1586167,549
0.1602833,457
0.16195,600
0.1636167,557
0.1652833,368
0.16695,504
0.1686167,514
0.1702833,650
0.17195,556
0.1736167,471
0.1753,532
0.17695,592
0.1786167,595
0.1802833,413
0.18195,518
0.1836167,614
0.1852833,536
0.18695,396
0.1886167,531
0.1902833,614
0.19195,558
0.1936167,502
0.1952833,503
0.19695,506
0.1986167,462
0.2002833,513
0.20195,432
0.2036167,466
0.2052833,500
0.20695,458
0.2086167,543
0.2103,536
0.21195,529
0.2136167,406
0.2152833,608
0.21695,483
0.2186167,417
0.2202833,430
0.22195,431
0.2236167,397
0.2253,431
0.22695,466
0.2286333,580
0.2302833,541
0.23195,541
0.2336167,429
0.2352833,508
0.23695,647
0.2386333,582
0.2402833,611
0.24195,517
0.2436167,519
0.2453,523
0.24695,415
0.2486167,486
0.2502833,518
0.25195,427
0.2536167,545
0.2552833,393
0.25695,515
0.2586167,502
0.2602833,466
0.26195,454
0.2636333,441
0.2652833,542
0.26695,529
0.2686167,516
0.2702833,529
0.2719667,479
0.2736333,462
0.2753,451
0.27695,493
0.2786167,391
0.2803,382
0.28195,373
0.2836167,633
0.2852833,647
0.2869667,586
0.2886333,583
0.2902833,437
0.29195,478
0.2936167,411
0.2952833,503
0.2969667,494
0.2986333,486
0.3002833,491
0.30195,496
0.3036167,441
0.3053,461
0.30695,507
0.3086167,511
0.3102833,514
0.31195,499
0.3136333,484
0.3153,505
0.3169667,526
0.3186333,528
0.3203,562
0.3219667,410
0.3236333,473
0.3253,466
0.3269667,459
0.3286167,522
0.3303,609
0.33195,620
0.3336333,550
0.3353,632
0.3369667,640
0.3386333,571
0.3403,565
0.3419667,534
0.3436333,481
0.3452833,507
0.3469667,532
0.3486167,535
0.3503,510
0.3519667,485
0.3536333,556
0.3553,639
0.3569667,606
0.3586333,593
0.3603,601
0.3619667,762
0.3636333,848
0.3653,1078
0.3669667,1825
0.3686333,2218
0.3703,3229
0.3719667,3938
0.3736333,3952
0.3753,3477
0.3769667,3416
0.3786333,3867
0.3803,3746
0.3819667,3884
0.3836333,4021
0.3853,3987
0.3869667,3952
0.3886333,3190
0.3903,2930
0.3919667,2630
0.3936333,2172
0.3953,1806
0.3969667,1680
0.3986333,1230
0.4003,1628
0.4019667,1136
0.4036333,1284
0.4053,1077
0.4069667,1152
0.4086333,1293
0.4103,1317
0.4119667,1368
0.4136333,1289
0.4153,1433
0.4169667,1457
0.4186333,1395
0.4203,1332
0.4219667,1607
0.4236333,1636
0.4253,1555
0.4269667,1620
0.4286333,1691
0.4303,1745
0.4319667,1835
0.4336333,2241
0.4353,2978
0.4369667,4218
0.4386333,6614
0.4403,10672
0.4419667,17240
0.4436333,25624
0.4453,36656
0.4469667,53376
0.4486333,70064
0.4503,84304
0.4519667,98128
0.4536333,111584
0.4553,123584
0.4569667,132480
0.4586333,138240
0.4603,143488
0.4619667,145600
0.4636333,144640
0.4653,144256
0.4669667,146560
0.4686333,145984
0.4703,149056
0.4719667,152448
0.4736333,158400
0.4753,163328
0.4769667,167360
0.4786333,169088
0.4803,169536
0.4819667,167424
0.4836333,162368
0.4853,148096
0.4869667,138112
0.4886333,124240
0.4903,102512
0.4919667,91472
0.4936333,78304
0.4953,66592
0.4969667,55040
0.4986333,44832
0.5003,37488
0.5019667,30900
0.5036333,25440
0.5053,19208
0.5069667,15988
0.5086333,13172
0.5103,10944
0.5119666,9444
0.5136333,7571
0.5153,6636
0.5169666,6036
0.5186333,5668
0.5203,4881
0.5219667,4135
0.5236334,4195
0.5253,3794
0.5269667,3541
0.5286334,3355
0.5303,2965
0.5319667,2625
0.5336334,2605
0.5353,3034
0.5369667,2336
0.5386333,2541
0.5403,2389
0.5419667,2054
0.5436333,2305
0.5453,1990
0.5469667,1958
0.5486333,1834
0.5503,1864
0.5519667,1711
0.5536333,1932
0.5553,1788
0.5569667,1505
0.5586333,1570
0.5603,1728
0.5619667,1714
0.5636333,1476
0.5653,1489
0.5669667,1625
0.5686333,1282
0.5703,1212
0.5719666,1589
0.5736333,1431
0.5753,1544
0.5769666,1551
0.5786333,1354
0.5803,1237
0.5819666,1304
0.5836333,1339
0.5853,1274
0.5869667,1187
0.5886334,1308
0.5903,1292
0.5919667,1276
0.5936334,1478
0.5953,1480
0.5969667,1042
0.5986333,1555
0.6003,1399
0.6019667,1381
0.6036333,1453
0.6053,1427
0.6069667,1179
0.6086333,1253
0.6103,1449
0.6119667,1298
0.6136333,1446
0.6153,1357
0.6169667,1148
0.6186333,1278
0.6203,1196
0.6219667,1087
0.6236333,1134
0.6253,1148
0.6269667,1144
0.6286333,1015
0.6303,1230
0.6319667,1126
0.6336333,1071
0.6353,1198
0.6369666,1004
0.6386333,961
0.6403,1116
0.6419666,1043
0.6436333,971
0.6453,996
0.6469667,999
0.6486334,882
0.6503,785
0.6519667,930
0.6536334,884
0.6553,905
0.6569667,945
0.6586334,986
0.6603,1001
0.6619667,987
0.6636333,985
0.6653,939
0.6669667,803
0.6686333,790
0.6703,778
0.6719667,844
0.6736333,868
0.6753,892
0.6769667,913
0.6786333,769
0.6803,915
0.6819667,968
0.6836333,925
0.6853,824
0.6869667,844
0.6886333,866
0.6903,858
0.6919667,703
0.6936333,788
0.6953,797
0.6969666,648
0.6986333,705
0.7003,853
0.7019666,871
0.7036333,930
0.7053,854
0.7069666,928
0.7086333,796
0.7103,829
0.7119667,786
0.7136334,830
0.7153,819
0.7169667,809
0.7186334,772
0.7203,633
0.7219667,688
0.7236333,743
0.7253,888
0.7269667,833
0.7286333,778
0.7303,782
0.7319667,787
0.7336333,760
0.7353,734
0.7369667,796
0.7386333,669
0.7403,747
0.7419667,825
0.7436333,941
0.7453,949
0.7469667,917
0.7486333,623
0.7503,867
0.7519667,792
0.7536333,752
0.7553,769
0.7569667,626
0.7586333,831
0.7603,719
0.7619666,802
0.7636333,783
0.7653,765
0.7669666,823
0.7686333,630
0.7703,676
0.7719667,723
0.7736334,967
0.7753,843
0.7769667,719
0.7786334,589
0.7803,754
0.7819667,739
0.7836334,856
0.7853,982
0.7869667,933
0.7886333,662
0.7903,651
0.7919667,834
0.7936333,656
0.7953,662
0.7969667,799
0.7986333,866
0.8003,778
0.8019667,794
0.8036333,785
0.8053,794
0.8069667,949
0.8086333,605
0.8103,934
0.8119667,891
0.8136333,678
0.8153,826
0.8169667,869
0.8186333,801
0.8203,782
0.8219666,762
0.8236333,690
0.8253,714
0.8269666,738
0.8286333,780
0.8303,839
0.8319666,822
0.8336333,819
0.8353,816
0.8369667,796
0.8386334,777
0.8403,840
0.8419667,694
0.8436334,851
0.8453,852
0.8469667,770
0.8486333,607
0.8503,873
0.8519667,930
0.8536333,811
0.8553,753
0.8569667,854
0.8586333,863
0.8603,672
0.8619667,866
0.8636333,575
0.8653,894
0.8669667,791
0.8686333,705
0.8703,669
0.8719667,692
0.8736333,714
0.8753,975
0.8769667,1226
0.8786333,1208
0.8803,1723
0.8819667,1973
0.8836333,2552
0.8853,2867
0.8869666,3063
0.8886333,2871
0.8903,2923
0.8919666,2976
0.8936333,2992
0.8953,3756
0.8969667,3603
0.8986334,3323
0.9003,3783
0.9019667,3513
0.9036334,3343
0.9053,3610
0.9069667,3458
0.9086334,3438
0.9103,3763
0.9119667,3098
0.9136333,3666
0.9153,3747
0.9169667,3560
0.9186333,3090
0.9203,3756
0.9219667,3151
0.9236333,3815
0.9253,3167
0.9269667,3517
0.9286333,3403
0.9303,3255
0.9319667,3338
0.9336333,3339
0.9353,3158
0.9369667,3087
0.9386333,3223
0.9403,2691
0.9419667,2793
0.9436333,3121
0.9453,2697
0.9469666,2590
0.9486333,2291
0.9503,2215
0.9519666,2301
0.9536333,2051
0.9553,1921
0.9569666,2260
0.9586333,1709
0.9603,1675
0.9619667,1549
0.9636334,1622
0.9653,1423
0.9669667,1466
0.9686334,1553
0.9703,1224
0.9719667,1374
0.9736333,1285
0.9753,1237
0.9769667,1201
0.9786333,1330
0.9803,929
0.9819667,724
0.9836333,853
0.9853,900
0.9869667,672
0.9886333,817
0.9903,834
0.9919667,780
0.9936333,531
0.9953,696
0.9969667,724
0.9986333,612
1.0003,754
1.001967,620
1.003633,522
1.0053,699
1.006967,697
1.008633,566
1.0103,609
1.011967,583
1.013633,543
1.0153,629
1.016967,577
1.018633,543
1.0203,457
1.021967,544
1.023633,499
1.0253,568
1.026967,661
1.028633,703
1.0303,602
1.031967,465
1.033633,600
1.0353,608
1.036967,616
1.038633,620
1.0403,619
1.041967,617
1.043633,524
1.0453,434
1.046967,482
1.048633,644
1.0503,593
1.051967,461
1.053633,665
1.0553,645
1.056967,574
1.058633,461
1.0603,520
1.061967,579
1.063633,528
1.0653,477
1.066967,502
1.068633,485
1.0703,479
1.071967,472
1.073633,505
1.0753,538
1.076967,609
1.078633,651
1.0803,608
1.081967,564
1.083633,551
1.0853,625
1.086967,659
1.088633,694
1.0903,709
1.091967,551
1.093633,702
1.0953,643
1.096967,598
1.098633,584
1.1003,536
1.101967,556
1.103633,575
1.1053,582
1.106967,626
1.108633,669
1.1103,739
1.111967,699
1.113633,623
1.1153,684
1.116967,522
1.118633,651
1.1203,653
1.121967,640
1.123633,689
1.1253,594
1.126967,599
1.128633,548
1.1303,516
1.131967,537
1.133633,558
1.1353,529
1.136967,532
1.138633,689
1.1403,666
1.141967,643
1.143633,569
1.1453,510
1.146967,690
1.148633,617
1.1503,789
1.151967,841
1.153633,688
1.1553,719
1.156967,613
1.158633,714
1.1603,637
1.161967,624
1.163633,601
1.1653,614
1.166967,628
1.168633,673
1.1703,773
1.171967,730
1.173633,743
1.1753,755
1.176967,604
1.178633,727
1.1803,786
1.181967,724
1.183633,791
1.1853,778
1.186967,709
1.188633,752
1.1903,718
1.191967,684
1.193633,702
1.1953,721
1.196967,550
1.198633,563
