"SampleName","A2Rd2_02-68"
"Target Mass 1",
"Column Name","IA-3 (3um, 4.6X100)"
"Channel","QDa 1: SIR Ch1"
0.00195,340
0.003616667,461
0.005283333,440
0.00695,391
0.008616666,597
0.01028333,631
0.01195,555
0.01361667,459
0.01528333,532
0.01695,562
0.01861667,561
0.02028333,437
0.02195,520
0.02361667,515
0.02528333,473
0.02695,430
0.02861667,543
0.03028333,481
0.03195,419
0.03361667,546
0.03528333,539
0.03695,526
0.03861667,472
0.04028333,459
0.04195,469
0.04361667,437
0.04528333,458
0.04695,463
0.04861667,467
0.05028334,511
0.05195,527
0.05361667,519
0.05528333,478
0.05695,564
0.05861667,416
0.06028333,579
0.06195,548
0.06361666,505
0.06528334,481
0.06695,468
0.06861667,433
0.07028333,394
0.07195,355
0.07361667,367
0.07528333,380
0.07695,462
0.07861666,486
0.08028334,510
0.08195,482
0.08361667,597
0.08528333,356
0.08695,383
0.08861667,507
0.09028333,491
0.09195,425
0.09361666,504
0.09528334,472
0.09695,439
0.09861667,514
0.1002833,468
0.10195,434
0.1036167,441
0.1052833,418
0.10695,442
0.1086167,497
0.1102833,467
0.11195,436
0.1136167,378
0.1152833,427
0.11695,397
0.1186167,367
0.1202833,504
0.12195,525
0.1236167,516
0.1252833,452
0.12695,577
0.1286167,384
0.1302833,442
0.13195,593
0.1336167,414
0.1352833,439
0.13695,428
0.1386167,465
0.1402833,496
0.14195,481
0.1436167,482
0.1452833,484
0.14695,319
0.1486167,397
0.1502833,565
0.15195,481
0.1536167,310
0.1552833,490
0.15695,426
0.1586167,513
0.1602833,434
0.16195,434
0.1636167,434
0.1652833,510
0.16695,469
0.1686167,428
0.1702833,380
0.17195,484
0.1736167,348
0.1752833,483
0.17695,539
0.1786167,444
0.1802833,328
0.18195,566
0.1836167,482
0.1852833,533
0.18695,499
0.1886167,386
0.1902833,419
0.19195,407
0.1936167,394
0.1952833,439
0.19695,287
0.1986167,397
0.2002833,411
0.20195,424
0.2036167,537
0.2052833,513
0.20695,465
0.2086167,453
0.2102833,476
0.21195,433
0.2136167,389
0.2152833,444
0.21695,419
0.2186167,395
0.2202833,449
0.22195,425
0.2236167,527
0.2252833,509
0.22695,367
0.2286167,548
0.2302833,593
0.23195,361
0.2336167,535
0.2352833,449
0.23695,341
0.2386167,553
0.2402833,522
0.24195,420
0.2436167,368
0.2452833,561
0.24695,600
0.2486167,483
0.2502833,378
0.25195,491
0.2536167,475
0.2552833,378
0.25695,467
0.2586167,401
0.2602833,443
0.26195,477
0.2636333,445
0.2652833,434
0.2669667,422
0.2686167,513
0.2702833,540
0.27195,496
0.2736167,491
0.2752833,543
0.27695,495
0.2786167,448
0.2803,496
0.28195,542
0.2836167,412
0.2852833,424
0.28695,340
0.2886167,511
0.2902833,510
0.29195,411
0.2936167,703
0.2952833,714
0.29695,552
0.2986333,554
0.3002833,509
0.30195,489
0.3036167,505
0.3052833,489
0.30695,372
0.3086167,462
0.3102833,442
0.31195,422
0.3136167,492
0.3153,499
0.3169667,444
0.3186167,446
0.3202833,426
0.32195,457
0.3236167,488
0.3252833,553
0.32695,575
0.3286167,521
0.3302833,549
0.3319667,502
0.3336333,387
0.3352833,494
0.33695,492
0.3386167,498
0.3403,503
0.34195,452
0.3436167,422
0.3452833,583
0.34695,593
0.3486333,500
0.3503,522
0.35195,522
0.3536167,594
0.3553,598
0.3569667,603
0.3586167,384
0.3602833,570
0.3619667,791
0.3636167,737
0.3653,1206
0.3669667,1637
0.3686333,2024
0.3703,3469
0.3719667,3826
0.3736333,3507
0.3753,3434
0.37695,3628
0.3786167,3756
0.3803,4174
0.3819667,4469
0.3836167,4347
0.3853,4224
0.38695,4127
0.3886333,3327
0.3903,3155
0.3919667,2351
0.3936167,1898
0.3953,1634
0.39695,1344
0.3986333,1372
0.4002833,1293
0.40195,1022
0.4036333,957
0.4053,956
0.4069667,913
0.4086333,861
0.4103,809
0.4119667,827
0.4136333,822
0.4153,817
0.4169667,903
0.4186333,916
0.4203,930
0.4219667,1181
0.4236333,1147
0.4253,1085
0.4269667,1149
0.4286333,1317
0.4303,1314
0.4319667,1377
0.4336333,1773
0.4353,2731
0.4369667,3493
0.4386333,5966
0.4403,9916
0.4419667,17148
0.4436333,24672
0.4453,37136
0.4469667,51392
0.4486333,66928
0.4503,80736
0.4519667,98448
0.4536333,112496
0.4553,126080
0.4569667,139328
0.4586333,144768
0.4603,153280
0.4619667,154880
0.4636333,156672
0.4653,157760
0.4669667,158656
0.4686333,160448
0.4703,164096
0.4719667,166848
0.4736333,174080
0.4753,178176
0.4769667,185920
0.4786333,193280
0.4803,191040
0.4819667,190656
0.4836333,184704
0.4853,173312
0.4869667,160000
0.4886333,147392
0.4903,129120
0.4919667,111664
0.4936333,94368
0.4953,80720
0.4969667,65456
0.4986333,55552
0.5003,44672
0.5019667,36512
0.5036333,29116
0.5053,24440
0.5069667,18936
0.5086333,16028
0.5103,13716
0.5119666,11260
0.5136333,8964
0.5153,8035
0.5169666,7376
0.5186333,5769
0.5203,5652
0.5219667,5030
0.5236334,4307
0.5253,4507
0.5269667,3894
0.5286334,3500
0.5303,3439
0.5319667,2989
0.5336334,2997
0.5353,3081
0.5369667,2751
0.5386333,2432
0.5403,2395
0.5419667,2460
0.5436333,2454
0.5453,1912
0.5469667,2129
0.5486333,2251
0.5503,2279
0.5519667,2046
0.5536333,1959
0.5553,1909
0.5569667,1838
0.5586333,1728
0.5603,1692
0.5619667,1604
0.5636333,1364
0.5653,1483
0.5669667,1458
0.5686333,1358
0.5703,1426
0.5719666,1494
0.5736333,1517
0.5753,1479
0.5769666,1441
0.5786333,1338
0.5803,1302
0.5819666,1266
0.5836333,1440
0.5853,1414
0.5869667,1295
0.5886334,1531
0.5903,1023
0.5919667,1268
0.5936334,1227
0.5953,1301
0.5969667,1246
0.5986333,1191
0.6003,1403
0.6019667,1337
0.6036333,1271
0.6053,1268
0.6069667,1243
0.6086333,1128
0.6103,1201
0.6119667,1195
0.6136333,1189
0.6153,1088
0.6169667,1068
0.6186333,1071
0.6203,1009
0.6219667,1183
0.6236333,1237
0.6253,912
0.6269667,1011
0.6286333,1209
0.6303,905
0.6319667,1011
0.6336333,1059
0.6353,993
0.6369666,1020
0.6386333,1019
0.6403,1104
0.6419666,880
0.6436333,974
0.6453,730
0.6469667,1022
0.6486334,816
0.6503,827
0.6519667,838
0.6536334,877
0.6553,916
0.6569667,945
0.6586334,923
0.6603,986
0.6619667,784
0.6636333,913
0.6653,992
0.6669667,810
0.6686333,765
0.6703,962
0.6719667,875
0.6736333,906
0.6753,915
0.6769667,925
0.6786333,775
0.6803,974
0.6819667,875
0.6836333,898
0.6853,921
0.6869667,813
0.6886333,689
0.6903,670
0.6919667,968
0.6936333,1086
0.6953,818
0.6969666,745
0.6986333,969
0.7003,937
0.7019666,737
0.7036333,950
0.7053,672
0.7069666,655
0.7086333,730
0.7103,738
0.7119667,853
0.7136334,862
0.7153,854
0.7169667,847
0.7186334,856
0.7203,865
0.7219667,815
0.7236333,873
0.7253,853
0.7269667,833
0.7286333,916
0.7303,903
0.7319667,824
0.7336333,877
0.7353,856
0.7369667,816
0.7386333,799
0.7403,844
0.7419667,845
0.7436333,846
0.7453,783
0.7469667,720
0.7486333,697
0.7503,673
0.7519667,597
0.7536333,840
0.7553,870
0.7569667,869
0.7586333,909
0.7603,897
0.7619666,868
0.7636333,860
0.7653,738
0.7669666,980
0.7686333,1009
0.7703,883
0.7719667,755
0.7736334,852
0.7753,724
0.7769667,859
0.7786334,860
0.7803,724
0.7819667,890
0.7836334,673
0.7853,918
0.7869667,838
0.7886333,855
0.7903,863
0.7919667,895
0.7936333,711
0.7953,1021
0.7969667,915
0.7986333,1020
0.8003,847
0.8019667,770
0.8036333,949
0.8053,988
0.8069667,942
0.8086333,952
0.8103,961
0.8119667,954
0.8136333,963
0.8153,1019
0.8169667,1031
0.8186333,975
0.8203,793
0.8219666,898
0.8236333,950
0.8253,1001
0.8269666,876
0.8286333,1056
0.8303,1085
0.8319666,1030
0.8336333,1079
0.8353,980
0.8369667,1007
0.8386334,964
0.8403,982
0.8419667,1000
0.8436334,974
0.8453,995
0.8469667,1015
0.8486333,975
0.8503,855
0.8519667,972
0.8536333,808
0.8553,823
0.8569667,898
0.8586333,972
0.8603,940
0.8619667,883
0.8636333,820
0.8653,873
0.8669667,818
0.8686333,708
0.8703,758
0.8719667,783
0.8736333,807
0.8753,729
0.8769667,1088
0.8786333,1296
0.8803,1536
0.8819667,2122
0.8836333,2400
0.8853,2883
0.8869666,3496
0.8886333,3047
0.8903,4032
0.8919666,3673
0.8936333,3576
0.8953,3766
0.8969667,3298
0.8986334,4271
0.9003,4001
0.9019667,3580
0.9036334,3503
0.9053,3796
0.9069667,4021
0.9086334,3993
0.9103,3686
0.9119667,4168
0.9136333,3980
0.9153,3264
0.9169667,3651
0.9186333,3614
0.9203,3577
0.9219667,3573
0.9236333,3569
0.9253,3751
0.9269667,3568
0.9286333,3385
0.9303,3582
0.9319667,3760
0.9336333,3277
0.9353,3231
0.9369667,3418
0.9386333,3437
0.9403,3080
0.9419667,3206
0.9436333,3199
0.9453,3270
0.9469666,3031
0.9486333,2827
0.9503,2580
0.9519666,2744
0.9536333,2610
0.9553,2451
0.9569666,2503
0.9586333,2389
0.9603,1994
0.9619667,1947
0.9636334,2046
0.9653,1713
0.9669667,1815
0.9686334,1234
0.9703,1559
0.9719667,1529
0.9736333,1434
0.9753,1419
0.9769667,1253
0.9786333,1362
0.9803,1121
0.9819667,1049
0.9836333,984
0.9853,1038
0.9869667,980
0.9886333,827
0.9903,694
0.9919667,881
0.9936333,693
0.9953,850
0.9969667,754
0.9986333,671
1.0003,716
1.001967,624
1.003633,591
1.0053,688
1.006967,636
1.008633,584
1.0103,602
1.011967,621
1.013633,513
1.0153,653
1.016967,558
1.018633,677
1.0203,575
1.021967,737
1.023633,801
1.0253,639
1.026967,575
1.028633,749
1.0303,811
1.031967,789
1.033633,716
1.0353,624
1.036967,567
1.038633,788
1.0403,688
1.041967,815
1.043633,684
1.0453,724
1.046967,493
1.048633,795
1.0503,671
1.051967,599
1.053633,741
1.0553,766
1.056967,763
1.058633,813
1.0603,627
1.061967,642
1.063633,751
1.0653,723
1.066967,695
1.068633,641
1.0703,614
1.071967,588
1.073633,634
1.0753,754
1.076967,740
1.078633,683
1.0803,665
1.081967,573
1.083633,725
1.0853,648
1.086967,733
1.088633,679
1.0903,625
1.091967,690
1.093633,646
1.0953,645
1.096967,649
1.098633,653
1.1003,687
1.101967,723
1.103633,588
1.1053,783
1.106967,745
1.108633,616
1.1103,769
1.111967,704
1.113633,675
1.1153,639
1.116967,595
1.118633,688
1.1203,724
1.121967,771
1.123633,828
1.1253,778
1.126967,869
1.128633,857
1.1303,533
1.131967,650
1.133633,559
1.1353,859
1.136967,790
1.138633,630
1.1403,701
1.141967,649
1.143633,616
1.1453,583
1.146967,685
1.148633,786
1.1503,914
1.151967,824
1.153633,602
1.1553,542
1.156967,676
1.158633,697
1.1603,733
1.161967,720
1.163633,773
1.1653,807
1.166967,840
1.168633,579
1.1703,859
1.171967,828
1.173633,706
1.1753,708
1.176967,710
1.178633,730
1.1803,750
1.181967,816
1.183633,883
1.1853,832
1.186967,781
1.188633,711
1.1903,659
1.191967,776
1.193633,737
1.1953,697
1.196967,764
1.198633,755
