"SampleName","A2Rd2_02-56"
"Target Mass 1",
"Column Name","IA-3 (3um, 4.6X100)"
"Channel","QDa 1: SIR Ch1"
0.00195,402
0.003616667,442
0.005283333,425
0.00695,402
0.008616666,378
0.01028333,494
0.01195,610
0.01361667,640
0.01528333,561
0.01695,438
0.01861667,643
0.02028333,609
0.02195,466
0.02361667,474
0.02528333,535
0.02695,463
0.02861667,453
0.03028333,468
0.03195,515
0.03361667,669
0.03528333,631
0.03695,517
0.03861667,538
0.04028333,617
0.04195,447
0.04361667,496
0.04528333,502
0.04695,411
0.04861667,486
0.05028334,557
0.05195,500
0.05361667,512
0.05528333,438
0.05695,364
0.05861667,386
0.06028333,396
0.06195,489
0.06361666,537
0.06528334,533
0.06695,547
0.06861667,548
0.07028333,549
0.07195,508
0.07361667,470
0.07528333,476
0.07695,493
0.07861666,492
0.08028334,490
0.08195,443
0.08361667,396
0.08528333,536
0.08695,500
0.08861667,464
0.09028333,493
0.09195,466
0.09361666,439
0.09528334,415
0.09695,392
0.09861667,434
0.1002833,423
0.10195,403
0.1036167,384
0.1052833,282
0.10695,547
0.1086167,531
0.1102833,495
0.11195,572
0.1136167,597
0.1152833,440
0.11695,410
0.1186167,517
0.1202833,476
0.12195,436
0.1236167,448
0.1252833,356
0.12695,489
0.1286167,468
0.1302833,446
0.13195,478
0.1336167,510
0.1352833,536
0.13695,447
0.1386167,459
0.1402833,472
0.14195,339
0.1436167,455
0.1452833,500
0.14695,545
0.1486167,489
0.1502833,502
0.15195,347
0.1536167,435
0.1552833,541
0.15695,453
0.1586167,526
0.1602833,516
0.16195,472
0.1636167,503
0.1652833,377
0.16695,459
0.1686167,353
0.1702833,407
0.17195,522
0.1736167,525
0.1752833,440
0.17695,458
0.1786167,406
0.1802833,408
0.18195,411
0.1836167,417
0.1852833,492
0.18695,476
0.1886167,458
0.1902833,439
0.19195,408
0.1936333,376
0.1952833,464
0.19695,438
0.1986167,413
0.2002833,352
0.20195,391
0.2036167,430
0.2052833,625
0.20695,626
0.2086167,569
0.2103,510
0.21195,437
0.2136333,463
0.2152833,466
0.2169667,469
0.2186167,510
0.2203,397
0.22195,431
0.2236333,516
0.2252833,600
0.22695,587
0.2286167,537
0.2302833,496
0.23195,507
0.2336167,442
0.2352833,448
0.23695,454
0.2386167,441
0.2402833,438
0.24195,436
0.2436333,477
0.2452833,570
0.2469667,597
0.2486167,540
0.2502833,517
0.25195,621
0.2536167,468
0.2552833,501
0.25695,549
0.2586167,547
0.2602833,578
0.26195,395
0.2636333,536
0.2653,493
0.26695,542
0.2686167,388
0.2702833,340
0.27195,547
0.2736167,459
0.2752833,592
0.27695,507
0.2786167,531
0.2803,411
0.28195,551
0.2836333,410
0.2852833,481
0.28695,395
0.2886167,479
0.2902833,413
0.29195,382
0.2936167,412
0.2952833,443
0.29695,445
0.2986333,447
0.3003,473
0.30195,459
0.3036167,446
0.3052833,511
0.30695,533
0.3086167,476
0.3102833,503
0.31195,530
0.3136167,516
0.3153,439
0.31695,433
0.3186333,434
0.3202833,426
0.32195,418
0.3236167,622
0.3253,644
0.32695,540
0.3286167,465
0.3302833,575
0.33195,501
0.3336333,435
0.3353,489
0.33695,450
0.3386167,411
0.3402833,450
0.34195,434
0.3436167,393
0.3452833,353
0.34695,435
0.3486167,518
0.3503,499
0.35195,442
0.3536333,484
0.3553,542
0.3569667,513
0.3586167,581
0.3602833,554
0.3619667,565
0.3636167,576
0.3653,910
0.36695,1389
0.3686333,2030
0.3703,2526
0.3719667,3035
0.3736333,2876
0.3752833,2964
0.3769667,3495
0.3786333,3464
0.3803,3856
0.38195,4008
0.3836167,3925
0.3853,3843
0.38695,3463
0.3886333,3194
0.3902833,2750
0.3919667,2506
0.3936167,1940
0.3953,1492
0.3969667,1260
0.3986167,1136
0.4002833,1282
0.40195,1119
0.4036333,1128
0.4053,1114
0.4069667,1202
0.4086333,1211
0.4103,1221
0.4119667,1287
0.4136333,1353
0.4153,1411
0.4169667,1349
0.4186333,1457
0.4203,1601
0.4219667,1649
0.4236333,1613
0.4253,1578
0.4269667,1578
0.4286333,1578
0.4303,1615
0.4319667,1991
0.4336333,2587
0.4353,3305
0.4369667,4723
0.4386333,7131
0.4403,11556
0.4419667,17688
0.4436333,27524
0.4453,40480
0.4469667,52416
0.4486333,69824
0.4503,86752
0.4519667,100688
0.4536333,117472
0.4553,129792
0.4569667,143360
0.4586333,148800
0.4603,156288
0.4619667,160640
0.4636333,164224
0.4653,167232
0.4669667,168192
0.4686333,172096
0.4703,175424
0.4719667,184320
0.4736333,192896
0.4753,200896
0.4769667,207488
0.4786333,215552
0.4803,211520
0.4819667,203648
0.4836333,194240
0.4853,182336
0.4869667,164992
0.4886333,145792
0.4903,126272
0.4919667,108976
0.4936333,91840
0.4953,74496
0.4969667,63536
0.4986333,51232
0.5003,40736
0.5019667,32196
0.5036333,25368
0.5053,21748
0.5069667,17724
0.5086333,13936
0.5103,11616
0.5119666,10064
0.5136333,8724
0.5153,7561
0.5169666,6399
0.5186333,5531
0.5203,5434
0.5219667,4514
0.5236334,5093
0.5253,3902
0.5269667,3884
0.5286334,3473
0.5303,3483
0.5319667,3385
0.5336334,3078
0.5353,2872
0.5369667,2668
0.5386333,2631
0.5403,2803
0.5419667,2352
0.5436333,2491
0.5453,2527
0.5469667,2389
0.5486333,2234
0.5503,2319
0.5519667,2317
0.5536333,2133
0.5553,1891
0.5569667,1715
0.5586333,1648
0.5603,1759
0.5619667,1701
0.5636333,1671
0.5653,1740
0.5669667,1577
0.5686333,1288
0.5703,1332
0.5719666,1311
0.5736333,1162
0.5753,1510
0.5769666,1509
0.5786333,1425
0.5803,1130
0.5819666,1329
0.5836333,1165
0.5853,1381
0.5869667,1387
0.5886334,1359
0.5903,1342
0.5919667,1333
0.5936334,1324
0.5953,1243
0.5969667,1163
0.5986333,1065
0.6003,1183
0.6019667,1301
0.6036333,1334
0.6053,1416
0.6069667,1314
0.6086333,1344
0.6103,1334
0.6119667,1323
0.6136333,1364
0.6153,1406
0.6169667,1176
0.6186333,1074
0.6203,1069
0.6219667,1148
0.6236333,1226
0.6253,1256
0.6269667,1234
0.6286333,1108
0.6303,1086
0.6319667,1278
0.6336333,1169
0.6353,1161
0.6369666,1128
0.6386333,1076
0.6403,1024
0.6419666,976
0.6436333,902
0.6453,899
0.6469667,886
0.6486334,902
0.6503,918
0.6519667,1030
0.6536334,1058
0.6553,853
0.6569667,952
0.6586334,926
0.6603,888
0.6619667,925
0.6636333,918
0.6653,911
0.6669667,854
0.6686333,780
0.6703,774
0.6719667,865
0.6736333,727
0.6753,930
0.6769667,665
0.6786333,827
0.6803,831
0.6819667,770
0.6836333,858
0.6853,685
0.6869667,887
0.6886333,918
0.6903,705
0.6919667,794
0.6936333,770
0.6953,811
0.6969666,771
0.6986333,798
0.7003,682
0.7019666,782
0.7036333,739
0.7053,769
0.7069666,719
0.7086333,609
0.7103,853
0.7119667,773
0.7136334,696
0.7153,703
0.7169667,749
0.7186334,740
0.7203,767
0.7219667,659
0.7236333,634
0.7253,622
0.7269667,613
0.7286333,636
0.7303,629
0.7319667,623
0.7336333,637
0.7353,650
0.7369667,669
0.7386333,689
0.7403,723
0.7419667,572
0.7436333,801
0.7453,608
0.7469667,683
0.7486333,627
0.7503,556
0.7519667,795
0.7536333,724
0.7553,715
0.7569667,788
0.7586333,656
0.7603,647
0.7619666,639
0.7636333,817
0.7653,818
0.7669666,649
0.7686333,690
0.7703,672
0.7719667,669
0.7736334,688
0.7753,681
0.7769667,708
0.7786334,736
0.7803,727
0.7819667,718
0.7836334,607
0.7853,661
0.7869667,612
0.7886333,738
0.7903,779
0.7919667,762
0.7936333,576
0.7953,687
0.7969667,772
0.7986333,563
0.8003,624
0.8019667,702
0.8036333,515
0.8053,525
0.8069667,445
0.8086333,633
0.8103,609
0.8119667,586
0.8136333,582
0.8153,579
0.8169667,593
0.8186333,608
0.8203,603
0.8219666,598
0.8236333,615
0.8253,658
0.8269666,682
0.8286333,637
0.8303,593
0.8319666,606
0.8336333,568
0.8353,516
0.8369667,567
0.8386334,585
0.8403,578
0.8419667,582
0.8436334,621
0.8453,660
0.8469667,650
0.8486333,551
0.8503,580
0.8519667,610
0.8536333,557
0.8553,505
0.8569667,561
0.8586333,671
0.8603,684
0.8619667,737
0.8636333,598
0.8653,642
0.8669667,401
0.8686333,524
0.8703,696
0.8719667,482
0.8736333,661
0.8753,621
0.8769667,652
0.8786333,640
0.8803,629
0.8819667,793
0.8836333,1085
0.8853,1057
0.8869666,1352
0.8886333,1899
0.8903,1657
0.8919666,1669
0.8936333,1963
0.8953,1781
0.8969667,1784
0.8986334,1984
0.9003,2056
0.9019667,2335
0.9036334,2162
0.9053,1989
0.9069667,2371
0.9086334,2033
0.9103,2274
0.9119667,1697
0.9136333,2018
0.9153,2110
0.9169667,1963
0.9186333,2148
0.9203,2024
0.9219667,2030
0.9236333,2159
0.9253,2077
0.9269667,1995
0.9286333,1793
0.9303,1874
0.9319667,2042
0.9336333,2042
0.9353,1896
0.9369667,1751
0.9386333,1840
0.9403,1707
0.9419667,1717
0.9436333,1917
0.9453,1521
0.9469666,1481
0.9486333,1702
0.9503,1428
0.9519666,1534
0.9536333,1432
0.9553,1553
0.9569666,1163
0.9586333,1170
0.9603,1208
0.9619667,1202
0.9636334,1195
0.9653,1067
0.9669667,1125
0.9686334,1141
0.9703,913
0.9719667,923
0.9736333,871
0.9753,929
0.9769667,909
0.9786333,889
0.9803,680
0.9819667,742
0.9836333,742
0.9853,686
0.9869667,545
0.9886333,677
0.9903,594
0.9919667,659
0.9936333,657
0.9953,549
0.9969667,605
0.9986333,474
1.0003,592
1.001967,551
1.003633,588
1.0053,612
1.006967,495
1.008633,554
1.0103,382
1.011967,422
1.013633,462
1.0153,439
1.016967,417
1.018633,453
1.0203,490
1.021967,505
1.023633,521
1.0253,486
1.026967,521
1.028633,536
1.0303,468
1.031967,551
1.033633,504
1.0353,462
1.036967,528
1.038633,522
1.0403,515
1.041967,310
1.043633,479
1.0453,423
1.046967,582
1.048633,509
1.0503,617
1.051967,579
1.053633,481
1.0553,543
1.056967,518
1.058633,580
1.0603,446
1.061967,549
1.063633,573
1.0653,500
1.066967,426
1.068633,496
1.0703,505
1.071967,514
1.073633,543
1.0753,572
1.076967,556
1.078633,335
1.0803,519
1.081967,506
1.083633,598
1.0853,566
1.086967,467
1.088633,439
1.0903,482
1.091967,483
1.093633,483
1.0953,429
1.096967,474
1.098633,482
1.1003,486
1.101967,504
1.103633,521
1.1053,397
1.106967,494
1.108633,389
1.1103,669
1.111967,612
1.113633,557
1.1153,569
1.116967,544
1.118633,437
1.1203,634
1.121967,529
1.123633,524
1.1253,548
1.126967,572
1.128633,471
1.1303,555
1.131967,608
1.133633,536
1.1353,466
1.136967,604
1.138633,433
1.1403,590
1.141967,665
1.143633,544
1.1453,548
1.146967,528
1.148633,508
1.1503,602
1.151967,437
1.153633,592
1.1553,489
1.156967,565
1.158633,464
1.1603,663
1.161967,657
1.163633,500
1.1653,638
1.166967,549
1.168633,449
1.1703,511
1.171967,451
1.173633,392
1.1753,527
1.176967,485
1.178633,478
1.1803,470
1.181967,480
1.183633,489
1.1853,426
1.186967,523
1.188633,419
1.1903,472
1.191967,539
1.193633,605
1.1953,588
1.196967,571
1.198633,433
