"SampleName","A2Rd2_02-66"
"Target Mass 1",
"Column Name","IA-3 (3um, 4.6X100)"
"Channel","QDa 1: SIR Ch1"
0.00195,253
0.003616667,550
0.005283333,440
0.00695,462
0.008616666,512
0.01028333,544
0.01195,363
0.01361667,488
0.01528333,538
0.01695,559
0.01861667,517
0.02028333,476
0.02195,551
0.02361667,547
0.02528333,543
0.02695,485
0.02861667,507
0.03028333,537
0.03195,417
0.03361667,566
0.03528333,562
0.03695,426
0.03861667,532
0.04028333,512
0.04195,439
0.04361667,469
0.04528333,496
0.04695,568
0.04861667,515
0.05028334,462
0.05195,449
0.05361667,457
0.05528333,457
0.05695,491
0.05861667,501
0.06028333,427
0.06195,430
0.06361666,455
0.06528334,445
0.06695,471
0.06861667,557
0.07028333,571
0.07195,586
0.07361667,528
0.07528333,438
0.07695,441
0.07861666,464
0.08028334,425
0.08195,497
0.08361667,478
0.08528333,459
0.08695,497
0.08861667,460
0.09028333,501
0.09195,468
0.09361666,520
0.09528334,532
0.09695,453
0.09861667,426
0.1002833,445
0.10195,406
0.1036167,367
0.1052833,396
0.10695,425
0.1086167,528
0.1102833,528
0.11195,412
0.1136167,588
0.1152833,526
0.11695,536
0.1186167,542
0.1202833,547
0.12195,596
0.1236167,614
0.1252833,467
0.12695,471
0.1286167,470
0.1302833,438
0.13195,393
0.1336167,419
0.1352833,445
0.13695,580
0.1386167,552
0.1402833,487
0.14195,459
0.1436167,367
0.1452833,514
0.14695,438
0.1486167,544
0.1502833,524
0.15195,505
0.1536167,392
0.1552833,406
0.15695,553
0.1586333,490
0.1602833,566
0.16195,405
0.1636167,456
0.1652833,488
0.16695,589
0.1686167,535
0.1702833,586
0.17195,462
0.1736167,412
0.1752833,499
0.17695,451
0.1786167,387
0.1802833,487
0.18195,442
0.1836167,315
0.1852833,375
0.18695,460
0.1886167,398
0.1902833,505
0.19195,452
0.1936333,346
0.1953,529
0.19695,498
0.1986167,412
0.2002833,374
0.20195,388
0.2036167,607
0.2052833,587
0.20695,475
0.2086167,519
0.2103,507
0.21195,416
0.2136167,564
0.2152833,461
0.21695,496
0.2186167,500
0.2202833,339
0.22195,351
0.2236167,370
0.2252833,366
0.22695,370
0.2286167,373
0.2302833,350
0.23195,327
0.2336167,520
0.2352833,494
0.23695,523
0.2386167,355
0.2403,483
0.24195,473
0.2436333,462
0.2452833,308
0.24695,489
0.2486167,552
0.2502833,469
0.25195,548
0.2536167,489
0.2552833,430
0.2569667,498
0.2586167,402
0.2602833,409
0.26195,415
0.2636333,406
0.2652833,397
0.26695,530
0.2686167,524
0.2702833,352
0.27195,509
0.2736167,430
0.2752833,488
0.27695,547
0.2786167,443
0.2803,470
0.28195,488
0.2836167,401
0.2852833,455
0.28695,360
0.2886167,387
0.2902833,415
0.29195,441
0.2936333,446
0.2952833,451
0.29695,433
0.2986333,415
0.3002833,527
0.30195,531
0.3036167,503
0.3052833,528
0.30695,474
0.3086167,397
0.3102833,468
0.31195,460
0.3136167,453
0.3153,357
0.31695,510
0.3186167,509
0.3203,509
0.32195,537
0.3236167,382
0.3253,507
0.32695,499
0.3286167,474
0.3302833,568
0.33195,361
0.3336333,543
0.3352833,487
0.3369667,596
0.3386333,444
0.3403,499
0.3419667,461
0.3436333,373
0.3452833,435
0.34695,497
0.3486167,512
0.3503,508
0.35195,505
0.3536333,515
0.3552833,525
0.3569667,593
0.3586333,541
0.3602833,489
0.36195,642
0.3636167,725
0.3652833,1019
0.36695,1633
0.3686333,2123
0.3702833,2790
0.3719667,2872
0.3736333,2940
0.3753,2833
0.3769667,2726
0.3786333,3668
0.3802833,3706
0.3819667,3699
0.3836333,3697
0.3853,3695
0.3869667,3872
0.3886333,3195
0.3903,2945
0.3919667,2286
0.3936333,1813
0.3953,1665
0.3969667,1557
0.3986333,1271
0.4003,937
0.4019667,1266
0.4036333,1119
0.4053,1100
0.4069667,970
0.4086333,1091
0.4103,1130
0.4119667,1169
0.4136333,1316
0.4153,1338
0.4169667,1490
0.4186333,1421
0.4203,1352
0.4219667,1462
0.4236333,1396
0.4253,1331
0.4269667,1491
0.4286333,1609
0.4303,1554
0.4319667,1963
0.4336333,2257
0.4353,3264
0.4369667,5015
0.4386333,8780
0.4403,13072
0.4419667,22540
0.4436333,33520
0.4453,46848
0.4469667,60304
0.4486333,78096
0.4503,92320
0.4519667,111488
0.4536333,126688
0.4553,142272
0.4569667,150272
0.4586333,157440
0.4603,164800
0.4619667,165568
0.4636333,167616
0.4653,168768
0.4669667,169600
0.4686333,175104
0.4703,178880
0.4719667,187136
0.4736333,193152
0.4753,200320
0.4769667,205632
0.4786333,210048
0.4803,206528
0.4819667,198592
0.4836333,188864
0.4853,169088
0.4869667,155456
0.4886333,137280
0.4903,115424
0.4919667,99904
0.4936333,85392
0.4953,72976
0.4969667,56176
0.4986333,45312
0.5003,37616
0.5019667,29848
0.5036333,23184
0.5053,19252
0.5069667,16512
0.5086333,14516
0.5103,11332
0.5119666,9740
0.5136333,8384
0.5153,8200
0.5169666,6749
0.5186333,5559
0.5203,4868
0.5219667,5204
0.5236334,4398
0.5253,3981
0.5269667,3829
0.5286334,3684
0.5303,3476
0.5319667,3203
0.5336334,3231
0.5353,3113
0.5369667,2413
0.5386333,2769
0.5403,2462
0.5419667,2495
0.5436333,2516
0.5453,2343
0.5469667,2076
0.5486333,2218
0.5503,2150
0.5519667,1714
0.5536333,2177
0.5553,2189
0.5569667,1945
0.5586333,1832
0.5603,1813
0.5619667,1613
0.5636333,1680
0.5653,1578
0.5669667,1624
0.5686333,1508
0.5703,1637
0.5719666,1359
0.5736333,1558
0.5753,1349
0.5769666,1594
0.5786333,1416
0.5803,1453
0.5819666,1383
0.5836333,1400
0.5853,1416
0.5869667,1400
0.5886334,1354
0.5903,1308
0.5919667,1430
0.5936334,1454
0.5953,1561
0.5969667,1553
0.5986333,1545
0.6003,1560
0.6019667,1558
0.6036333,1429
0.6053,1649
0.6069667,1671
0.6086333,1493
0.6103,1747
0.6119667,1660
0.6136333,1345
0.6153,1362
0.6169667,1497
0.6186333,1397
0.6203,1346
0.6219667,1151
0.6236333,1328
0.6253,1187
0.6269667,1261
0.6286333,1327
0.6303,1345
0.6319667,1159
0.6336333,1243
0.6353,1043
0.6369666,931
0.6386333,1105
0.6403,1289
0.6419666,1218
0.6436333,1086
0.6453,959
0.6469667,1125
0.6486334,965
0.6503,968
0.6519667,805
0.6536334,936
0.6553,805
0.6569667,909
0.6586334,932
0.6603,777
0.6619667,1010
0.6636333,807
0.6653,905
0.6669667,990
0.6686333,767
0.6703,610
0.6719667,768
0.6736333,820
0.6753,926
0.6769667,817
0.6786333,855
0.6803,783
0.6819667,711
0.6836333,726
0.6853,741
0.6869667,766
0.6886333,757
0.6903,748
0.6919667,772
0.6936333,700
0.6953,735
0.6969666,770
0.6986333,659
0.7003,790
0.7019666,763
0.7036333,735
0.7053,771
0.7069666,807
0.7086333,799
0.7103,791
0.7119667,758
0.7136334,737
0.7153,717
0.7169667,730
0.7186334,781
0.7203,809
0.7219667,821
0.7236333,819
0.7253,727
0.7269667,715
0.7286333,709
0.7303,703
0.7319667,697
0.7336333,658
0.7353,619
0.7369667,763
0.7386333,771
0.7403,717
0.7419667,807
0.7436333,817
0.7453,828
0.7469667,779
0.7486333,855
0.7503,848
0.7519667,742
0.7536333,690
0.7553,743
0.7569667,737
0.7586333,730
0.7603,764
0.7619666,776
0.7636333,810
0.7653,844
0.7669666,937
0.7686333,622
0.7703,718
0.7719667,829
0.7736334,656
0.7753,700
0.7769667,746
0.7786334,693
0.7803,649
0.7819667,708
0.7836334,767
0.7853,754
0.7869667,757
0.7886333,809
0.7903,669
0.7919667,866
0.7936333,775
0.7953,527
0.7969667,696
0.7986333,684
0.8003,731
0.8019667,749
0.8036333,767
0.8053,691
0.8069667,614
0.8086333,599
0.8103,737
0.8119667,688
0.8136333,742
0.8153,682
0.8169667,549
0.8186333,767
0.8203,755
0.8219666,688
0.8236333,821
0.8253,817
0.8269666,842
0.8286333,813
0.8303,797
0.8319666,758
0.8336333,902
0.8353,654
0.8369667,755
0.8386334,753
0.8403,681
0.8419667,622
0.8436334,800
0.8453,782
0.8469667,682
0.8486333,753
0.8503,774
0.8519667,702
0.8536333,768
0.8553,657
0.8569667,713
0.8586333,761
0.8603,776
0.8619667,812
0.8636333,762
0.8653,892
0.8669667,631
0.8686333,590
0.8703,503
0.8719667,656
0.8736333,660
0.8753,538
0.8769667,828
0.8786333,940
0.8803,1198
0.8819667,1382
0.8836333,1908
0.8853,2161
0.8869666,2105
0.8886333,2419
0.8903,2561
0.8919666,2488
0.8936333,2608
0.8953,2728
0.8969667,2810
0.8986334,2763
0.9003,2715
0.9019667,2657
0.9036334,2599
0.9053,2857
0.9069667,3272
0.9086334,3136
0.9103,3000
0.9119667,2965
0.9136333,2698
0.9153,3081
0.9169667,3357
0.9186333,3185
0.9203,3107
0.9219667,3029
0.9236333,2978
0.9253,3073
0.9269667,3169
0.9286333,2792
0.9303,2627
0.9319667,3032
0.9336333,2953
0.9353,2583
0.9369667,2708
0.9386333,2807
0.9403,2200
0.9419667,2521
0.9436333,2451
0.9453,2378
0.9469666,2225
0.9486333,1941
0.9503,2104
0.9519666,2124
0.9536333,2065
0.9553,2005
0.9569666,1658
0.9586333,1602
0.9603,1540
0.9619667,1451
0.9636334,1485
0.9653,1447
0.9669667,1177
0.9686334,1382
0.9703,1213
0.9719667,1194
0.9736333,1029
0.9753,929
0.9769667,1021
0.9786333,966
0.9803,1005
0.9819667,972
0.9836333,744
0.9853,738
0.9869667,772
0.9886333,682
0.9903,592
0.9919667,688
0.9936333,600
0.9953,595
0.9969667,548
0.9986333,623
1.0003,600
1.001967,577
1.003633,465
1.0053,620
1.006967,575
1.008633,666
1.0103,699
1.011967,636
1.013633,712
1.0153,764
1.016967,594
1.018633,712
1.0203,521
1.021967,642
1.023633,524
1.0253,623
1.026967,519
1.028633,432
1.0303,631
1.031967,606
1.033633,516
1.0353,467
1.036967,612
1.038633,616
1.0403,641
1.041967,545
1.043633,537
1.0453,650
1.046967,676
1.048633,607
1.0503,634
1.051967,595
1.053633,456
1.0553,619
1.056967,563
1.058633,707
1.0603,605
1.061967,608
1.063633,612
1.0653,569
1.066967,569
1.068633,568
1.0703,619
1.071967,601
1.073633,584
1.0753,528
1.076967,614
1.078633,523
1.0803,626
1.081967,574
1.083633,532
1.0853,659
1.086967,569
1.088633,652
1.0903,662
1.091967,533
1.093633,625
1.0953,561
1.096967,643
1.098633,639
1.1003,793
1.101967,774
1.103633,626
1.1053,772
1.106967,550
1.108633,554
1.1103,625
1.111967,653
1.113633,602
1.1153,591
1.116967,580
1.118633,605
1.1203,590
1.121967,574
1.123633,572
1.1253,590
1.126967,492
1.128633,623
1.1303,581
1.131967,566
1.133633,560
1.1353,561
1.136967,562
1.138633,659
1.1403,656
1.141967,598
1.143633,582
1.1453,539
1.146967,567
1.148633,544
1.1503,524
1.151967,525
1.153633,526
1.1553,553
1.156967,615
1.158633,618
1.1603,621
1.161967,478
1.163633,682
1.1653,591
1.166967,521
1.168633,615
1.1703,559
1.171967,554
1.173633,594
1.1753,528
1.176967,554
1.178633,544
1.1803,527
1.181967,515
1.183633,503
1.1853,541
1.186967,579
1.188633,624
1.1903,636
1.191967,575
1.193633,459
1.1953,677
1.196967,659
1.198633,537
