"SampleName","A2Rd2_02-12"
"Target Mass 1",
"Column Name","IA-3 (3um, 4.6X100)"
"Channel","QDa 1: SIR Ch2"
0.00195,509
0.003616667,650
0.005283333,645
0.00695,678
0.008616666,736
0.01028333,994
0.01195,1089
0.01361667,742
0.01528333,823
0.01695,1069
0.01861667,955
0.02028333,901
0.02195,880
0.02361667,865
0.02528333,789
0.02695,876
0.02861667,882
0.03028333,888
0.03195,801
0.03361667,853
0.03528333,855
0.03695,921
0.03861667,950
0.04028333,980
0.04195,919
0.04361667,949
0.04528333,1038
0.04695,792
0.04861667,920
0.05028334,926
0.05195,984
0.05361667,948
0.05528333,968
0.05695,915
0.05861667,878
0.06028333,1083
0.06195,667
0.06361666,812
0.06528334,1095
0.06695,733
0.06861667,1051
0.07028333,972
0.07195,1015
0.07361667,882
0.07528333,1055
0.07695,946
0.07861666,837
0.08028334,882
0.08195,915
0.08361667,935
0.08528333,918
0.08695,902
0.08861667,853
0.09028333,698
0.09195,937
0.09361666,809
0.09528334,948
0.09695,985
0.09861667,938
0.1002833,911
0.10195,890
0.1036167,891
0.1052833,892
0.10695,871
0.1086167,837
0.1102833,803
0.11195,761
0.1136167,858
0.1152833,873
0.11695,889
0.1186167,761
0.1202833,859
0.12195,898
0.1236167,887
0.1252833,876
0.12695,851
0.1286167,599
0.1302833,698
0.13195,806
0.1336167,879
0.1352833,839
0.13695,827
0.1386167,828
0.1402833,758
0.14195,694
0.1436167,840
0.1452833,675
0.14695,669
0.1486167,766
0.1502833,800
0.15195,863
0.1536167,970
0.1552833,914
0.15695,735
0.1586167,961
0.1602833,884
0.16195,836
0.1636167,864
0.1652833,736
0.16695,760
0.1686167,783
0.1702833,778
0.17195,773
0.1736167,755
0.1752833,738
0.17695,796
0.1786167,947
0.1802833,901
0.18195,855
0.1836167,845
0.1852833,711
0.18695,872
0.1886167,778
0.1902833,700
0.19195,798
0.1936167,817
0.1952833,776
0.19695,735
0.1986167,799
0.2002833,781
0.20195,764
0.2036167,730
0.2052833,697
0.20695,862
0.2086167,892
0.2102833,1025
0.21195,910
0.2136167,772
0.2152833,835
0.21695,898
0.2186167,841
0.2202833,785
0.22195,879
0.2236167,973
0.2252833,988
0.22695,1092
0.2286167,1033
0.2302833,980
0.23195,940
0.2336167,1137
0.2352833,1132
0.23695,1232
0.2386167,1159
0.2402833,1120
0.24195,1332
0.2436167,1269
0.2452833,1206
0.24695,993
0.2486167,1169
0.2502833,1202
0.25195,1052
0.2536167,867
0.2552833,905
0.25695,1084
0.2586167,1039
0.2602833,995
0.26195,1046
0.2636333,1050
0.2652833,1054
0.26695,1085
0.2686167,1183
0.2702833,892
0.27195,992
0.2736167,1019
0.2752833,1082
0.27695,953
0.2786167,1038
0.2803,825
0.28195,836
0.2836333,1033
0.2852833,977
0.28695,943
0.2886167,959
0.2902833,948
0.29195,938
0.2936167,919
0.2952833,900
0.29695,955
0.2986333,1021
0.3002833,953
0.30195,886
0.3036167,979
0.3052833,1072
0.30695,1079
0.3086167,1086
0.3102833,1262
0.31195,1341
0.3136167,1193
0.3153,1471
0.31695,1480
0.3186167,1164
0.3202833,1217
0.3219667,1187
0.3236167,1281
0.3252833,1239
0.32695,1197
0.3286167,1089
0.3302833,1287
0.33195,1164
0.3336333,1335
0.3352833,1204
0.33695,1215
0.3386333,1206
0.3402833,1344
0.34195,1339
0.3436167,1337
0.3452833,1356
0.34695,1375
0.3486167,1370
0.3503,1210
0.35195,1446
0.3536333,1442
0.3553,1387
0.35695,1161
0.3586167,1369
0.3602833,1335
0.36195,1300
0.3636167,1420
0.3652833,1854
0.36695,2533
0.3686333,3026
0.3703,3934
0.3719667,3590
0.3736333,3099
0.3753,3909
0.37695,3153
0.3786167,3391
0.3802833,3075
0.38195,2437
0.3836333,2350
0.3853,1798
0.3869667,1655
0.3886333,1430
0.3903,1159
0.3919667,894
0.3936333,733
0.3953,608
0.3969667,493
0.3986333,660
0.4003,458
0.4019667,400
0.4036333,504
0.4053,474
0.4069667,513
0.4086333,525
0.4103,544
0.4119667,527
0.4136333,510
0.4153,493
0.4169667,476
0.4186333,604
0.4203,732
0.4219667,863
0.4236333,676
0.4253,618
0.4269667,616
0.4286333,680
0.4303,743
0.4319667,731
0.4336333,759
0.4353,823
0.4369667,972
0.4386333,1036
0.4403,891
0.4419667,856
0.4436333,852
0.4453,948
0.4469667,992
0.4486333,1109
0.4503,1077
0.4519667,889
0.4536333,1108
0.4553,945
0.4569667,1119
0.4586333,1154
0.4603,1035
0.4619667,1192
0.4636333,1240
0.4653,1233
0.4669667,1020
0.4686333,1158
0.4703,1276
0.4719667,1151
0.4736333,1227
0.4753,1081
0.4769667,1303
0.4786333,1256
0.4803,1162
0.4819667,1192
0.4836333,1261
0.4853,1064
0.4869667,1208
0.4886333,999
0.4903,1001
0.4919667,1060
0.4936333,983
0.4953,1038
0.4969667,997
0.4986333,891
0.5003,925
0.5019667,1053
0.5036333,997
0.5053,907
0.5069667,798
0.5086333,1027
0.5103,975
0.5119666,869
0.5136333,903
0.5153,780
0.5169666,847
0.5186333,811
0.5203,814
0.5219667,818
0.5236334,842
0.5253,846
0.5269667,860
0.5286334,874
0.5303,767
0.5319667,926
0.5336334,905
0.5353,884
0.5369667,692
0.5386333,913
0.5403,1018
0.5419667,828
0.5436333,903
0.5453,669
0.5469667,800
0.5486333,931
0.5503,888
0.5519667,901
0.5536333,859
0.5553,934
0.5569667,1006
0.5586333,1039
0.5603,901
0.5619667,984
0.5636333,746
0.5653,920
0.5669667,996
0.5686333,825
0.5703,998
0.5719666,885
0.5736333,837
0.5753,902
0.5769666,954
0.5786333,932
0.5803,911
0.5819666,833
0.5836333,867
0.5853,900
0.5869667,838
0.5886334,786
0.5903,733
0.5919667,756
0.5936334,779
0.5953,856
0.5969667,957
0.5986333,890
0.6003,824
0.6019667,872
0.6036333,920
0.6053,944
0.6069667,900
0.6086333,953
0.6103,931
0.6119667,908
0.6136333,942
0.6153,924
0.6169667,907
0.6186333,923
0.6203,893
0.6219667,954
0.6236333,934
0.6253,913
0.6269667,930
0.6286333,934
0.6303,904
0.6319667,1076
0.6336333,1121
0.6353,1157
0.6369666,1026
0.6386333,928
0.6403,1018
0.6419666,1042
0.6436333,1065
0.6453,914
0.6469667,1026
0.6486334,971
0.6503,1047
0.6519667,1072
0.6536334,1098
0.6553,1046
0.6569667,1186
0.6586334,1189
0.6603,894
0.6619667,1043
0.6636333,1038
0.6653,1026
0.6669667,1116
0.6686333,1114
0.6703,1265
0.6719667,1522
0.6736333,1621
0.6753,2220
0.6769667,2873
0.6786333,3153
0.6803,3782
0.6819667,5059
0.6836333,6748
0.6853,8416
0.6869667,9868
0.6886333,11296
0.6903,13312
0.6919667,15208
0.6936333,18776
0.6953,19276
0.6969666,21072
0.6986333,21956
0.7003,23628
0.7019666,24480
0.7036333,23808
0.7053,24640
0.7069666,25780
0.7086333,25340
0.7103,25264
0.7119667,24968
0.7136334,25436
0.7153,25644
0.7169667,25308
0.7186334,23740
0.7203,23144
0.7219667,22844
0.7236333,20980
0.7253,19480
0.7269667,17560
0.7286333,15184
0.7303,13836
0.7319667,12320
0.7336333,10768
0.7353,9292
0.7369667,8081
0.7386333,6976
0.7403,6369
0.7419667,4968
0.7436333,4778
0.7453,4271
0.7469667,3644
0.7486333,3553
0.7503,3149
0.7519667,2758
0.7536333,2477
0.7553,2483
0.7569667,2109
0.7586333,1862
0.7603,1760
0.7619666,1660
0.7636333,1559
0.7653,1612
0.7669666,1613
0.7686333,1644
0.7703,1678
0.7719667,1878
0.7736334,2001
0.7753,2474
0.7769667,2273
0.7786334,3321
0.7803,4016
0.7819667,5457
0.7836334,6012
0.7853,7761
0.7869667,9976
0.7886333,12716
0.7903,14532
0.7919667,18792
0.7936333,19156
0.7953,23736
0.7969667,25368
0.7986333,30636
0.8003,33200
0.8019667,32720
0.8036333,36176
0.8053,36624
0.8069667,36752
0.8086333,37712
0.8103,38624
0.8119667,38272
0.8136333,37408
0.8153,37072
0.8169667,38416
0.8186333,39616
0.8203,39808
0.8219666,39216
0.8236333,38032
0.8253,38368
0.8269666,36176
0.8286333,34240
0.8303,31328
0.8319666,30252
0.8336333,28192
0.8353,25000
0.8369667,22228
0.8386334,20400
0.8403,19192
0.8419667,16628
0.8436334,13556
0.8453,12444
0.8469667,11256
0.8486333,9924
0.8503,8116
0.8519667,7810
0.8536333,6863
0.8553,6151
0.8569667,5256
0.8586333,4808
0.8603,3960
0.8619667,3734
0.8636333,3263
0.8653,2803
0.8669667,3002
0.8686333,2592
0.8703,2391
0.8719667,2355
0.8736333,2173
0.8753,2010
0.8769667,1766
0.8786333,1990
0.8803,1854
0.8819667,2251
0.8836333,2395
0.8853,2453
0.8869666,2127
0.8886333,2566
0.8903,2549
0.8919666,2402
0.8936333,2633
0.8953,2322
0.8969667,2207
0.8986334,2293
0.9003,1860
0.9019667,2061
0.9036334,2266
0.9053,2108
0.9069667,2011
0.9086334,1843
0.9103,1850
0.9119667,1744
0.9136333,1720
0.9153,1696
0.9169667,1741
0.9186333,1867
0.9203,1468
0.9219667,1835
0.9236333,1870
0.9253,1575
0.9269667,1736
0.9286333,1668
0.9303,1787
0.9319667,1694
0.9336333,1665
0.9353,1649
0.9369667,1698
0.9386333,1746
0.9403,1559
0.9419667,1450
0.9436333,1698
0.9453,1542
0.9469666,1774
0.9486333,1771
0.9503,1894
0.9519666,2328
0.9536333,2398
0.9553,2842
0.9569666,3744
0.9586333,4065
0.9603,4428
0.9619667,6019
0.9636334,7662
0.9653,8892
0.9669667,10792
0.9686334,13248
0.9703,14436
0.9719667,17472
0.9736333,19520
0.9753,22292
0.9769667,24540
0.9786333,29252
0.9803,29808
0.9819667,34528
0.9836333,35376
0.9853,38560
0.9869667,41008
0.9886333,43728
0.9903,45008
0.9919667,45776
0.9936333,46944
0.9953,49056
0.9969667,49168
0.9986333,49888
1.0003,48656
1.001967,50544
1.003633,50608
1.0053,52240
1.006967,51744
1.008633,52960
1.0103,50880
1.011967,52224
1.013633,52304
1.0153,53104
1.016967,52768
1.018633,51072
1.0203,51072
1.021967,48672
1.023633,46608
1.0253,45648
1.026967,42384
1.028633,38208
1.0303,35616
1.031967,34384
1.033633,30636
1.0353,27612
1.036967,25268
1.038633,23992
1.0403,21276
1.041967,20176
1.043633,17892
1.0453,16452
1.046967,15600
1.048633,13356
1.0503,13664
1.051967,12264
1.053633,12532
1.0553,12088
1.056967,12088
1.058633,12160
1.0603,12576
1.061967,12728
1.063633,13320
1.0653,13776
1.066967,13872
1.068633,13964
1.0703,14876
1.071967,15176
1.073633,17140
1.0753,17336
1.076967,16296
1.078633,17012
1.0803,17444
1.081967,18004
1.083633,17840
1.0853,17908
1.086967,16708
1.088633,18620
1.0903,17832
1.091967,17948
1.093633,18964
1.0953,19168
1.096967,18704
1.098633,18052
1.1003,17792
1.101967,17956
1.103633,18120
1.1053,18124
1.106967,18124
1.108633,17796
1.1103,17064
1.111967,16120
1.113633,15760
1.1153,14876
1.116967,14524
1.118633,13652
1.1203,13236
1.121967,12988
1.123633,11188
1.1253,11816
1.126967,10664
1.128633,9744
1.1303,8780
1.131967,9040
1.133633,7557
1.1353,7350
1.136967,6862
1.138633,6132
1.1403,5796
1.141967,5270
1.143633,4715
1.1453,4947
1.146967,4663
1.148633,4046
1.1503,4216
1.151967,3788
1.153633,3722
1.1553,3324
1.156967,3285
1.158633,3049
1.1603,2649
1.161967,2700
1.163633,2880
1.1653,2482
1.166967,2204
1.168633,2495
1.1703,2199
1.171967,2273
1.173633,2364
1.1753,2047
1.176967,1707
1.178633,1716
1.1803,2005
1.181967,2048
1.183633,2011
1.1853,1796
1.186967,2160
1.188633,2159
1.1903,2138
1.191967,2197
1.193633,2036
1.1953,2248
1.196967,2342
1.198633,2810
