"SampleName","A2Rd2_02-78"
"Target Mass 1",
"Column Name","IA-3 (3um, 4.6X100)"
"Channel","QDa 1: SIR Ch2"
0.00195,426
0.003616667,552
0.005283333,813
0.00695,706
0.008616666,791
0.01028333,801
0.01195,811
0.01361667,907
0.01528333,858
0.01695,809
0.01861667,783
0.02028333,770
0.02195,758
0.02361667,769
0.02528333,781
0.02695,1075
0.02861667,1059
0.03028333,996
0.03195,1070
0.03361667,823
0.03528333,913
0.03695,956
0.03861667,978
0.04028333,898
0.04195,1024
0.04361667,977
0.04528333,1039
0.04695,1014
0.04861667,981
0.05028334,860
0.05195,898
0.05361667,840
0.05528333,851
0.05695,952
0.05861667,981
0.06028333,1040
0.06195,902
0.06361666,1111
0.06528334,809
0.06695,1038
0.06861667,933
0.07028333,925
0.07195,856
0.07361667,944
0.07528333,931
0.07695,918
0.07861666,908
0.08028334,891
0.08195,801
0.08361667,830
0.08528333,859
0.08695,672
0.08861667,959
0.09028333,891
0.09195,964
0.09361666,852
0.09528334,815
0.09695,1003
0.09861667,1023
0.1002833,1118
0.10195,771
0.1036167,868
0.1052833,990
0.10695,818
0.1086167,935
0.1102833,977
0.11195,978
0.1136167,930
0.1152833,778
0.11695,925
0.1186167,771
0.1202833,1049
0.12195,1089
0.1236167,841
0.1252833,826
0.12695,829
0.1286167,708
0.1302833,820
0.13195,788
0.1336167,991
0.1352833,931
0.13695,871
0.1386167,934
0.1402833,875
0.14195,816
0.1436167,911
0.1452833,936
0.14695,958
0.1486167,820
0.1502833,900
0.15195,667
0.1536167,924
0.1552833,903
0.15695,681
0.1586167,936
0.1602833,1005
0.16195,790
0.1636167,1084
0.1652833,871
0.16695,988
0.1686167,895
0.1702833,879
0.17195,863
0.1736167,735
0.1752833,819
0.17695,766
0.1786167,839
0.1802833,771
0.18195,704
0.1836167,756
0.1852833,734
0.18695,712
0.1886167,757
0.1902833,721
0.19195,744
0.1936167,767
0.1952833,742
0.19695,718
0.1986167,731
0.2002833,744
0.20195,779
0.2036167,814
0.2052833,851
0.20695,888
0.2086167,1064
0.2102833,1072
0.21195,823
0.2136167,957
0.2152833,1129
0.21695,1021
0.2186167,898
0.2202833,768
0.22195,1056
0.2236167,997
0.2252833,912
0.22695,994
0.2286167,917
0.2302833,1021
0.23195,1095
0.2336167,1115
0.2352833,1049
0.23695,895
0.2386167,1061
0.2402833,1232
0.24195,1210
0.2436167,1187
0.2452833,1223
0.24695,952
0.2486167,1220
0.2502833,1169
0.25195,1068
0.2536167,1101
0.2552833,988
0.25695,1047
0.2586167,950
0.2602833,999
0.26195,781
0.2636167,950
0.2652833,937
0.26695,924
0.2686167,1068
0.2703,1080
0.27195,1134
0.2736167,980
0.2752833,953
0.27695,1072
0.2786167,989
0.2803,1066
0.28195,1039
0.2836333,1132
0.2852833,850
0.28695,1041
0.2886333,996
0.2902833,904
0.29195,997
0.2936167,921
0.2952833,973
0.29695,1108
0.2986333,1098
0.3002833,1052
0.30195,1023
0.3036167,979
0.3052833,1111
0.30695,1064
0.3086167,1017
0.3102833,1077
0.31195,1204
0.3136167,1321
0.3153,1355
0.31695,1240
0.3186167,1258
0.3202833,1275
0.32195,1392
0.3236167,1502
0.3252833,914
0.32695,1136
0.3286167,1190
0.3303,1290
0.33195,1086
0.3336333,1031
0.3352833,1335
0.33695,1306
0.3386333,1067
0.3402833,1145
0.34195,1278
0.3436333,1242
0.3452833,1237
0.3469667,1326
0.3486167,1121
0.3503,1186
0.35195,1345
0.3536167,1218
0.3553,1092
0.35695,1410
0.3586167,1299
0.3603,1433
0.36195,1107
0.3636333,1190
0.3652833,1809
0.3669667,2550
0.3686333,3102
0.3702833,2998
0.3719667,2633
0.3736167,2676
0.3753,2683
0.3769667,2235
0.3786333,2100
0.3803,2821
0.38195,2518
0.3836333,2498
0.3853,2001
0.3869667,1648
0.3886333,1195
0.3903,1350
0.3919667,969
0.3936333,677
0.3953,539
0.3969667,432
0.3986167,606
0.4003,678
0.40195,477
0.4036333,558
0.4053,508
0.4069667,574
0.4086333,526
0.4103,535
0.4119667,490
0.4136333,632
0.4152833,693
0.4169667,677
0.4186167,660
0.4203,730
0.4219667,591
0.4236333,835
0.4253,820
0.4269667,851
0.4286333,511
0.4303,602
0.4319667,806
0.4336333,911
0.4353,834
0.4369667,758
0.4386333,958
0.4403,1031
0.4419667,917
0.4436333,1111
0.4453,1116
0.4469667,1026
0.4486333,936
0.4503,1200
0.4519667,1452
0.4536333,1304
0.4553,1323
0.4569667,1107
0.4586333,1291
0.4603,1285
0.4619667,1280
0.4636333,1296
0.4653,1325
0.4669667,1355
0.4686333,1178
0.4703,1351
0.4719667,1364
0.4736333,1369
0.4753,1418
0.4769667,1449
0.4786333,1542
0.4803,1274
0.4819667,1172
0.4836333,1271
0.4853,1296
0.4869667,1074
0.4886333,1208
0.4903,1285
0.4919667,1091
0.4936333,1187
0.4953,1258
0.4969667,1153
0.4986333,1278
0.5003,1150
0.5019667,1068
0.5036333,1149
0.5053,951
0.5069667,1070
0.5086333,1010
0.5103,916
0.5119666,829
0.5136333,897
0.5153,917
0.5169666,937
0.5186333,965
0.5203,938
0.5219667,910
0.5236334,872
0.5253,767
0.5269667,915
0.5286334,946
0.5303,978
0.5319667,990
0.5336334,1019
0.5353,1048
0.5369667,1087
0.5386333,1071
0.5403,901
0.5419667,999
0.5436333,1056
0.5453,832
0.5469667,1048
0.5486333,1125
0.5503,979
0.5519667,1165
0.5536333,922
0.5553,905
0.5569667,985
0.5586333,843
0.5603,964
0.5619667,949
0.5636333,933
0.5653,819
0.5669667,884
0.5686333,948
0.5703,926
0.5719666,1009
0.5736333,999
0.5753,987
0.5769666,1016
0.5786333,1045
0.5803,1005
0.5819666,965
0.5836333,952
0.5853,760
0.5869667,1024
0.5886334,914
0.5903,853
0.5919667,1013
0.5936334,872
0.5953,777
0.5969667,846
0.5986333,840
0.6003,890
0.6019667,939
0.6036333,953
0.6053,964
0.6069667,907
0.6086333,935
0.6103,963
0.6119667,865
0.6136333,895
0.6153,925
0.6169667,931
0.6186333,937
0.6203,961
0.6219667,933
0.6236333,906
0.6253,865
0.6269667,947
0.6286333,1101
0.6303,1037
0.6319667,922
0.6336333,776
0.6353,1022
0.6369666,800
0.6386333,818
0.6403,837
0.6419666,861
0.6436333,922
0.6453,867
0.6469667,812
0.6486334,803
0.6503,967
0.6519667,993
0.6536334,768
0.6553,931
0.6569667,795
0.6586334,867
0.6603,956
0.6619667,1059
0.6636333,1071
0.6653,1067
0.6669667,903
0.6686333,920
0.6703,936
0.6719667,1005
0.6736333,1024
0.6753,1078
0.6769667,1132
0.6786333,1128
0.6803,1793
0.6819667,1733
0.6836333,2243
0.6853,2335
0.6869667,2800
0.6886333,3351
0.6903,3329
0.6919667,3378
0.6936333,3426
0.6953,3737
0.6969666,4048
0.6986333,4239
0.7003,4416
0.7019666,4367
0.7036333,4299
0.7053,4231
0.7069666,4501
0.7086333,4585
0.7103,3951
0.7119667,4310
0.7136334,4067
0.7153,3768
0.7169667,4015
0.7186334,3770
0.7203,3466
0.7219667,3995
0.7236333,3893
0.7253,3627
0.7269667,3907
0.7286333,3179
0.7303,3196
0.7319667,3333
0.7336333,2945
0.7353,2712
0.7369667,2296
0.7386333,2196
0.7403,2454
0.7419667,1980
0.7436333,1495
0.7453,1398
0.7469667,1652
0.7486333,1563
0.7503,1475
0.7519667,1285
0.7536333,1354
0.7553,1255
0.7569667,1340
0.7586333,1173
0.7603,978
0.7619666,1262
0.7636333,1052
0.7653,1026
0.7669666,1222
0.7686333,1314
0.7703,1241
0.7719667,1008
0.7736334,1041
0.7753,981
0.7769667,1128
0.7786334,1379
0.7803,1660
0.7819667,2138
0.7836334,2459
0.7853,3072
0.7869667,3445
0.7886333,4142
0.7903,4047
0.7919667,5088
0.7936333,5144
0.7953,6023
0.7969667,6833
0.7986333,7617
0.8003,7915
0.8019667,7900
0.8036333,8320
0.8053,8532
0.8069667,8284
0.8086333,7328
0.8103,7862
0.8119667,7287
0.8136333,7254
0.8153,7135
0.8169667,6932
0.8186333,6615
0.8203,6209
0.8219666,5990
0.8236333,6522
0.8253,6494
0.8269666,6453
0.8286333,6136
0.8303,5839
0.8319666,5933
0.8336333,5779
0.8353,5840
0.8369667,5310
0.8386334,6001
0.8403,4795
0.8419667,4634
0.8436334,4312
0.8453,4027
0.8469667,3470
0.8486333,3116
0.8503,3229
0.8519667,2996
0.8536333,2767
0.8553,2411
0.8569667,2271
0.8586333,2056
0.8603,2025
0.8619667,1803
0.8636333,1556
0.8653,1719
0.8669667,1564
0.8686333,1529
0.8703,1374
0.8719667,1168
0.8736333,1146
0.8753,1170
0.8769667,1194
0.8786333,1193
0.8803,1193
0.8819667,1480
0.8836333,1613
0.8853,1635
0.8869666,1615
0.8886333,1594
0.8903,1545
0.8919666,1567
0.8936333,1436
0.8953,1396
0.8969667,1355
0.8986334,1571
0.9003,1591
0.9019667,1279
0.9036334,1508
0.9053,1464
0.9069667,1187
0.9086334,1344
0.9103,1514
0.9119667,1320
0.9136333,1469
0.9153,1428
0.9169667,1185
0.9186333,1209
0.9203,1051
0.9219667,1346
0.9236333,1477
0.9253,1338
0.9269667,1064
0.9286333,1321
0.9303,1278
0.9319667,1064
0.9336333,1301
0.9353,1260
0.9369667,1372
0.9386333,1387
0.9403,1381
0.9419667,1391
0.9436333,1102
0.9453,1055
0.9469666,1221
0.9486333,1218
0.9503,1208
0.9519666,1262
0.9536333,1315
0.9553,1535
0.9569666,1473
0.9586333,1300
0.9603,1716
0.9619667,1915
0.9636334,1985
0.9653,2378
0.9669667,3060
0.9686334,3190
0.9703,3392
0.9719667,3487
0.9736333,3894
0.9753,4559
0.9769667,4866
0.9786333,5038
0.9803,5131
0.9819667,5799
0.9836333,6370
0.9853,5900
0.9869667,6956
0.9886333,7010
0.9903,6940
0.9919667,7029
0.9936333,6833
0.9953,6597
0.9969667,5847
0.9986333,6383
1.0003,6208
1.001967,5938
1.003633,6439
1.0053,5653
1.006967,5683
1.008633,5916
1.0103,5802
1.011967,6128
1.013633,6021
1.0153,5901
1.016967,5830
1.018633,5891
1.0203,5727
1.021967,5711
1.023633,5695
1.0253,5627
1.026967,5669
1.028633,5710
1.0303,5436
1.031967,5312
1.033633,5252
1.0353,4930
1.036967,4780
1.038633,4484
1.0403,4487
1.041967,3938
1.043633,3979
1.0453,3527
1.046967,3746
1.048633,3522
1.0503,3080
1.051967,3565
1.053633,3012
1.0553,2576
1.056967,3257
1.058633,3130
1.0603,3198
1.061967,3212
1.063633,3250
1.0653,3288
1.066967,3076
1.068633,3412
1.0703,3475
1.071967,3184
1.073633,3623
1.0753,3668
1.076967,3692
1.078633,3719
1.0803,3746
1.081967,3749
1.083633,3492
1.0853,3290
1.086967,3355
1.088633,3391
1.0903,3428
1.091967,3679
1.093633,3697
1.0953,3058
1.096967,3174
1.098633,3320
1.1003,3193
1.101967,3395
1.103633,2874
1.1053,3159
1.106967,2950
1.108633,2921
1.1103,2860
1.111967,2915
1.113633,2970
1.1153,2797
1.116967,2784
1.118633,2771
1.1203,2864
1.121967,2958
1.123633,2488
1.1253,2761
1.126967,2564
1.128633,2473
1.1303,2370
1.131967,2242
1.133633,2102
1.1353,2034
1.136967,2009
1.138633,2030
1.1403,1793
1.141967,1843
1.143633,2055
1.1453,1704
1.146967,1653
1.148633,1509
1.1503,1565
1.151967,1436
1.153633,1247
1.1553,1647
1.156967,1136
1.158633,1249
1.1603,1290
1.161967,1204
1.163633,1327
1.1653,1183
1.166967,1068
1.168633,1415
1.1703,1292
1.171967,981
1.173633,840
1.1753,1275
1.176967,1274
1.178633,897
1.1803,1089
1.181967,1225
1.183633,1013
1.1853,1289
1.186967,923
1.188633,1049
1.1903,1092
1.191967,954
1.193633,979
1.1953,1249
1.196967,1256
1.198633,1119
