"SampleName","A2Rd2_02-33"
"Target Mass 1",
"Column Name","IA-3 (3um, 4.6X100)"
"Channel","QDa 1: SIR Ch1"
0.00195,446
0.003616667,681
0.005283333,667
0.00695,531
0.008616666,539
0.01028333,614
0.01195,619
0.01361667,550
0.01528333,534
0.01695,518
0.01861667,552
0.02028333,586
0.02195,660
0.02361667,401
0.02528333,690
0.02695,599
0.02861667,729
0.03028333,624
0.03195,669
0.03361667,521
0.03528333,582
0.03695,554
0.03861667,597
0.04028333,567
0.04195,650
0.04361667,474
0.04528333,681
0.04695,471
0.04861667,529
0.05028334,567
0.05195,556
0.05361667,640
0.05528333,671
0.05695,602
0.05861667,570
0.06028333,555
0.06195,525
0.06361666,602
0.06528334,443
0.06695,588
0.06861667,634
0.07028333,600
0.07195,637
0.07361667,529
0.07528333,483
0.07695,520
0.07861666,498
0.08028334,476
0.08195,603
0.08361667,636
0.08528333,599
0.08695,565
0.08861667,531
0.09028333,561
0.09195,559
0.09361666,488
0.09528334,523
0.09695,558
0.09861667,581
0.1002833,604
0.10195,562
0.1036167,626
0.1052833,630
0.10695,611
0.1086167,642
0.1102833,530
0.11195,457
0.1136167,606
0.1152833,518
0.11695,599
0.1186167,443
0.1202833,566
0.12195,589
0.1236167,534
0.1252833,451
0.12695,430
0.1286167,502
0.1302833,609
0.13195,536
0.1336167,462
0.1352833,690
0.13695,726
0.1386167,663
0.1402833,538
0.14195,634
0.1436167,574
0.1452833,522
0.14695,655
0.1486167,479
0.1502833,490
0.15195,545
0.1536167,482
0.1552833,521
0.15695,453
0.1586167,567
0.1602833,551
0.16195,583
0.1636167,546
0.1652833,366
0.16695,526
0.1686167,473
0.1702833,655
0.17195,538
0.1736167,422
0.1752833,683
0.17695,464
0.1786167,687
0.1802833,469
0.18195,589
0.1836167,441
0.1852833,514
0.18695,418
0.1886167,523
0.1902833,574
0.19195,479
0.1936167,582
0.1952833,634
0.19695,512
0.1986167,515
0.2002833,474
0.20195,542
0.2036167,512
0.2052833,499
0.20695,509
0.2086167,518
0.2102833,454
0.21195,489
0.2136167,521
0.2152833,535
0.21695,564
0.2186167,435
0.2202833,497
0.22195,522
0.2236167,578
0.2252833,591
0.22695,591
0.2286167,527
0.2302833,590
0.23195,553
0.2336167,524
0.2352833,521
0.23695,519
0.2386167,418
0.2402833,552
0.24195,528
0.2436167,539
0.2452833,555
0.24695,448
0.2486167,452
0.2502833,445
0.25195,417
0.2536167,390
0.2552833,397
0.25695,404
0.2586167,449
0.2602833,494
0.26195,519
0.2636333,544
0.2652833,573
0.26695,421
0.2686167,618
0.2702833,537
0.27195,532
0.2736167,479
0.2752833,562
0.27695,537
0.2786167,529
0.2803,440
0.28195,544
0.2836167,543
0.2852833,563
0.28695,638
0.2886167,648
0.2902833,572
0.29195,554
0.2936167,679
0.2952833,529
0.29695,552
0.2986333,559
0.3002833,598
0.3019667,678
0.3036167,658
0.3052833,560
0.30695,421
0.3086167,535
0.3102833,574
0.31195,592
0.3136167,397
0.3153,671
0.31695,620
0.3186167,776
0.3202833,593
0.3219667,526
0.3236167,643
0.3252833,651
0.32695,530
0.3286167,487
0.3303,711
0.33195,638
0.3336333,436
0.3353,596
0.33695,555
0.3386333,601
0.3402833,568
0.34195,646
0.3436167,497
0.3452833,612
0.3469667,495
0.3486167,498
0.3503,510
0.3519667,522
0.3536167,549
0.3553,576
0.35695,644
0.3586167,701
0.3602833,665
0.3619667,753
0.3636333,728
0.3653,1501
0.36695,2020
0.3686333,2658
0.3703,3882
0.3719667,4465
0.3736333,4437
0.3753,4286
0.37695,4954
0.3786333,5178
0.3803,5294
0.3819667,5409
0.3836167,5679
0.3853,4699
0.38695,4595
0.3886333,4228
0.3902833,2971
0.3919667,2366
0.3936167,2067
0.3953,1573
0.3969667,1322
0.3986333,1474
0.4002833,909
0.4019667,1025
0.4036333,842
0.4053,920
0.40695,904
0.4086333,1224
0.4102833,1148
0.4119667,1049
0.4136333,1105
0.4153,1051
0.4169667,1170
0.4186333,861
0.4203,1112
0.4219667,1270
0.4236333,1293
0.4253,1021
0.4269667,1099
0.4286333,1276
0.4303,1118
0.4319667,1296
0.4336333,1845
0.4353,2563
0.4369667,4101
0.4386333,5828
0.4403,9384
0.4419667,15892
0.4436333,22884
0.4453,33136
0.4469667,45552
0.4486333,59984
0.4503,75808
0.4519667,89904
0.4536333,104192
0.4553,115952
0.4569667,126960
0.4586333,139072
0.4603,141696
0.4619667,148864
0.4636333,154496
0.4653,158464
0.4669667,159360
0.4686333,168192
0.4703,173824
0.4719667,187392
0.4736333,195072
0.4753,205184
0.4769667,205696
0.4786333,207616
0.4803,201472
0.4819667,189632
0.4836333,174912
0.4853,160000
0.4869667,141952
0.4886333,120272
0.4903,102848
0.4919667,87856
0.4936333,69008
0.4953,57312
0.4969667,47728
0.4986333,36704
0.5003,28972
0.5019667,23228
0.5036333,19536
0.5053,15476
0.5069667,12312
0.5086333,10256
0.5103,9048
0.5119666,7526
0.5136333,6162
0.5153,5519
0.5169666,5013
0.5186333,4424
0.5203,4468
0.5219667,3999
0.5236334,3783
0.5253,3817
0.5269667,3491
0.5286334,3164
0.5303,3007
0.5319667,2678
0.5336334,3078
0.5353,2875
0.5369667,2354
0.5386333,2396
0.5403,2723
0.5419667,2639
0.5436333,2273
0.5453,2191
0.5469667,1991
0.5486333,2116
0.5503,1968
0.5519667,2047
0.5536333,1641
0.5553,1625
0.5569667,1805
0.5586333,1796
0.5603,1497
0.5619667,1464
0.5636333,1343
0.5653,1556
0.5669667,1474
0.5686333,1454
0.5703,1266
0.5719666,1346
0.5736333,1324
0.5753,1267
0.5769666,1330
0.5786333,1187
0.5803,1409
0.5819666,970
0.5836333,1263
0.5853,1238
0.5869667,1289
0.5886334,1166
0.5903,1306
0.5919667,1230
0.5936334,1346
0.5953,1284
0.5969667,1291
0.5986333,1299
0.6003,1285
0.6019667,1271
0.6036333,1286
0.6053,1113
0.6069667,1309
0.6086333,1250
0.6103,1238
0.6119667,1195
0.6136333,1170
0.6153,1197
0.6169667,1030
0.6186333,1036
0.6203,1042
0.6219667,1050
0.6236333,1058
0.6253,1057
0.6269667,1056
0.6286333,1089
0.6303,1123
0.6319667,1102
0.6336333,1077
0.6353,924
0.6369666,1064
0.6386333,972
0.6403,1072
0.6419666,1050
0.6436333,1002
0.6453,1057
0.6469667,990
0.6486334,922
0.6503,755
0.6519667,809
0.6536334,869
0.6553,759
0.6569667,801
0.6586334,842
0.6603,839
0.6619667,836
0.6636333,786
0.6653,737
0.6669667,997
0.6686333,1025
0.6703,781
0.6719667,610
0.6736333,794
0.6753,795
0.6769667,920
0.6786333,817
0.6803,778
0.6819667,803
0.6836333,780
0.6853,804
0.6869667,796
0.6886333,788
0.6903,952
0.6919667,967
0.6936333,913
0.6953,958
0.6969666,718
0.6986333,825
0.7003,877
0.7019666,770
0.7036333,788
0.7053,872
0.7069666,849
0.7086333,826
0.7103,706
0.7119667,748
0.7136334,924
0.7153,978
0.7169667,778
0.7186334,885
0.7203,821
0.7219667,716
0.7236333,785
0.7253,750
0.7269667,746
0.7286333,729
0.7303,713
0.7319667,890
0.7336333,891
0.7353,906
0.7369667,696
0.7386333,844
0.7403,779
0.7419667,972
0.7436333,938
0.7453,853
0.7469667,787
0.7486333,989
0.7503,775
0.7519667,686
0.7536333,688
0.7553,856
0.7569667,958
0.7586333,827
0.7603,809
0.7619666,723
0.7636333,699
0.7653,675
0.7669666,792
0.7686333,794
0.7703,710
0.7719667,712
0.7736334,714
0.7753,633
0.7769667,836
0.7786334,839
0.7803,784
0.7819667,806
0.7836334,874
0.7853,683
0.7869667,872
0.7886333,799
0.7903,943
0.7919667,911
0.7936333,664
0.7953,1086
0.7969667,838
0.7986333,912
0.8003,940
0.8019667,793
0.8036333,781
0.8053,740
0.8069667,804
0.8086333,937
0.8103,925
0.8119667,708
0.8136333,929
0.8153,924
0.8169667,866
0.8186333,824
0.8203,844
0.8219666,864
0.8236333,819
0.8253,857
0.8269666,870
0.8286333,824
0.8303,778
0.8319666,1018
0.8336333,1005
0.8353,1011
0.8369667,859
0.8386334,933
0.8403,1030
0.8419667,1132
0.8436334,1023
0.8453,1112
0.8469667,1010
0.8486333,991
0.8503,899
0.8519667,857
0.8536333,891
0.8553,879
0.8569667,868
0.8586333,854
0.8603,901
0.8619667,876
0.8636333,851
0.8653,896
0.8669667,883
0.8686333,845
0.8703,811
0.8719667,764
0.8736333,798
0.8753,944
0.8769667,990
0.8786333,1472
0.8803,1726
0.8819667,2279
0.8836333,2482
0.8853,3244
0.8869666,3369
0.8886333,3585
0.8903,3766
0.8919666,3916
0.8936333,3725
0.8953,3533
0.8969667,3802
0.8986334,3700
0.9003,3867
0.9019667,3883
0.9036334,3883
0.9053,3952
0.9069667,3784
0.9086334,4026
0.9103,4017
0.9119667,3885
0.9136333,4122
0.9153,4093
0.9169667,3671
0.9186333,3945
0.9203,3992
0.9219667,4080
0.9236333,3975
0.9253,3526
0.9269667,3881
0.9286333,3692
0.9303,3953
0.9319667,3691
0.9336333,3920
0.9353,3505
0.9369667,3375
0.9386333,3215
0.9403,3662
0.9419667,3028
0.9436333,3200
0.9453,3150
0.9469666,3030
0.9486333,2910
0.9503,2494
0.9519666,2550
0.9536333,2281
0.9553,2375
0.9569666,2189
0.9586333,2394
0.9603,1989
0.9619667,2221
0.9636334,2053
0.9653,1873
0.9669667,1661
0.9686334,1401
0.9703,1750
0.9719667,1420
0.9736333,1286
0.9753,1225
0.9769667,1331
0.9786333,1161
0.9803,1043
0.9819667,1144
0.9836333,1022
0.9853,824
0.9869667,657
0.9886333,656
0.9903,674
0.9919667,654
0.9936333,633
0.9953,752
0.9969667,752
0.9986333,822
1.0003,769
1.001967,653
1.003633,632
1.0053,691
1.006967,661
1.008633,741
1.0103,706
1.011967,556
1.013633,655
1.0153,676
1.016967,698
1.018633,776
1.0203,750
1.021967,669
1.023633,622
1.0253,635
1.026967,648
1.028633,683
1.0303,658
1.031967,632
1.033633,666
1.0353,671
1.036967,676
1.038633,690
1.0403,677
1.041967,664
1.043633,635
1.0453,656
1.046967,653
1.048633,689
1.0503,678
1.051967,666
1.053633,634
1.0553,634
1.056967,595
1.058633,555
1.0603,599
1.061967,664
1.063633,702
1.0653,645
1.066967,589
1.068633,737
1.0703,783
1.071967,749
1.073633,804
1.0753,666
1.076967,624
1.078633,694
1.0803,676
1.081967,699
1.083633,704
1.0853,708
1.086967,621
1.088633,674
1.0903,764
1.091967,799
1.093633,733
1.0953,714
1.096967,731
1.098633,744
1.1003,701
1.101967,843
1.103633,819
1.1053,709
1.106967,642
1.108633,727
1.1103,605
1.111967,603
1.113633,600
1.1153,717
1.116967,699
1.118633,558
1.1203,725
1.121967,794
1.123633,681
1.1253,617
1.126967,655
1.128633,638
1.1303,642
1.131967,576
1.133633,598
1.1353,620
1.136967,659
1.138633,698
1.1403,851
1.141967,836
1.143633,834
1.1453,613
1.146967,750
1.148633,735
1.1503,621
1.151967,732
1.153633,695
1.1553,658
1.156967,640
1.158633,712
1.1603,713
1.161967,714
1.163633,654
1.1653,764
1.166967,812
1.168633,906
1.1703,796
1.171967,832
1.173633,582
1.1753,823
1.176967,799
1.178633,942
1.1803,746
1.181967,765
1.183633,793
1.1853,796
1.186967,800
1.188633,826
1.1903,852
1.191967,921
1.193633,962
1.1953,707
1.196967,953
1.198633,818
