"SampleName","A2Rd2_02-34"
"Target Mass 1",
"Column Name","IA-3 (3um, 4.6X100)"
"Channel","QDa 1: SIR Ch1"
0.00195,513
0.003616667,535
0.005283333,440
0.00695,452
0.008616666,463
0.01028333,580
0.01195,582
0.01361667,594
0.01528333,442
0.01695,679
0.01861667,543
0.02028333,652
0.02195,605
0.02361667,589
0.02528333,500
0.02695,595
0.02861667,611
0.03028333,523
0.03195,480
0.03361667,572
0.03528333,550
0.03695,623
0.03861667,575
0.04028333,555
0.04195,536
0.04361667,484
0.04528333,467
0.04695,450
0.04861667,494
0.05028334,483
0.05195,472
0.05361667,451
0.05528333,626
0.05695,595
0.05861667,614
0.06028333,495
0.06195,630
0.06361666,506
0.06528334,632
0.06695,655
0.06861667,553
0.07028333,612
0.07195,500
0.07361667,376
0.07528333,669
0.07695,517
0.07861666,463
0.08028334,542
0.08195,484
0.08361667,618
0.08528333,610
0.08695,583
0.08861667,592
0.09028333,586
0.09195,500
0.09361666,688
0.09528334,627
0.09695,583
0.09861667,556
0.1002833,576
0.10195,597
0.1036167,424
0.1052833,403
0.10695,435
0.1086167,536
0.1102833,531
0.11195,556
0.1136167,432
0.1152833,535
0.11695,503
0.1186167,521
0.1202833,500
0.12195,519
0.1236167,545
0.1252833,467
0.12695,471
0.1286167,481
0.1302833,504
0.13195,527
0.1336167,518
0.1352833,508
0.13695,502
0.1386167,495
0.1402833,542
0.14195,397
0.1436167,487
0.1452833,424
0.14695,427
0.1486167,450
0.1502833,474
0.15195,549
0.1536167,550
0.1552833,451
0.15695,492
0.1586167,534
0.1602833,555
0.16195,575
0.1636167,466
0.1652833,508
0.16695,611
0.1686167,490
0.1702833,498
0.17195,510
0.1736167,479
0.1752833,448
0.17695,546
0.1786167,554
0.1802833,562
0.18195,509
0.1836167,452
0.1852833,531
0.18695,470
0.1886167,578
0.1902833,487
0.19195,395
0.1936167,580
0.1952833,654
0.19695,541
0.1986167,417
0.2002833,485
0.20195,540
0.2036167,482
0.2052833,753
0.20695,723
0.2086167,504
0.2102833,467
0.21195,636
0.2136167,471
0.2152833,613
0.21695,476
0.2186167,516
0.2202833,480
0.22195,443
0.2236167,496
0.2252833,549
0.22695,538
0.2286167,528
0.2302833,518
0.23195,549
0.2336167,579
0.2352833,564
0.23695,464
0.2386167,465
0.2402833,584
0.24195,613
0.2436167,648
0.2452833,447
0.24695,550
0.2486167,501
0.2502833,494
0.25195,480
0.2536167,454
0.2552833,511
0.25695,432
0.2586167,533
0.2602833,569
0.26195,561
0.2636333,541
0.2652833,524
0.26695,471
0.2686167,395
0.2702833,450
0.27195,506
0.2736167,514
0.2752833,513
0.27695,512
0.2786167,534
0.2803,532
0.28195,501
0.2836167,514
0.2852833,541
0.28695,469
0.2886167,495
0.2902833,513
0.29195,532
0.2936167,551
0.2952833,544
0.2969667,562
0.2986333,632
0.3002833,594
0.30195,556
0.3036167,623
0.3052833,617
0.30695,615
0.3086167,612
0.3102833,530
0.31195,594
0.3136167,576
0.3153,559
0.31695,524
0.3186167,542
0.3202833,561
0.3219667,430
0.3236167,518
0.3252833,531
0.32695,646
0.3286167,591
0.3303,536
0.33195,612
0.3336333,507
0.3353,508
0.33695,497
0.3386333,511
0.3402833,436
0.34195,647
0.3436333,636
0.3452833,496
0.3469667,508
0.3486333,496
0.3503,585
0.3519667,541
0.3536333,498
0.3553,592
0.35695,609
0.3586333,519
0.3602833,442
0.3619667,782
0.3636333,762
0.3653,1118
0.3669667,1579
0.3686333,2127
0.3703,3232
0.3719667,3754
0.3736333,4215
0.3753,4560
0.37695,4727
0.3786333,5249
0.3803,6295
0.3819667,6017
0.3836333,5495
0.3853,4869
0.3869667,4211
0.3886333,4130
0.3903,3137
0.3919667,2533
0.3936167,2221
0.3953,1728
0.3969667,1437
0.3986333,1356
0.4003,1293
0.4019667,1136
0.4036333,1327
0.4053,1249
0.4069667,1348
0.4086333,1048
0.4103,1131
0.4119667,1274
0.4136333,1489
0.4153,1353
0.4169667,1334
0.4186333,1363
0.4203,1355
0.4219667,1347
0.4236333,1421
0.4253,1622
0.4269667,1619
0.4286333,1114
0.4303,1483
0.4319667,1431
0.4336333,1307
0.4353,2143
0.4369667,2434
0.4386333,3592
0.4403,5803
0.4419667,8760
0.4436333,13760
0.4453,21092
0.4469667,30320
0.4486333,42800
0.4503,54720
0.4519667,67856
0.4536333,84880
0.4553,98176
0.4569667,111312
0.4586333,122016
0.4603,128112
0.4619667,136960
0.4636333,137792
0.4653,145088
0.4669667,147200
0.4686333,153152
0.4703,161664
0.4719667,165504
0.4736333,178048
0.4753,182016
0.4769667,188992
0.4786333,192832
0.4803,182848
0.4819667,176320
0.4836333,163904
0.4853,144640
0.4869667,128448
0.4886333,109456
0.4903,92944
0.4919667,77168
0.4936333,65120
0.4953,50464
0.4969667,41232
0.4986333,32652
0.5003,25908
0.5019667,20652
0.5036333,16032
0.5053,13268
0.5069667,10992
0.5086333,8872
0.5103,7654
0.5119666,6110
0.5136333,5825
0.5153,5055
0.5169666,4692
0.5186333,4111
0.5203,3647
0.5219667,3473
0.5236334,3685
0.5253,3303
0.5269667,3049
0.5286334,2985
0.5303,3438
0.5319667,2841
0.5336334,2718
0.5353,2646
0.5369667,2555
0.5386333,2464
0.5403,2251
0.5419667,2324
0.5436333,2070
0.5453,1988
0.5469667,2038
0.5486333,1989
0.5503,2070
0.5519667,1921
0.5536333,1845
0.5553,1812
0.5569667,1699
0.5586333,1541
0.5603,1702
0.5619667,1665
0.5636333,1780
0.5653,1573
0.5669667,1534
0.5686333,1533
0.5703,1547
0.5719666,1334
0.5736333,1407
0.5753,1198
0.5769666,1242
0.5786333,1286
0.5803,1357
0.5819666,1479
0.5836333,1050
0.5853,1206
0.5869667,1329
0.5886334,1338
0.5903,1348
0.5919667,1349
0.5936334,1257
0.5953,1279
0.5969667,1302
0.5986333,1389
0.6003,1406
0.6019667,1315
0.6036333,1157
0.6053,1469
0.6069667,1432
0.6086333,1496
0.6103,1157
0.6119667,1304
0.6136333,1373
0.6153,1546
0.6169667,1523
0.6186333,1312
0.6203,1216
0.6219667,1111
0.6236333,1144
0.6253,1178
0.6269667,1192
0.6286333,1207
0.6303,1126
0.6319667,1045
0.6336333,1010
0.6353,976
0.6369666,1219
0.6386333,1343
0.6403,1199
0.6419666,1133
0.6436333,1127
0.6453,1099
0.6469667,1105
0.6486334,836
0.6503,976
0.6519667,1007
0.6536334,788
0.6553,840
0.6569667,978
0.6586334,970
0.6603,852
0.6619667,916
0.6636333,887
0.6653,858
0.6669667,901
0.6686333,979
0.6703,1002
0.6719667,822
0.6736333,1030
0.6753,963
0.6769667,879
0.6786333,772
0.6803,1021
0.6819667,837
0.6836333,848
0.6853,960
0.6869667,800
0.6886333,813
0.6903,715
0.6919667,769
0.6936333,869
0.6953,937
0.6969666,957
0.6986333,776
0.7003,821
0.7019666,727
0.7036333,773
0.7053,819
0.7069666,876
0.7086333,862
0.7103,898
0.7119667,821
0.7136334,808
0.7153,795
0.7169667,688
0.7186334,896
0.7203,876
0.7219667,641
0.7236333,907
0.7253,1007
0.7269667,903
0.7286333,856
0.7303,833
0.7319667,839
0.7336333,854
0.7353,756
0.7369667,750
0.7386333,870
0.7403,675
0.7419667,861
0.7436333,764
0.7453,758
0.7469667,703
0.7486333,720
0.7503,735
0.7519667,750
0.7536333,780
0.7553,783
0.7569667,786
0.7586333,626
0.7603,680
0.7619666,735
0.7636333,661
0.7653,588
0.7669666,640
0.7686333,692
0.7703,776
0.7719667,782
0.7736334,877
0.7753,820
0.7769667,735
0.7786334,813
0.7803,845
0.7819667,845
0.7836334,941
0.7853,640
0.7869667,734
0.7886333,849
0.7903,783
0.7919667,835
0.7936333,812
0.7953,790
0.7969667,847
0.7986333,903
0.8003,868
0.8019667,718
0.8036333,840
0.8053,784
0.8069667,800
0.8086333,815
0.8103,736
0.8119667,680
0.8136333,623
0.8153,622
0.8169667,729
0.8186333,726
0.8203,723
0.8219666,729
0.8236333,735
0.8253,836
0.8269666,821
0.8286333,724
0.8303,841
0.8319666,842
0.8336333,843
0.8353,703
0.8369667,809
0.8386334,909
0.8403,817
0.8419667,711
0.8436334,793
0.8453,759
0.8469667,725
0.8486333,770
0.8503,722
0.8519667,900
0.8536333,895
0.8553,821
0.8569667,845
0.8586333,816
0.8603,675
0.8619667,757
0.8636333,654
0.8653,736
0.8669667,709
0.8686333,683
0.8703,756
0.8719667,736
0.8736333,785
0.8753,833
0.8769667,958
0.8786333,1039
0.8803,1299
0.8819667,1393
0.8836333,2151
0.8853,2268
0.8869666,2743
0.8886333,3035
0.8903,3869
0.8919666,3702
0.8936333,3855
0.8953,3679
0.8969667,3762
0.8986334,3811
0.9003,3859
0.9019667,3802
0.9036334,4106
0.9053,4171
0.9069667,4176
0.9086334,4014
0.9103,3888
0.9119667,3922
0.9136333,4288
0.9153,4325
0.9169667,4115
0.9186333,4004
0.9203,3975
0.9219667,4111
0.9236333,4300
0.9253,4211
0.9269667,4135
0.9286333,3892
0.9303,3875
0.9319667,3353
0.9336333,3605
0.9353,3575
0.9369667,3556
0.9386333,3566
0.9403,3252
0.9419667,3195
0.9436333,3413
0.9453,3242
0.9469666,2949
0.9486333,2990
0.9503,2448
0.9519666,2520
0.9536333,2414
0.9553,2278
0.9569666,2404
0.9586333,2115
0.9603,1696
0.9619667,1983
0.9636334,2120
0.9653,1649
0.9669667,1780
0.9686334,1715
0.9703,1600
0.9719667,1395
0.9736333,1407
0.9753,1316
0.9769667,1211
0.9786333,1023
0.9803,1062
0.9819667,1109
0.9836333,964
0.9853,1041
0.9869667,829
0.9886333,993
0.9903,578
0.9919667,698
0.9936333,765
0.9953,663
0.9969667,741
0.9986333,678
1.0003,714
1.001967,687
1.003633,659
1.0053,632
1.006967,691
1.008633,639
1.0103,700
1.011967,601
1.013633,706
1.0153,668
1.016967,630
1.018633,609
1.0203,706
1.021967,470
1.023633,600
1.0253,604
1.026967,518
1.028633,658
1.0303,701
1.031967,777
1.033633,716
1.0353,670
1.036967,591
1.038633,641
1.0403,538
1.041967,538
1.043633,589
1.0453,669
1.046967,733
1.048633,662
1.0503,565
1.051967,640
1.053633,591
1.0553,588
1.056967,675
1.058633,658
1.0603,718
1.061967,740
1.063633,622
1.0653,766
1.066967,467
1.068633,605
1.0703,563
1.071967,603
1.073633,599
1.0753,595
1.076967,572
1.078633,741
1.0803,753
1.081967,661
1.083633,611
1.0853,751
1.086967,754
1.088633,648
1.0903,582
1.091967,657
1.093633,586
1.0953,589
1.096967,593
1.098633,622
1.1003,651
1.101967,832
1.103633,821
1.1053,696
1.106967,650
1.108633,707
1.1103,654
1.111967,800
1.113633,525
1.1153,561
1.116967,721
1.118633,584
1.1203,752
1.121967,825
1.123633,676
1.1253,645
1.126967,712
1.128633,744
1.1303,522
1.131967,530
1.133633,589
1.1353,634
1.136967,678
1.138633,729
1.1403,751
1.141967,729
1.143633,706
1.1453,684
1.146967,677
1.148633,666
1.1503,654
1.151967,634
1.153633,614
1.1553,718
1.156967,504
1.158633,702
1.1603,749
1.161967,718
1.163633,721
1.1653,742
1.166967,875
1.168633,850
1.1703,654
1.171967,651
1.173633,710
1.1753,691
1.176967,673
1.178633,705
1.1803,738
1.181967,701
1.183633,665
1.1853,629
1.186967,691
1.188633,675
1.1903,861
1.191967,821
1.193633,690
1.1953,838
1.196967,706
1.198633,816
