"SampleName","A2Rd2_02-41"
"Target Mass 1",
"Column Name","IA-3 (3um, 4.6X100)"
"Channel","QDa 1: SIR Ch1"
0.00195,388
0.003616667,478
0.005283333,512
0.00695,546
0.008616666,581
0.01028333,709
0.01195,728
0.01361667,641
0.01528333,547
0.01695,615
0.01861667,611
0.02028333,514
0.02195,518
0.02361667,522
0.02528333,611
0.02695,617
0.02861667,510
0.03028333,600
0.03195,627
0.03361667,612
0.03528333,557
0.03695,631
0.03861667,488
0.04028333,672
0.04195,693
0.04361667,441
0.04528333,569
0.04695,679
0.04861667,482
0.05028334,546
0.05195,540
0.05361667,472
0.05528333,595
0.05695,566
0.05861667,536
0.06028333,588
0.06195,545
0.06361666,557
0.06528334,527
0.06695,479
0.06861667,500
0.07028333,522
0.07195,457
0.07361667,421
0.07528333,384
0.07695,545
0.07861666,619
0.08028334,564
0.08195,607
0.08361667,606
0.08528333,605
0.08695,588
0.08861667,484
0.09028333,497
0.09195,529
0.09361666,561
0.09528334,560
0.09695,608
0.09861667,430
0.1002833,508
0.10195,539
0.1036167,499
0.1052833,580
0.10695,583
0.1086167,638
0.1102833,600
0.11195,498
0.1136167,441
0.1152833,530
0.11695,539
0.1186167,461
0.1202833,516
0.12195,563
0.1236167,540
0.1252833,504
0.12695,473
0.1286167,524
0.1302833,577
0.13195,605
0.1336167,474
0.1352833,516
0.13695,471
0.1386167,440
0.1402833,408
0.14195,614
0.1436167,640
0.1452833,576
0.14695,560
0.1486167,453
0.1502833,529
0.15195,575
0.1536167,448
0.1552833,453
0.15695,536
0.1586167,526
0.1602833,527
0.16195,528
0.1636167,599
0.1652833,439
0.16695,645
0.1686167,436
0.1702833,511
0.17195,518
0.1736167,606
0.1752833,561
0.17695,516
0.1786167,538
0.1802833,505
0.18195,487
0.1836167,469
0.1852833,482
0.18695,495
0.1886167,439
0.1902833,384
0.19195,458
0.1936333,515
0.1952833,510
0.19695,546
0.1986167,518
0.2002833,489
0.20195,479
0.2036167,363
0.2052833,586
0.20695,502
0.2086167,465
0.2103,512
0.2119667,531
0.2136167,517
0.2152833,561
0.21695,551
0.2186167,540
0.2203,582
0.22195,482
0.2236167,593
0.2252833,520
0.22695,561
0.2286333,601
0.2302833,615
0.23195,474
0.2336167,612
0.2352833,564
0.2369667,417
0.2386167,578
0.2402833,395
0.24195,399
0.2436333,578
0.2453,655
0.2469667,503
0.2486333,503
0.2503,604
0.25195,544
0.2536333,491
0.2552833,521
0.2569667,551
0.2586333,442
0.2603,672
0.2619667,622
0.2636333,487
0.2652833,480
0.2669667,546
0.2686167,551
0.2703,527
0.27195,508
0.2736333,522
0.2753,536
0.2769667,522
0.2786333,508
0.2803,480
0.2819667,640
0.2836333,645
0.2852833,495
0.2869667,576
0.2886333,530
0.2903,570
0.2919667,609
0.2936333,462
0.2953,501
0.2969667,528
0.2986333,410
0.3003,478
0.3019667,601
0.3036333,628
0.3053,492
0.3069667,712
0.3086333,421
0.3103,475
0.3119667,655
0.3136333,501
0.3153,472
0.3169667,518
0.3186333,545
0.3203,563
0.3219667,571
0.3236333,579
0.3253,665
0.3269667,653
0.3286333,517
0.3303,596
0.3319667,563
0.3336333,535
0.3353,517
0.3369667,490
0.3386333,463
0.3403,518
0.3419667,523
0.3436333,528
0.3453,495
0.3469667,463
0.3486333,559
0.3503,436
0.3519667,615
0.3536333,552
0.3553,556
0.3569667,544
0.3586333,533
0.3603,545
0.3619667,557
0.3636333,803
0.3653,1018
0.3669667,1696
0.3686333,2358
0.3703,3463
0.3719667,3415
0.3736333,3433
0.3753,3451
0.3769667,3469
0.3786333,4750
0.3803,4801
0.3819667,4965
0.3836333,4676
0.3853,4405
0.3869667,4087
0.3886333,3469
0.3903,2893
0.3919667,2873
0.3936333,1758
0.3953,1517
0.3969667,1608
0.3986333,1361
0.4003,1556
0.4019667,1544
0.4036333,1496
0.4053,1733
0.4069667,1295
0.4086333,1459
0.4103,1335
0.4119667,1463
0.4136333,1454
0.4153,1471
0.4169667,1838
0.4186333,1905
0.4203,1584
0.4219667,1995
0.4236333,1743
0.4253,1735
0.4269667,1534
0.4286333,2004
0.4303,2021
0.4319667,1919
0.4336333,2272
0.4353,3233
0.4369667,4527
0.4386333,6658
0.4403,10976
0.4419667,16648
0.4436333,25316
0.4453,35792
0.4469667,48752
0.4486333,63168
0.4503,82384
0.4519667,98416
0.4536333,113376
0.4553,125264
0.4569667,136192
0.4586333,146112
0.4603,151488
0.4619667,162048
0.4636333,162880
0.4653,161984
0.4669667,172160
0.4686333,174528
0.4703,183936
0.4719667,192320
0.4736333,201920
0.4753,211840
0.4769667,217792
0.4786333,223040
0.4803,211456
0.4819667,203264
0.4836333,188928
0.4853,171264
0.4869667,153600
0.4886333,131904
0.4903,112896
0.4919667,93296
0.4936333,77056
0.4953,64528
0.4969667,51776
0.4986333,40640
0.5003,32848
0.5019667,26844
0.5036333,20752
0.5053,17192
0.5069667,13696
0.5086333,11160
0.5103,9200
0.5119666,7965
0.5136333,7025
0.5153,5986
0.5169666,5314
0.5186333,5056
0.5203,4767
0.5219667,3641
0.5236334,3709
0.5253,3337
0.5269667,3684
0.5286334,3417
0.5303,3531
0.5319667,3221
0.5336334,2569
0.5353,2846
0.5369667,2489
0.5386333,2782
0.5403,2227
0.5419667,2507
0.5436333,2374
0.5453,2184
0.5469667,2265
0.5486333,2044
0.5503,2135
0.5519667,2093
0.5536333,1917
0.5553,1819
0.5569667,1595
0.5586333,1734
0.5603,1463
0.5619667,1655
0.5636333,1532
0.5653,1410
0.5669667,1553
0.5686333,1558
0.5703,1562
0.5719666,1497
0.5736333,1431
0.5753,1167
0.5769666,1230
0.5786333,1279
0.5803,1327
0.5819666,1116
0.5836333,1195
0.5853,1332
0.5869667,1504
0.5886334,1409
0.5903,1314
0.5919667,1354
0.5936334,1395
0.5953,1378
0.5969667,1540
0.5986333,1585
0.6003,1297
0.6019667,1504
0.6036333,1529
0.6053,1401
0.6069667,1422
0.6086333,1488
0.6103,1428
0.6119667,1368
0.6136333,1280
0.6153,1295
0.6169667,1277
0.6186333,1419
0.6203,1396
0.6219667,1207
0.6236333,1224
0.6253,1232
0.6269667,1357
0.6286333,1014
0.6303,1039
0.6319667,1238
0.6336333,1282
0.6353,1170
0.6369666,1059
0.6386333,916
0.6403,1019
0.6419666,949
0.6436333,878
0.6453,1070
0.6469667,980
0.6486334,921
0.6503,760
0.6519667,899
0.6536334,1009
0.6553,1003
0.6569667,954
0.6586334,915
0.6603,846
0.6619667,920
0.6636333,893
0.6653,823
0.6669667,810
0.6686333,798
0.6703,818
0.6719667,839
0.6736333,775
0.6753,763
0.6769667,751
0.6786333,803
0.6803,855
0.6819667,904
0.6836333,847
0.6853,847
0.6869667,806
0.6886333,833
0.6903,860
0.6919667,814
0.6936333,802
0.6953,808
0.6969666,772
0.6986333,736
0.7003,775
0.7019666,787
0.7036333,703
0.7053,639
0.7069666,630
0.7086333,661
0.7103,691
0.7119667,710
0.7136334,730
0.7153,700
0.7169667,645
0.7186334,709
0.7203,663
0.7219667,690
0.7236333,696
0.7253,701
0.7269667,748
0.7286333,807
0.7303,741
0.7319667,676
0.7336333,788
0.7353,619
0.7369667,618
0.7386333,650
0.7403,622
0.7419667,594
0.7436333,682
0.7453,714
0.7469667,734
0.7486333,742
0.7503,750
0.7519667,728
0.7536333,661
0.7553,682
0.7569667,721
0.7586333,836
0.7603,794
0.7619666,682
0.7636333,727
0.7653,791
0.7669666,824
0.7686333,789
0.7703,754
0.7719667,789
0.7736334,617
0.7753,709
0.7769667,714
0.7786334,744
0.7803,731
0.7819667,632
0.7836334,708
0.7853,716
0.7869667,722
0.7886333,729
0.7903,677
0.7919667,625
0.7936333,588
0.7953,646
0.7969667,630
0.7986333,670
0.8003,684
0.8019667,687
0.8036333,711
0.8053,646
0.8069667,640
0.8086333,677
0.8103,773
0.8119667,739
0.8136333,528
0.8153,602
0.8169667,730
0.8186333,522
0.8203,696
0.8219666,638
0.8236333,588
0.8253,650
0.8269666,666
0.8286333,683
0.8303,692
0.8319666,700
0.8336333,706
0.8353,712
0.8369667,668
0.8386334,705
0.8403,692
0.8419667,678
0.8436334,789
0.8453,788
0.8469667,662
0.8486333,611
0.8503,814
0.8519667,629
0.8536333,470
0.8553,618
0.8569667,617
0.8586333,558
0.8603,500
0.8619667,749
0.8636333,752
0.8653,571
0.8669667,617
0.8686333,620
0.8703,623
0.8719667,528
0.8736333,607
0.8753,712
0.8769667,840
0.8786333,778
0.8803,872
0.8819667,894
0.8836333,1474
0.8853,1571
0.8869666,1862
0.8886333,2132
0.8903,2227
0.8919666,2001
0.8936333,2430
0.8953,2328
0.8969667,2226
0.8986334,2333
0.9003,2837
0.9019667,2830
0.9036334,2834
0.9053,2604
0.9069667,2702
0.9086334,2574
0.9103,2696
0.9119667,2538
0.9136333,2720
0.9153,2795
0.9169667,2457
0.9186333,2784
0.9203,2834
0.9219667,2207
0.9236333,2454
0.9253,2509
0.9269667,2456
0.9286333,2594
0.9303,2524
0.9319667,2454
0.9336333,2372
0.9353,2496
0.9369667,2418
0.9386333,2638
0.9403,2675
0.9419667,2418
0.9436333,1979
0.9453,2126
0.9469666,2137
0.9486333,2008
0.9503,1878
0.9519666,2015
0.9536333,1952
0.9553,1770
0.9569666,1759
0.9586333,1653
0.9603,1359
0.9619667,1359
0.9636334,1473
0.9653,1329
0.9669667,1318
0.9686334,1117
0.9703,1195
0.9719667,900
0.9736333,1210
0.9753,923
0.9769667,1010
0.9786333,917
0.9803,748
0.9819667,775
0.9836333,683
0.9853,558
0.9869667,677
0.9886333,757
0.9903,674
0.9919667,634
0.9936333,696
0.9953,515
0.9969667,608
0.9986333,528
1.0003,535
1.001967,639
1.003633,509
1.0053,512
1.006967,565
1.008633,542
1.0103,550
1.011967,558
1.013633,524
1.0153,492
1.016967,522
1.018633,509
1.0203,461
1.021967,463
1.023633,465
1.0253,477
1.026967,509
1.028633,542
1.0303,636
1.031967,658
1.033633,621
1.0353,584
1.036967,558
1.038633,595
1.0403,553
1.041967,522
1.043633,580
1.0453,544
1.046967,508
1.048633,560
1.0503,613
1.051967,654
1.053633,593
1.0553,526
1.056967,457
1.058633,610
1.0603,690
1.061967,413
1.063633,576
1.0653,627
1.066967,475
1.068633,620
1.0703,440
1.071967,577
1.073633,655
1.0753,513
1.076967,477
1.078633,530
1.0803,490
1.081967,450
1.083633,635
1.0853,652
1.086967,433
1.088633,508
1.0903,570
1.091967,587
1.093633,632
1.0953,614
1.096967,595
1.098633,496
1.1003,688
1.101967,597
1.103633,729
1.1053,646
1.106967,614
1.108633,503
1.1103,736
1.111967,647
1.113633,522
1.1153,547
1.116967,570
1.118633,517
1.1203,550
1.121967,582
1.123633,640
1.1253,443
1.126967,522
1.128633,650
1.1303,665
1.131967,485
1.133633,560
1.1353,671
1.136967,617
1.138633,482
1.1403,611
1.141967,567
1.143633,519
1.1453,636
1.146967,547
1.148633,435
1.1503,508
1.151967,566
1.153633,622
1.1553,535
1.156967,636
1.158633,606
1.1603,575
1.161967,601
1.163633,593
1.1653,586
1.166967,576
1.168633,561
1.1703,545
1.171967,410
1.173633,655
1.1753,536
1.176967,656
1.178633,579
1.1803,629
1.181967,590
1.183633,575
1.1853,625
1.186967,579
1.188633,610
1.1903,585
1.191967,560
1.193633,539
1.1953,499
1.196967,511
1.198633,587
