"SampleName","A2Rd2_02-27"
"Target Mass 1",
"Column Name","IA-3 (3um, 4.6X100)"
"Channel","QDa 1: SIR Ch1"
0.00195,246
0.003616667,574
0.005283333,486
0.00695,489
0.008616666,550
0.01028333,593
0.01195,602
0.01361667,464
0.01528333,453
0.01695,512
0.01861667,572
0.02028333,569
0.02195,556
0.02361667,542
0.02528333,503
0.02695,531
0.02861667,546
0.03028333,546
0.03195,514
0.03361667,481
0.03528333,493
0.03695,504
0.03861667,457
0.04028333,441
0.04195,425
0.04361667,446
0.04528333,467
0.04695,477
0.04861667,493
0.05028334,510
0.05195,575
0.05361667,566
0.05528333,559
0.05695,567
0.05861667,563
0.06028333,559
0.06195,566
0.06361666,511
0.06528334,456
0.06695,512
0.06861667,540
0.07028333,568
0.07195,508
0.07361667,560
0.07528333,690
0.07695,679
0.07861666,561
0.08028334,607
0.08195,610
0.08361667,620
0.08528333,709
0.08695,444
0.08861667,518
0.09028333,612
0.09195,463
0.09361666,549
0.09528334,579
0.09695,541
0.09861667,466
0.1002833,514
0.10195,562
0.1036167,577
0.1052833,550
0.10695,523
0.1086167,544
0.1102833,566
0.11195,512
0.1136167,511
0.1152833,424
0.11695,442
0.1186167,460
0.1202833,435
0.12195,410
0.1236167,531
0.1252833,593
0.12695,666
0.1286167,679
0.1302833,530
0.13195,649
0.1336167,672
0.1352833,555
0.13695,632
0.1386167,574
0.1402833,441
0.14195,461
0.1436167,654
0.1452833,642
0.14695,555
0.1486167,425
0.1502833,464
0.15195,555
0.1536167,629
0.1552833,550
0.15695,487
0.1586167,516
0.1602833,598
0.16195,564
0.1636167,529
0.1652833,475
0.16695,547
0.1686167,472
0.1702833,464
0.17195,463
0.1736167,496
0.1752833,500
0.17695,504
0.1786167,590
0.1802833,325
0.18195,488
0.1836167,579
0.1852833,456
0.18695,456
0.1886167,455
0.1902833,593
0.19195,568
0.1936167,529
0.1952833,565
0.19695,520
0.1986167,474
0.2002833,586
0.20195,380
0.2036167,467
0.2052833,628
0.20695,541
0.2086167,570
0.2102833,566
0.21195,454
0.2136167,510
0.2152833,475
0.21695,510
0.2186167,649
0.2202833,611
0.22195,506
0.2236167,478
0.2252833,503
0.22695,514
0.2286167,525
0.2302833,560
0.23195,457
0.2336167,468
0.2352833,459
0.23695,450
0.2386167,456
0.2402833,601
0.24195,530
0.2436167,459
0.2453,560
0.24695,526
0.2486167,439
0.2502833,523
0.25195,522
0.2536167,488
0.2552833,457
0.25695,585
0.2586167,610
0.2602833,455
0.26195,517
0.2636333,556
0.2652833,575
0.26695,569
0.2686167,436
0.2702833,631
0.27195,480
0.2736167,584
0.2752833,546
0.27695,576
0.2786167,555
0.2803,533
0.28195,639
0.2836333,630
0.2853,486
0.2869667,355
0.2886167,676
0.2902833,621
0.29195,466
0.2936333,549
0.2952833,582
0.29695,538
0.2986333,569
0.3002833,542
0.3019667,536
0.3036333,529
0.3052833,523
0.30695,518
0.3086167,531
0.3103,545
0.31195,553
0.3136167,560
0.3153,521
0.3169667,481
0.3186333,671
0.3202833,663
0.3219667,578
0.3236333,452
0.3253,629
0.3269667,422
0.3286333,613
0.3303,552
0.3319667,672
0.3336333,619
0.3353,545
0.3369667,583
0.3386167,577
0.3403,571
0.34195,552
0.3436333,534
0.3452833,501
0.34695,516
0.3486167,459
0.3503,539
0.3519667,619
0.3536333,635
0.3553,565
0.3569667,530
0.3586167,492
0.3603,648
0.36195,685
0.3636333,722
0.3653,1303
0.3669667,2141
0.3686333,3227
0.3703,4031
0.3719667,4080
0.3736333,4396
0.3753,5111
0.3769667,5217
0.3786333,5357
0.3803,5597
0.3819667,5564
0.3836333,5530
0.3853,4686
0.3869667,4050
0.3886333,3654
0.3903,3203
0.3919667,2717
0.3936333,1954
0.3953,1374
0.3969667,1401
0.3986333,1030
0.4003,1160
0.4019667,987
0.4036333,1014
0.4053,1009
0.4069667,1043
0.4086333,949
0.4103,1058
0.4119667,901
0.4136333,1006
0.4153,995
0.4169667,984
0.4186333,1202
0.4203,1176
0.4219667,1080
0.4236333,1037
0.4253,852
0.4269667,1039
0.4286333,1074
0.4303,1183
0.4319667,1475
0.4336333,1656
0.4353,2590
0.4369667,4071
0.4386333,6651
0.4403,10108
0.4419667,17008
0.4436333,24216
0.4453,34960
0.4469667,50192
0.4486333,65328
0.4503,80224
0.4519667,95568
0.4536333,111904
0.4553,125168
0.4569667,141952
0.4586333,147648
0.4603,156736
0.4619667,164800
0.4636333,168960
0.4653,174016
0.4669667,184896
0.4686333,188032
0.4703,199616
0.4719667,211904
0.4736333,220800
0.4753,226560
0.4769667,225024
0.4786333,221696
0.4803,211904
0.4819667,198656
0.4836333,181248
0.4853,162368
0.4869667,139456
0.4886333,120288
0.4903,101008
0.4919667,83040
0.4936333,68144
0.4953,56080
0.4969667,43344
0.4986333,35744
0.5003,27760
0.5019667,23064
0.5036333,18268
0.5053,14756
0.5069667,11636
0.5086333,10180
0.5103,8236
0.5119666,7607
0.5136333,6418
0.5153,5348
0.5169666,5367
0.5186333,4649
0.5203,4605
0.5219667,4269
0.5236334,3653
0.5253,3673
0.5269667,3417
0.5286334,3239
0.5303,2636
0.5319667,3228
0.5336334,2697
0.5353,2846
0.5369667,2742
0.5386333,2437
0.5403,2349
0.5419667,2500
0.5436333,2286
0.5453,2250
0.5469667,2156
0.5486333,2130
0.5503,2105
0.5519667,2099
0.5536333,2111
0.5553,1991
0.5569667,1704
0.5586333,1957
0.5603,1806
0.5619667,1633
0.5636333,1431
0.5653,1515
0.5669667,1351
0.5686333,1563
0.5703,1264
0.5719666,1311
0.5736333,1574
0.5753,1561
0.5769666,1619
0.5786333,1504
0.5803,1250
0.5819666,1309
0.5836333,1470
0.5853,1319
0.5869667,1317
0.5886334,1316
0.5903,1345
0.5919667,1373
0.5936334,1347
0.5953,1322
0.5969667,1357
0.5986333,1342
0.6003,1326
0.6019667,1328
0.6036333,1266
0.6053,1328
0.6069667,1390
0.6086333,1359
0.6103,1431
0.6119667,1113
0.6136333,1269
0.6153,1128
0.6169667,1000
0.6186333,1084
0.6203,1127
0.6219667,1053
0.6236333,1123
0.6253,1329
0.6269667,1344
0.6286333,868
0.6303,1019
0.6319667,1138
0.6336333,948
0.6353,984
0.6369666,945
0.6386333,906
0.6403,829
0.6419666,861
0.6436333,881
0.6453,911
0.6469667,906
0.6486334,862
0.6503,858
0.6519667,855
0.6536334,833
0.6553,798
0.6569667,875
0.6586334,825
0.6603,841
0.6619667,811
0.6636333,782
0.6653,725
0.6669667,889
0.6686333,952
0.6703,951
0.6719667,950
0.6736333,753
0.6753,854
0.6769667,813
0.6786333,848
0.6803,755
0.6819667,772
0.6836333,789
0.6853,840
0.6869667,813
0.6886333,785
0.6903,815
0.6919667,852
0.6936333,837
0.6953,814
0.6969666,864
0.6986333,649
0.7003,812
0.7019666,747
0.7036333,724
0.7053,702
0.7069666,735
0.7086333,684
0.7103,646
0.7119667,869
0.7136334,837
0.7153,667
0.7169667,668
0.7186334,909
0.7203,867
0.7219667,719
0.7236333,736
0.7253,815
0.7269667,745
0.7286333,730
0.7303,626
0.7319667,798
0.7336333,712
0.7353,699
0.7369667,647
0.7386333,678
0.7403,709
0.7419667,770
0.7436333,883
0.7453,885
0.7469667,657
0.7486333,719
0.7503,728
0.7519667,682
0.7536333,751
0.7553,820
0.7569667,778
0.7586333,573
0.7603,907
0.7619666,689
0.7636333,847
0.7653,839
0.7669666,768
0.7686333,808
0.7703,785
0.7719667,815
0.7736334,723
0.7753,765
0.7769667,845
0.7786334,636
0.7803,807
0.7819667,721
0.7836334,623
0.7853,805
0.7869667,761
0.7886333,803
0.7903,908
0.7919667,588
0.7936333,712
0.7953,778
0.7969667,737
0.7986333,662
0.8003,808
0.8019667,759
0.8036333,738
0.8053,831
0.8069667,783
0.8086333,636
0.8103,648
0.8119667,581
0.8136333,634
0.8153,688
0.8169667,731
0.8186333,774
0.8203,806
0.8219666,837
0.8236333,799
0.8253,811
0.8269666,824
0.8286333,746
0.8303,668
0.8319666,617
0.8336333,711
0.8353,805
0.8369667,869
0.8386334,670
0.8403,818
0.8419667,731
0.8436334,804
0.8453,864
0.8469667,927
0.8486333,936
0.8503,777
0.8519667,792
0.8536333,984
0.8553,880
0.8569667,822
0.8586333,736
0.8603,773
0.8619667,579
0.8636333,695
0.8653,738
0.8669667,677
0.8686333,628
0.8703,605
0.8719667,692
0.8736333,700
0.8753,892
0.8769667,1055
0.8786333,1442
0.8803,1571
0.8819667,2074
0.8836333,2372
0.8853,2650
0.8869666,2861
0.8886333,3203
0.8903,3499
0.8919666,3245
0.8936333,3397
0.8953,3440
0.8969667,3483
0.8986334,3157
0.9003,3315
0.9019667,3564
0.9036334,3305
0.9053,3409
0.9069667,3422
0.9086334,3624
0.9103,3642
0.9119667,3414
0.9136333,3475
0.9153,3643
0.9169667,3312
0.9186333,3506
0.9203,3565
0.9219667,3271
0.9236333,3154
0.9253,3436
0.9269667,3487
0.9286333,3120
0.9303,3221
0.9319667,2925
0.9336333,3159
0.9353,3216
0.9369667,2947
0.9386333,2890
0.9403,2805
0.9419667,2673
0.9436333,2835
0.9453,2148
0.9469666,2043
0.9486333,2400
0.9503,2424
0.9519666,2108
0.9536333,2203
0.9553,2079
0.9569666,1954
0.9586333,1916
0.9603,1939
0.9619667,1698
0.9636334,1640
0.9653,1586
0.9669667,1502
0.9686334,1312
0.9703,1204
0.9719667,1240
0.9736333,1161
0.9753,1135
0.9769667,975
0.9786333,1092
0.9803,889
0.9819667,947
0.9836333,924
0.9853,845
0.9869667,914
0.9886333,830
0.9903,694
0.9919667,791
0.9936333,602
0.9953,816
0.9969667,719
0.9986333,564
1.0003,389
1.001967,449
1.003633,771
1.0053,807
1.006967,668
1.008633,558
1.0103,625
1.011967,419
1.013633,531
1.0153,567
1.016967,599
1.018633,530
1.0203,588
1.021967,484
1.023633,611
1.0253,620
1.026967,629
1.028633,633
1.0303,623
1.031967,561
1.033633,654
1.0353,553
1.036967,491
1.038633,647
1.0403,573
1.041967,500
1.043633,587
1.0453,578
1.046967,597
1.048633,617
1.0503,531
1.051967,634
1.053633,691
1.0553,748
1.056967,480
1.058633,689
1.0603,623
1.061967,685
1.063633,471
1.0653,730
1.066967,723
1.068633,661
1.0703,628
1.071967,581
1.073633,567
1.0753,582
1.076967,597
1.078633,553
1.0803,581
1.081967,609
1.083633,611
1.0853,613
1.086967,609
1.088633,605
1.0903,680
1.091967,685
1.093633,690
1.0953,521
1.096967,666
1.098633,583
1.1003,785
1.101967,699
1.103633,721
1.1053,624
1.106967,737
1.108633,628
1.1103,586
1.111967,763
1.113633,646
1.1153,658
1.116967,562
1.118633,614
1.1203,544
1.121967,536
1.123633,528
1.1253,565
1.126967,601
1.128633,578
1.1303,588
1.131967,540
1.133633,554
1.1353,568
1.136967,563
1.138633,558
1.1403,617
1.141967,677
1.143633,644
1.1453,612
1.146967,709
1.148633,584
1.1503,721
1.151967,796
1.153633,872
1.1553,587
1.156967,724
1.158633,687
1.1603,531
1.161967,705
1.163633,485
1.1653,695
1.166967,696
1.168633,616
1.1703,733
1.171967,887
1.173633,886
1.1753,698
1.176967,727
1.178633,719
1.1803,755
1.181967,745
1.183633,774
1.1853,605
1.186967,848
1.188633,918
1.1903,813
1.191967,755
1.193633,724
1.1953,773
1.196967,739
1.198633,706
