D:\MassHunter\Data\caye_nmr_test_mix .D Tue Dec 17 10:13:57 2019
Start of data points
0.09353,11398
0.09555,383281
0.09995,11394
0.10198,385580
0.10638,11399
0.10842,385114
0.11282,11385
0.11485,384164
0.11925,11455
0.12127,384282
0.12568,11426
0.12770,386331
0.13212,11414
0.13413,387503
0.13853,11464
0.14057,386122
0.14497,11457
0.14700,385064
0.15140,11443
0.15343,384326
0.15783,11427
0.15985,383541
0.16427,11439
0.16628,386209
0.17070,11385
0.17272,382149
0.17712,11442
0.17915,384309
0.18355,11406
0.18558,383362
0.18998,11356
0.19202,382231
0.19642,11347
0.19843,379561
0.20285,11417
0.20487,379262
0.20928,11358
0.21130,381077
0.21570,11367
0.21773,379549
0.22213,11261
0.22417,377348
0.22857,11321
0.23060,380100
0.23500,11255
0.23702,376385
0.24143,11251
0.24345,377484
0.24787,11300
0.24988,374136
0.25428,11253
0.25632,372278
0.26072,11169
0.26275,375326
0.26715,11173
0.26918,372873
0.27358,11185
0.27560,373910
0.28002,11178
0.28203,373282
0.28643,11173
0.28847,371325
0.29287,11101
0.29490,372944
0.29930,11101
0.30133,370758
0.30573,11083
0.30777,367989
0.31217,11170
0.31418,371120
0.31860,11102
0.32062,370308
0.32502,11019
0.32705,370156
0.33145,11042
0.33348,370414
0.33788,11020
0.33992,365589
0.34432,10982
0.34635,367669
0.35075,10967
0.35277,364357
0.35718,10973
0.35920,365282
0.36360,10995
0.36563,365915
0.37003,10921
0.37207,362260
0.37647,10957
0.37850,362949
0.38290,10927
0.38493,363606
0.38933,10918
0.39135,362706
0.39577,10859
0.39778,362690
0.40218,10891
0.40422,359545
0.40862,10896
0.41065,359593
0.41505,10793
0.41708,361685
0.42148,10834
0.42352,359432
0.42792,10812
0.42993,358715
0.43435,10835
0.43637,360530
0.44077,10760
0.44280,358017
0.44720,10797
0.44923,360001
0.45363,10792
0.45567,355884
0.46007,10787
0.46210,358215
0.46650,10743
0.46852,355321
0.47293,10727
0.47495,356805
0.47935,10767
0.48138,357593
0.48578,10673
0.48782,358327
0.49222,10700
0.49425,356369
0.49865,10671
0.50068,353318
0.50508,10658
0.50710,353531
0.51152,10656
0.51353,352095
0.51793,10668
0.51997,353279
0.52437,10606
0.52640,353231
0.53080,10657
0.53283,350538
0.53723,10586
0.53927,353781
0.54367,10564
0.54568,351409
0.55010,10592
0.55212,349044
0.55652,10594
0.55855,350797
0.56295,10581
0.56498,350512
0.56938,10517
0.57142,348093
0.57582,10541
0.57785,350640
0.58225,10493
0.58427,347799
0.58868,10473
0.59070,348576
0.59510,10473
0.59713,348542
0.60153,10434
0.60357,346345
0.60797,10475
0.61000,346534
0.61440,10471
0.61642,345808
0.62083,10441
0.62285,348001
0.62727,10483
0.62928,344755
0.63368,10403
0.63572,344917
0.64012,10389
0.64215,340651
0.64655,10383
0.64858,345375
0.65298,10344
0.65500,343035
0.65942,10357
0.66143,342059
0.66585,10362
0.66787,341262
0.67227,10317
0.67430,340137
0.67870,10307
0.68073,340978
0.68513,10306
0.68717,341396
0.69157,10305
0.69358,337751
0.69800,10307
0.70002,337699
0.70443,10308
0.70645,340735
0.71085,10263
0.71288,337514
0.71728,10264
0.71932,336629
0.72372,10195
0.72575,338384
0.73015,10247
0.73217,337870
0.73658,10197
0.73860,335975
0.74302,10152
0.74503,334384
0.74943,10193
0.75147,334453
0.75587,10233
0.75790,333801
0.76230,10174
0.76433,335385
0.76873,10128
0.77075,332282
0.77517,10161
0.77718,332337
0.78160,10154
0.78362,330862
0.78802,10168
0.79005,334250
0.79445,10094
0.79648,331562
0.80088,10086
0.80292,333195
0.80732,10104
0.80933,331450
0.81375,10063
0.81577,330254
0.82018,10022
0.82220,331667
0.82660,10056
0.82863,331048
0.83303,10024
0.83507,329009
0.83947,10011
0.84150,332224
0.84590,10041
0.84792,330247
0.85233,9974
0.85435,328519
0.85877,10007
0.86078,326923
0.86518,9934
0.86722,328894
0.87162,9932
0.87365,324210
0.87805,9984
0.88008,324817
0.88448,9915
0.88650,328357
0.89092,9944
0.89293,322984
0.89735,9886
0.89937,327143
0.90377,9902
0.90580,326570
0.91020,9882
0.91223,323406
0.91663,9894
0.91867,324872
0.92307,9805
0.92508,321194
0.92950,9804
0.93152,323706
0.93593,9817
0.93795,323244
0.94235,9819
0.94438,322235
0.94878,9724
0.95082,320062
0.95522,9794
0.95725,321092
0.96165,9828
0.96367,320382
0.96808,9756
0.97010,322064
0.97452,9757
0.97653,317753
0.98093,9693
0.98297,319334
0.98737,9731
0.98940,319333
0.99380,9689
0.99583,318239
1.00023,9697
1.00225,319532
1.00667,9731
1.00868,316655
1.01310,9699
1.01512,319683
1.01952,9656
1.02155,315948
1.02595,9665
1.02798,315444
1.03238,9638
1.03442,315077
1.03882,9658
1.04083,317142
1.04525,9621
1.04727,314818
1.05168,9631
1.05370,314103
1.05810,9622
1.06013,313683
1.06453,9619
1.06657,314909
1.07097,9536
1.07300,315160
1.07740,9559
1.07942,314969
1.08383,9558
1.08585,313630
1.09027,9530
1.09228,312968
1.09668,9525
1.09872,310348
1.10312,9541
1.10515,310452
1.10955,9506
1.11158,311569
1.11598,9490
1.11800,308615
1.12242,9482
1.12443,306655
1.12885,9484
1.13087,310281
1.13527,9380
1.13730,310081
1.14170,9428
1.14373,308851
1.14813,9463
1.15017,307792
1.15457,9425
1.15658,307293
1.16100,9391
1.16302,306809
1.16743,9400
1.16945,303872
1.17385,9340
1.17588,305977
1.18028,9441
1.18232,306955
1.18672,9342
1.18875,304645
1.19315,9353
1.19517,304531
1.19958,9340
1.20160,305608
1.20602,9229
1.20803,306115
1.21243,9319
1.21447,304568
1.21887,9316
1.22090,304660
1.22530,9286
1.22733,299762
1.23173,9226
1.23375,300381
1.23817,9294
1.24018,301450
1.24460,9294
1.24662,304317
1.25102,9191
1.25305,300657
1.25745,9260
1.25948,302110
1.26388,9210
1.26592,301829
1.27032,9179
1.27233,300245
1.27675,9203
1.27877,302171
1.28318,9203
1.28520,300975
1.28960,9137
1.29163,296490
1.29603,9185
1.29807,298464
1.30247,9165
1.30450,297236
1.30890,9145
1.31092,298864
1.31533,9094
1.31735,296678
1.32177,9128
1.32378,300245
1.32818,9135
1.33022,295321
1.33462,9127
1.33665,295072
1.34105,9029
1.34308,295411
1.34748,9073
1.34950,294879
1.35392,9067
1.35593,294798
1.36035,9073
1.36237,292272
1.36677,9046
1.36880,291776
1.37320,8998
1.37523,291926
1.37963,8987
1.38167,293145
1.38607,8976
1.38808,294231
1.39250,9012
1.39452,293116
1.39893,8965
1.40095,293357
1.40535,8932
1.40738,291461
1.41178,8922
1.41382,292006
1.41822,8949
1.42025,289858
1.42465,8966
1.42667,289793
1.43108,8890
1.43310,291545
1.43752,8888
1.43953,288220
1.44393,8884
1.44597,288885
1.45037,8898
1.45240,287216
1.45680,8837
1.45883,287961
1.46323,8906
1.46525,288342
1.46967,8863
1.47168,288775
1.47610,8837
1.47812,286528
1.48252,8824
1.48455,287183
1.48895,8781
1.49098,287086
1.49538,8814
1.49742,287566
1.50182,8759
1.50383,286514
1.50825,8801
1.51027,287992
1.51468,8809
1.51670,285023
1.52110,8747
1.52313,284892
1.52753,8779
1.52957,284709
1.53397,8757
1.53600,285276
1.54040,8716
1.54242,281729
1.54683,8713
1.54885,284021
1.55325,8658
1.55528,283152
1.55968,8706
1.56172,280599
1.56612,8696
1.56815,281787
1.57255,8640
1.57458,280893
1.57898,8652
1.58100,282426
1.58542,8644
1.58743,281558
1.59183,8646
1.59387,280995
1.59827,8616
1.60030,280041
1.60470,8626
1.60673,279691
1.61113,8579
1.61317,278677
1.61757,8585
1.61958,278094
1.62400,8575
1.62602,280258
1.63042,8543
1.63245,278827
1.63685,8558
1.63888,275787
1.64328,8521
1.64532,278807
1.64972,8549
1.65175,279895
1.65615,8490
1.65817,277374
1.66258,8528
1.66460,275077
1.66900,8524
1.67103,276869
1.67543,8466
1.67747,275040
1.68187,8440
1.68390,275113
1.68830,8450
1.69033,273567
1.69473,8455
1.69675,274493
1.70117,8395
1.70318,272222
1.70758,8433
1.70962,273502
1.71402,8407
1.71605,273120
1.72045,8381
1.72248,273188
1.72688,8452
1.72892,275024
1.73332,8406
1.73533,273167
1.73975,8373
1.74177,273766
1.74617,8376
1.74820,269533
1.75260,8391
1.75463,272170
1.75903,8325
1.76107,271481
1.76547,8362
1.76750,273479
1.77190,8326
1.77392,272013
1.77833,8331
1.78035,271562
1.78475,8341
1.78678,269427
1.79118,8342
1.79322,268498
1.79762,8297
1.79965,268006
1.80405,8299
1.80607,270032
1.81048,8264
1.81250,269530
1.81692,8278
1.81893,267557
1.82333,8267
1.82537,268395
1.82977,8218
1.83180,266367
1.83620,8239
1.83823,266810
1.84263,8231
1.84465,266049
1.84907,8222
1.85108,266386
1.85550,8174
1.85752,264986
1.86192,8192
1.86395,266671
1.86835,8138
1.87038,264979
1.87478,8179
1.87682,265782
1.88122,8202
1.88323,265405
1.88765,8151
1.88967,265922
1.89408,8129
1.89610,263585
1.90050,8138
1.90253,264331
1.90693,8183
1.90897,271463
1.91337,8446
1.91540,283089
1.91980,9054
1.92182,313537
1.92623,9911
1.92825,341530
1.93267,10581
1.93468,354171
1.93908,10935
1.94112,364095
1.94552,11069
1.94755,367802
1.95195,11074
1.95398,365963
1.95838,11003
1.96040,366064
1.96482,10846
1.96683,361929
1.97125,10727
1.97327,352917
1.97767,9809
1.97970,136002
1.98410,2280
1.98613,23245
1.99053,714
1.99257,13546
1.99697,472
1.99898,13305
2.00340,458
2.00542,13226
2.00983,454
2.01185,12968
2.01625,452
2.01828,13118
2.02268,458
2.02472,12232
2.02912,455
2.03115,13351
2.03555,480
2.03757,13782
2.04198,528
2.04400,16394
2.04842,593
2.05043,21527
2.05483,717
2.05687,23570
2.06127,632
2.06330,18497
2.06770,641
2.06973,20843
2.07413,729
2.07615,26153
2.08057,890
2.08258,35135
2.08700,1133
2.08902,44940
2.09342,1389
2.09545,57894
2.09985,1819
2.10188,74794
2.10628,2288
2.10832,94807
2.11272,2916
2.11473,121021
2.11915,3690
2.12117,158285
2.12558,4706
2.12760,190728
2.13200,5599
2.13403,224101
2.13843,6423
2.14047,247889
2.14487,6927
2.14690,257783
2.15130,7134
2.15332,263863
2.15773,7272
2.15975,266596
2.16417,7329
2.16618,264553
2.17058,7263
2.17262,265458
2.17702,7354
2.17905,266484
2.18345,7342
2.18548,265947
2.18988,7301
2.19190,267196
2.19632,7290
2.19833,266541
2.20275,7275
2.20477,262422
2.20917,7280
2.21120,262770
2.21560,7293
2.21763,262579
2.22203,7224
2.22407,263299
2.22847,7236
2.23048,264339
2.23490,7274
2.23692,262412
2.24133,7239
2.24335,262611
2.24775,7258
2.24978,261071
2.25418,7191
2.25622,260804
2.26062,7238
2.26265,260862
2.26705,7206
2.26907,259859
2.27348,7200
2.27550,261634
2.27992,7175
2.28193,259801
2.28633,7243
2.28837,260400
2.29277,7194
2.29480,262165
2.29920,7199
2.30123,261038
2.30563,7235
2.30765,260512
2.31207,7225
2.31408,259713
2.31850,7243
2.32052,259441
2.32492,7250
2.32695,260608
2.33135,7224
2.33338,261539
2.33778,7228
2.33982,260077
2.34422,7249
2.34623,259893
2.35065,7287
2.35267,261738
2.35708,7275
2.35910,260643
2.36350,7251
2.36553,262604
2.36993,7235
2.37197,262465
2.37637,7300
2.37840,264802
2.38280,7271
2.38482,263869
2.38923,7277
2.39125,262002
2.39567,7268
2.39768,260803
2.40208,7315
2.40412,262036
2.40852,7311
2.41055,263977
2.41495,7288
2.41698,260836
2.42138,7304
2.42340,263470
2.42782,7326
2.42983,260252
2.43425,7365
2.43627,260991
2.44067,7318
2.44270,263586
2.44710,7301
2.44913,263707
2.45353,7334
2.45557,259874
2.45997,7313
2.46198,264037
2.46640,7342
2.46842,262695
2.47283,7328
2.47485,262953
2.47925,7389
2.48128,263684
2.48568,7352
2.48772,266294
2.49212,7384
2.49415,265237
2.49855,7352
2.50057,263716
2.50498,7349
2.50700,261061
2.51142,7360
2.51343,261424
2.51783,7379
2.51987,262625
2.52427,7344
2.52630,260932
2.53070,7340
2.53273,263627
2.53713,7372
2.53915,265630
2.54357,7377
2.54558,261811
2.55000,7329
2.55202,261077
2.55642,7376
2.55845,262539
2.56285,7340
2.56488,257520
2.56928,7376
2.57132,260175
2.57572,7366
2.57773,261018
2.58215,7381
2.58417,259561
2.58858,7397
2.59060,259113
2.59500,7349
2.59703,259354
2.60143,7374
2.60347,260739
2.60787,7423
2.60990,260811
2.61430,7401
2.61632,260864
2.62073,7351
2.62275,259321
2.62717,7389
2.62918,260411
2.63358,7392
2.63562,259117
2.64002,7385
2.64205,264103
2.64645,7392
2.64848,259667
2.65288,7428
2.65490,262182
2.65932,7525
2.66133,285042
2.66575,8632
2.66777,387418
2.67217,11983
2.67420,562695
2.67860,16441
2.68063,698349
2.68503,18409
2.68707,700250
2.69147,17444
2.69348,638190
2.69790,15640
2.69992,576039
2.70433,13849
2.70635,515527
2.71075,12115
2.71278,456429
2.71718,10571
2.71922,416011
2.72362,9427
2.72565,373015
2.73005,8452
2.73207,344156
2.73648,7692
2.73850,315553
2.74292,6971
2.74493,291701
2.74933,6432
2.75137,273950
2.75577,5968
2.75780,255380
2.76220,5564
2.76423,242935
2.76863,5192
2.77065,231687
2.77507,4936
2.77708,222387
2.78150,4725
2.78352,279089
2.78792,8161
2.78995,531140
2.79435,14024
2.79638,581545
2.80078,14307
2.80282,548265
2.80722,13629
2.80923,519165
2.81365,13049
2.81567,492689
2.82008,12492
2.82210,473747
2.82650,11997
2.82853,450718
2.83293,11658
2.83497,434647
2.83937,11245
2.84140,420564
2.84580,10929
2.84782,407111
2.85223,10631
2.85425,396980
2.85865,10393
2.86068,387850
2.86508,10134
2.86712,376720
2.87152,9927
2.87355,369119
2.87795,9709
2.87998,361016
2.88438,9592
2.88640,354066
2.89082,9409
2.89283,349734
2.89723,9279
2.89927,342909
2.90367,9221
2.90570,337662
2.91010,9106
2.91213,331449
2.91653,8898
2.91857,327123
2.92297,8851
2.92498,321934
2.92940,8782
2.93142,323185
2.93582,8680
2.93785,321154
2.94225,8590
2.94428,316098
2.94868,8542
2.95072,311527
2.95512,8477
2.95715,309094
2.96155,8434
2.96357,306375
2.96798,8395
2.97000,303210
2.97440,8294
2.97643,304446
2.98083,8358
2.98287,302123
2.98727,8274
2.98930,299808
2.99370,8231
2.99573,297728
3.00013,8229
3.00215,297540
3.00657,8171
3.00858,295082
3.01298,8137
3.01502,294273
3.01942,8044
3.02145,295280
3.02585,8064
3.02788,292625
3.03228,8019
3.03432,293259
3.03872,7984
3.04073,292643
3.04515,7995
3.04717,293529
3.05157,8056
3.05360,294168
3.05800,8062
3.06003,297520
3.06443,8063
3.06647,294601
3.07087,8092
3.07290,295123
3.07730,8022
3.07932,297551
3.08373,7977
3.08575,295204
3.09015,7923
3.09218,294343
3.09658,7924
3.09862,297580
3.10302,7955
3.10505,299379
3.10945,7926
3.11147,299448
3.11588,7884
3.11790,299206
3.12232,7908
3.12433,295135
3.12873,7889
3.13077,299269
3.13517,7878
3.13720,295922
3.14160,7855
3.14363,297096
3.14803,7840
3.15005,299803
3.15447,7863
3.15648,298916
3.16090,7843
3.16292,299807
3.16732,7852
3.16935,294593
3.17375,7796
3.17578,296943
3.18018,7860
3.18222,299041
3.18662,7818
3.18863,297796
3.19305,7848
3.19507,299766
3.19948,7804
3.20150,297430
3.20590,7775
3.20793,294436
3.21233,7810
3.21437,292613
3.21877,7770
3.22080,290657
3.22520,7809
3.22722,292011
3.23163,7696
3.23365,288796
3.23807,7753
3.24008,286990
3.24448,7708
3.24652,286677
3.25092,7727
3.25295,282276
3.25735,7664
3.25938,282830
3.26378,7706
3.26580,280394
3.27022,7693
3.27223,281580
3.27665,7628
3.27867,277344
3.28307,7624
3.28510,278692
3.28950,7641
3.29153,280374
3.29593,7668
3.29797,284214
3.30237,7773
3.30438,287863
3.30880,7861
3.31082,290249
3.31523,7961
3.31725,290456
3.32165,7935
3.32368,289683
3.32808,7867
3.33012,287433
3.33452,7787
3.33655,284524
3.34095,7774
3.34297,284364
3.34738,7701
3.34940,282345
3.35382,7709
3.35583,284684
3.36023,7689
3.36227,288639
3.36667,7690
3.36870,285392
3.37310,7653
3.37513,279054
3.37953,7625
3.38155,278257
3.38597,7642
3.38798,276622
3.39240,7630
3.39442,273834
3.39882,7632
3.40085,271880
3.40525,7595
3.40728,272389
3.41168,7611
3.41372,271574
3.41812,7548
3.42013,272756
3.42455,7537
3.42657,271375
3.43098,7570
3.43300,270766
3.43740,7531
3.43943,268752
3.44383,7509
3.44587,268556
3.45027,7576
3.45230,270021
3.45670,7505
3.45872,266822
3.46313,7477
3.46515,265661
3.46957,7483
3.47158,267795
3.47598,7454
3.47802,265933
3.48242,7462
3.48445,265783
3.48885,7448
3.49088,264587
3.49528,7426
3.49730,264347
3.50172,7449
3.50373,265259
3.50815,7419
3.51017,261707
3.51457,7410
3.51660,263118
3.52100,7371
3.52303,262193
3.52743,7385
3.52947,258493
3.53387,7404
3.53588,262738
3.54030,7377
3.54232,258961
3.54673,7370
3.54875,259908
3.55315,7296
3.55518,261810
3.55958,7335
3.56162,257027
3.56602,7362
3.56805,258167
3.57245,7343
3.57447,259728
3.57888,7351
3.58090,258238
3.58532,7345
3.58733,257616
3.59173,7361
3.59377,257249
3.59817,7306
3.60020,256965
3.60460,7262
3.60663,254494
3.61103,7249
3.61305,252147
3.61747,7257
3.61948,255196
3.62390,7272
3.62592,253301
3.63032,7285
3.63235,253067
3.63675,7259
3.63878,253008
3.64318,7242
3.64522,252289
3.64962,7291
3.65163,252360
3.65605,7231
3.65807,252029
3.66248,7233
3.66450,253588
3.66890,7249
3.67093,252000
3.67533,7235
3.67737,250878
3.68177,7192
3.68380,248403
3.68820,7207
3.69022,250371
3.69463,7167
3.69665,247899
3.70107,7186
3.70308,248441
3.70748,7162
3.70952,249328
3.71392,7182
3.71595,248060
3.72035,7151
3.72238,247147
3.72678,7164
3.72880,245555
3.73322,7163
3.73523,247450
3.73965,7101
3.74167,246416
3.74607,7120
3.74810,246729
3.75250,7138
3.75453,245189
3.75893,7113
3.76097,244726
3.76537,7127
3.76738,246655
3.77180,7136
3.77382,245799
3.77823,7096
3.78025,246567
3.78465,7105
3.78668,243169
3.79108,7102
3.79312,245434
3.79752,7090
3.79955,244266
3.80395,7102
3.80597,243381
3.81038,7067
3.81240,242021
3.81682,7078
3.81883,241483
3.82323,7064
3.82527,243221
3.82967,7057
3.83170,242594
3.83610,7018
3.83813,243054
3.84253,7017
3.84455,241367
3.84897,7041
3.85098,241928
3.85540,7016
3.85742,241153
3.86182,7023
3.86385,240928
3.86825,6944
3.87028,240899
3.87468,6976
3.87672,241137
3.88112,7010
3.88313,240330
3.88755,6973
3.88957,239959
3.89398,6921
3.89600,238560
3.90040,6955
3.90243,238727
3.90683,6965
3.90887,237089
3.91327,6952
3.91530,236967
3.91970,6928
3.92172,236964
3.92613,6932
3.92815,237962
3.93257,6883
3.93458,239103
3.93898,6951
3.94102,237656
3.94542,6882
3.94745,238663
3.95185,6921
3.95388,238416
3.95828,6878
3.96030,233971
3.96472,6862
3.96673,236106
3.97115,6885
3.97317,235958
3.97757,6916
3.97960,236104
3.98400,6899
3.98603,235738
3.99043,6864
3.99247,235210
3.99687,6845
3.99888,234194
4.00330,6816
4.00532,234498
4.00973,6862
4.01175,233640
4.01615,6846
4.01818,233332
4.02258,6806
4.02462,233836
4.02902,6827
4.03105,232556
4.03545,6796
4.03747,232476
4.04188,6804
4.04390,232427
4.04830,6802
4.05033,231203
4.05473,6819
4.05677,231848
4.06117,6779
4.06320,230248
4.06760,6794
4.06963,231992
4.07403,6788
4.07605,234638
4.08047,6788
4.08248,229104
4.08688,6763
4.08892,231538
4.09332,6763
4.09535,231038
4.09975,6729
4.10178,228880
4.10618,6747
4.10822,228719
4.11262,6724
4.11463,227913
4.11905,6717
4.12107,228914
4.12547,6720
4.12750,229952
4.13190,6712
4.13393,227283
4.13833,6677
4.14037,228405
4.14477,6683
4.14680,229178
4.15120,6695
4.15322,225759
4.15763,6680
4.15965,228590
4.16405,6689
4.16608,227451
4.17048,6693
4.17252,226698
4.17692,6649
4.17895,226819
4.18335,6664
4.18538,223864
4.18978,6638
4.19180,227644
4.19622,6660
4.19823,225691
4.20263,6634
4.20467,224517
4.20907,6620
4.21110,225507
4.21550,6632
4.21753,225524
4.22193,6613
4.22397,224691
4.22837,6625
4.23038,225941
4.23480,6646
4.23682,224545
4.24122,6609
4.24325,223442
4.24765,6600
4.24968,222718
4.25408,6555
4.25612,224395
4.26052,6564
4.26255,224113
4.26695,6592
4.26897,225146
4.27338,6596
4.27540,222224
4.27980,6566
4.28183,223656
4.28623,6525
4.28827,222365
4.29267,6552
4.29470,223795
4.29910,6518
4.30113,220807
4.30553,6573
4.30755,223298
4.31197,6517
4.31398,223812
4.31838,6524
4.32042,221901
4.32482,6503
4.32685,222603
4.33125,6507
4.33328,220512
4.33768,6494
4.33972,222818
4.34412,6497
4.34613,222762
4.35055,6479
4.35257,218983
4.35697,6482
4.35900,219901
4.36340,6453
4.36543,220405
4.36983,6463
4.37187,222479
4.37627,6486
4.37830,234354
4.38270,6485
4.38472,239968
4.38913,6475
4.39115,228706
4.39555,6457
4.39758,220917
4.40198,6407
4.40402,220244
4.40842,6411
4.41045,218974
4.41485,6437
4.41687,218018
4.42128,6387
4.42330,219231
4.42772,6386
4.42973,218009
4.43413,6409
4.43617,218151
4.44057,6370
4.44260,217544
4.44700,6361
4.44903,216789
4.45343,6395
4.45545,218246
4.45987,6374
4.46188,217489
4.46630,6397
4.46832,216861
4.47272,6344
4.47475,216750
4.47915,6350
4.48118,214767
4.48558,6353
4.48762,214945
4.49202,6319
4.49403,216996
4.49845,6383
4.50047,215348
4.50488,6301
4.50690,214073
4.51130,6330
4.51333,214743
4.51773,6323
4.51977,213857
4.52417,6334
4.52620,213845
4.53060,6304
4.53262,213120
4.53703,6353
4.53905,212285
4.54347,6328
4.54548,213022
4.54988,6288
4.55192,212924
4.55632,6296
4.55835,216062
4.56275,6320
4.56478,212698
4.56918,6271
4.57120,214662
4.57562,6272
4.57763,209965
4.58205,6248
4.58407,213611
4.58847,6258
4.59050,211016
4.59490,6280
4.59693,212779
4.60133,6241
4.60337,213759
4.60777,6260
4.60978,210278
4.61420,6239
4.61622,211090
4.62063,6242
4.62265,211206
4.62705,6224
4.62908,210989
4.63348,6227
4.63552,211273
4.63992,6189
4.64195,208243
4.64635,6196
4.64837,210188
4.65278,6219
4.65480,208074
4.65922,6148
4.66123,207917
4.66563,6169
4.66767,208224
4.67207,6161
4.67410,210948
4.67850,6171
4.68053,208120
4.68493,6181
4.68695,207620
4.69137,6154
4.69338,209527
4.69780,6145
4.69982,207504
4.70422,6158
4.70625,209868
4.71065,6128
4.71268,208179
4.71708,6142
4.71912,209041
4.72352,6134
4.72553,206405
4.72995,6121
4.73197,205931
4.73638,6133
4.73840,207859
4.74280,6090
4.74483,206247
4.74923,6086
4.75127,207274
4.75567,6106
4.75770,207056
4.76210,6068
4.76412,204551
4.76853,6094
4.77055,206829
4.77497,6053
4.77698,205559
4.78138,6067
4.78342,205475
4.78782,6064
4.78985,207707
4.79425,6080
4.79628,207655
4.80068,6066
4.80270,207076
4.80712,6071
4.80913,207113
4.81355,6062
4.81557,204350
4.81997,6069
4.82200,206127
4.82640,6026
4.82843,203325
4.83283,6028
4.83487,203101
4.83927,5997
4.84128,202389
4.84570,5985
4.84772,204418
4.85213,6029
4.85415,204427
4.85855,6015
4.86058,203895
4.86498,5977
4.86702,202637
4.87142,6034
4.87345,203032
4.87785,5979
4.87987,202880
4.88428,5973
4.88630,201050
4.89072,5965
4.89273,203079
4.89713,5983
4.89917,200943
4.90357,5970
4.90560,202482
4.91000,5919
4.91203,200003
4.91643,5973
4.91845,200656
4.92287,5951
4.92488,199998
4.92930,5948
4.93132,201661
4.93572,5924
4.93775,201678
4.94215,5957
4.94418,201551
4.94858,5928
4.95062,201247
4.95502,5936
4.95703,203866
4.96145,5936
4.96347,201618
4.96788,5896
4.96990,201611
4.97430,5932
4.97633,200869
4.98073,5890
4.98277,201695
4.98717,5876
4.98920,201154
4.99360,5897
4.99562,207963
5.00003,5960
5.00205,239568
5.00647,6291
5.00848,326040
5.01288,7006
5.01492,482441
5.01932,7955
5.02135,587497
5.02575,8664
5.02778,465899
5.03218,8299
5.03420,331503
5.03862,7649
5.04063,285292
5.04505,7273
5.04707,268474
5.05147,6981
5.05350,256727
5.05790,6838
5.05993,246760
5.06433,6694
5.06637,242319
5.07077,6613
5.07278,237671
5.07720,6510
5.07922,233107
5.08363,6458
5.08565,230387
5.09005,6392
5.09208,228435
5.09648,6390
5.09852,226390
5.10292,6327
5.10495,224104
5.10935,6235
5.11137,222021
5.11578,6250
5.11780,220075
5.12222,6179
5.12423,215576
5.12863,6191
5.13067,217220
5.13507,6152
5.13710,214942
5.14150,6100
5.14353,214019
5.14793,6097
5.14995,212003
5.15437,6097
5.15638,211664
5.16080,6091
5.16282,211110
5.16722,6036
5.16925,210112
5.17365,6070
5.17568,210687
5.18008,6036
5.18212,210033
5.18652,6026
5.18853,210132
5.19295,5968
5.19497,206945
5.19938,5979
5.20140,206894
5.20580,5961
5.20783,205126
5.21223,5934
5.21427,206736
5.21867,5949
5.22070,205320
5.22510,5915
5.22712,205242
5.23153,5911
5.23355,204409
5.23797,5881
5.23998,205589
5.24438,5887
5.24642,204761
5.25082,5890
5.25285,202216
5.25725,5884
5.25928,204588
5.26368,5856
5.26570,202428
5.27012,5857
5.27213,202410
5.27655,5838
5.27857,202994
5.28297,5833
5.28500,204012
5.28940,5849
5.29143,200720
5.29583,5788
5.29787,202750
5.30227,5824
5.30428,203700
5.30870,5784
5.31072,200501
5.31513,5806
5.31715,204603
5.32155,5798
5.32358,201508
5.32798,5755
5.33002,200596
5.33442,5793
5.33645,202230
5.34085,5765
5.34287,202175
5.34728,5808
5.34930,202631
5.35372,5786
5.35573,200660
5.36013,5755
5.36217,200379
5.36657,5778
5.36860,198704
5.37300,5762
5.37503,200605
5.37943,5748
5.38145,199561
5.38587,5735
5.38788,197950
5.39228,5750
5.39432,199967
5.39872,5741
5.40075,195840
5.40515,5734
5.40718,198225
5.41158,5711
5.41362,195142
5.41802,5749
5.42003,197728
5.42445,5708
5.42647,195941
5.43087,5706
5.43290,196675
5.43730,5676
5.43933,195719
5.44373,5674
5.44577,194367
5.45017,5678
5.45220,194438
5.45660,5676
5.45862,194058
5.46303,5645
5.46505,196321
5.46945,5664
5.47148,194463
5.47588,5639
5.47792,194958
5.48232,5648
5.48435,193727
5.48875,5644
5.49078,194461
5.49518,5589
5.49720,193160
5.50162,5666
5.50363,193253
5.50803,5627
5.51007,192975
5.51447,5616
5.51650,191669
5.52090,5580
5.52293,192232
5.52733,5620
5.52937,193019
5.53377,5569
5.53578,191717
5.54020,5635
5.54222,191550
5.54662,5556
5.54865,193460
5.55305,5591
5.55508,189818
5.55948,5557
5.56152,194599
5.56592,5629
5.56795,204452
5.57235,5783
5.57437,215884
5.57878,5727
5.58080,208765
5.58520,5637
5.58723,200029
5.59163,5567
5.59367,192835
5.59807,5550
5.60010,188867
5.60450,5521
5.60652,190172
5.61093,5534
5.61295,190861
5.61737,5482
5.61938,190016
5.62378,5535
5.62582,189723
5.63022,5521
5.63225,189061
5.63665,5526
5.63868,192891
5.64308,5496
5.64510,190303
5.64952,5505
5.65153,190029
5.65595,5476
5.65797,189796
5.66237,5471
5.66440,188366
5.66880,5502
5.67083,188260
5.67523,5486
5.67727,188916
5.68167,5457
5.68368,188993
5.68810,5463
5.69012,187801
5.69453,5455
5.69655,186764
5.70095,5452
5.70298,189429
5.70738,5487
5.70942,187071
5.71382,5447
5.71585,186528
5.72025,5476
5.72227,188444
5.72668,5468
5.72870,187424
5.73312,5452
5.73513,186694
5.73953,5402
5.74157,187270
5.74597,5402
5.74800,187053
5.75240,5395
5.75443,185188
5.75883,5402
5.76085,185196
5.76527,5407
5.76728,185778
5.77170,5425
5.77372,185999
5.77812,5390
5.78015,185507
5.78455,5394
5.78658,185896
5.79098,5388
5.79302,182654
5.79742,5413
5.79943,184349
5.80385,5358
5.80587,184442
5.81028,5362
5.81230,182257
5.81670,5412
5.81873,183961
5.82313,5366
5.82517,183667
5.82957,5376
5.83160,182922
5.83600,5340
5.83802,182458
5.84243,5322
5.84445,182664
5.84887,5395
5.85088,181929
5.85528,5338
5.85732,181958
5.86172,5369
5.86375,183658
5.86815,5330
5.87018,182939
5.87458,5315
5.87660,182192
5.88102,5314
5.88303,182350
5.88745,5353
5.88947,181688
5.89387,5286
5.89590,181360
5.90030,5301
5.90233,181450
5.90673,5332
5.90877,182844
5.91317,5322
5.91518,181276
5.91960,5282
5.92162,180288
5.92603,5300
5.92805,181358
5.93245,5337
5.93448,180943
5.93888,5262
5.94092,180094
5.94532,5292
5.94735,179563
5.95175,5285
5.95377,179683
5.95818,5288
5.96020,181513
5.96462,5304
5.96663,180791
5.97103,5269
5.97307,180728
5.97747,5293
5.97950,181309
5.98390,5249
5.98593,179199
5.99033,5267
5.99235,180480
5.99677,5236
5.99878,179854
6.00320,5262
6.00522,181047
6.00962,5220
6.01165,183069
6.01605,5237
6.01808,180270
6.02248,5238
6.02452,181513
6.02892,5258
6.03093,178494
6.03535,5245
6.03737,178907
6.04178,5209
6.04380,178356
6.04820,5230
6.05023,179564
6.05463,5194
6.05667,178170
6.06107,5224
6.06310,177620
6.06750,5241
6.06952,177068
6.07393,5214
6.07595,177179
6.08037,5198
6.08238,177734
6.08678,5187
6.08882,178737
6.09322,5201
6.09525,180055
6.09965,5183
6.10168,182397
6.10608,5230
6.10810,182483
6.11252,5230
6.11453,180920
6.11895,5204
6.12097,182174
6.12537,5203
6.12740,179770
6.13180,5216
6.13383,180376
6.13823,5161
6.14027,176681
6.14467,5147
6.14668,177000
6.15110,5179
6.15312,177553
6.15753,5163
6.15955,176802
6.16395,5140
6.16598,175025
6.17038,5138
6.17242,176415
6.17682,5090
6.17885,175625
6.18325,5149
6.18527,175475
6.18968,5130
6.19170,176491
6.19612,5122
6.19813,176626
6.20253,5082
6.20457,175641
6.20897,5141
6.21100,174489
6.21540,5079
6.21743,176151
6.22183,5118
6.22385,176572
6.22827,5115
6.23028,173047
6.23470,5115
6.23672,173751
6.24112,5099
6.24315,173074
6.24755,5091
6.24958,173009
6.25398,5085
6.25602,172649
6.26042,5073
6.26243,173062
6.26685,5092
6.26887,173856
6.27328,5071
6.27530,174907
6.27970,5058
6.28173,171261
6.28613,5076
6.28817,172026
6.29257,5057
6.29460,171985
6.29900,5047
6.30102,173228
6.30543,5072
6.30745,171803
6.31187,5064
6.31388,172314
6.31828,5072
6.32032,174875
6.32472,5062
6.32675,175688
6.33115,5066
6.33318,171716
6.33758,5121
6.33960,172031
6.34402,5090
6.34603,173132
6.35045,5083
6.35247,171644
6.35687,5020
6.35890,173750
6.36330,5091
6.36533,170752
6.36973,5069
6.37177,173310
6.37617,5041
6.37818,172163
6.38260,5056
6.38462,171260
6.38903,5043
6.39105,168993
6.39545,4988
6.39748,170980
6.40188,5031
6.40392,170591
6.40832,5027
6.41035,171525
6.41475,5010
6.41677,168877
6.42118,5018
6.42320,171267
6.42762,5014
6.42963,170083
6.43403,5023
6.43607,168077
6.44047,5012
6.44250,169621
6.44690,4990
6.44893,169232
6.45333,4994
6.45535,168871
6.45977,4998
6.46178,170265
6.46620,4984
6.46822,168976
6.47262,4990
6.47465,169755
6.47905,4969
6.48108,168786
6.48548,4950
6.48752,168350
6.49192,4992
6.49393,168970
6.49835,5002
6.50037,168384
6.50478,4941
6.50680,167452
6.51120,4980
6.51323,169296
6.51763,4963
6.51967,167180
6.52407,4973
6.52610,167760
6.53050,4933
6.53252,168114
6.53693,4962
6.53895,169644
6.54337,4928
6.54538,165957
6.54978,4935
6.55182,166081
6.55622,4917
6.55825,170241
6.56265,4955
6.56468,167987
6.56908,4946
6.57110,165752
6.57552,4950
6.57753,167860
6.58195,4923
6.58397,167254
6.58837,4920
6.59040,166161
6.59480,4899
6.59683,166524
6.60123,4934
6.60327,168407
6.60767,4882
6.60968,167455
6.61410,4910
6.61612,167004
6.62053,4939
6.62255,166520
6.62695,4879
6.62898,167842
6.63338,4890
6.63542,167248
6.63982,4894
6.64185,167932
6.64625,4890
6.64827,167038
6.65268,4907
6.65470,167117
6.65910,4899
6.66113,168007
6.66553,4881
6.66757,166024
6.67197,4882
6.67400,167774
6.67840,4881
6.68043,164711
6.68483,4859
6.68685,167162
6.69127,4862
6.69328,165593
6.69768,4867
6.69972,167284
6.70412,4914
6.70615,173380
6.71055,4943
6.71258,175030
6.71698,4909
6.71902,170455
6.72342,4879
6.72543,167239
6.72985,4836
6.73187,163319
6.73627,4849
6.73830,162978
6.74270,4869
6.74473,165556
6.74913,4845
6.75117,164752
6.75557,4853
6.75760,163492
6.76200,4849
6.76402,165222
6.76843,4861
6.77045,168226
6.77485,4837
6.77688,163662
6.78128,4858
6.78332,165649
6.78772,4827
6.78975,164223
6.79415,4822
6.79618,166567
6.80058,4804
6.80260,162367
6.80702,4826
6.80903,163867
6.81343,4838
6.81547,163666
6.81987,4839
6.82190,164734
6.82630,4826
6.82833,163702
6.83273,4786
6.83477,162904
6.83917,4805
6.84118,162694
6.84560,4804
6.84762,162098
6.85202,4802
6.85405,161900
6.85845,4800
6.86048,162195
6.86488,4762
6.86692,164667
6.87132,4790
6.87335,165534
6.87775,4810
6.87977,162425
6.88418,4774
6.88620,163416
6.89060,4783
6.89263,163133
6.89703,4821
6.89907,162833
6.90347,4758
6.90550,161481
6.90990,4784
6.91192,162358
6.91633,4749
6.91835,164285
6.92277,4763
6.92478,163369
6.92918,4765
6.93122,158762
6.93562,4743
6.93765,162352
6.94205,4754
6.94408,161168
6.94848,4788
6.95050,159710
6.95492,4777
6.95693,161424
6.96135,4763
6.96337,161804
6.96777,4768
6.96980,161813
6.97420,4770
6.97623,161625
6.98063,4733
6.98267,160230
6.98707,4760
6.98908,161990
6.99350,4748
6.99552,162052
6.99993,4729
7.00195,162484
7.00635,4727
7.00838,162916
7.01278,4741
7.01482,163118
7.01922,4745
7.02125,163393
7.02565,4753
7.02767,160470
7.03208,4700
7.03410,161658
7.03852,4725
7.04053,161698
7.04493,4691
7.04697,161456
7.05137,4722
7.05340,160106
7.05780,4711
7.05983,159785
7.06423,4695
7.06625,160952
7.07067,4759
7.07268,160639
7.07710,4725
7.07912,159998
7.08352,4700
7.08555,160382
7.08995,4721
7.09198,159986
7.09638,4675
7.09842,159479
7.10282,4694
7.10483,159202
7.10925,4699
7.11127,158322
7.11568,4679
7.11770,160127
7.12210,4690
7.12413,161426
7.12853,4711
7.13057,160138
7.13497,4669
7.13700,159182
7.14140,4699
7.14342,158855
7.14783,4700
7.14985,159855
7.15427,4685
7.15628,159265
7.16068,4721
7.16272,159637
7.16712,4682
7.16915,159052
7.17355,4670
7.17558,158124
7.17998,4637
7.18200,159168
7.18642,4693
7.18843,159571
7.19285,4653
7.19487,159522
7.19927,4672
7.20130,159540
7.20570,4670
7.20773,159385
7.21213,4680
7.21417,160910
7.21857,4674
7.22058,157782
7.22500,4652
7.22702,158973
7.23143,4705
7.23345,159456
7.23785,4680
7.23988,157466
7.24428,4644
7.24632,158841
7.25072,4667
7.25275,157582
7.25715,4663
7.25917,156165
7.26358,4635
7.26560,159595
7.27002,4651
7.27203,157975
7.27643,4654
7.27847,157965
7.28287,4634
7.28490,157333
7.28930,4678
7.29133,159670
7.29573,4653
7.29775,158208
7.30217,4678
7.30418,159410
7.30860,4655
7.31062,158580
7.31502,4640
7.31705,159902
7.32145,4646
7.32348,158048
7.32788,4613
7.32992,157727
7.33432,4628
7.33633,157781
7.34075,4624
7.34277,158047
7.34718,4630
7.34920,157503
7.35360,4628
7.35563,158224
7.36003,4628
7.36207,159187
7.36647,4615
7.36850,159414
7.37290,4635
7.37492,157970
7.37933,4613
7.38135,156796
7.38577,4605
7.38778,159070
7.39218,4588
7.39422,158106
7.39862,4631
7.40065,157702
7.40505,4589
7.40708,156813
7.41148,4633
7.41350,156059
7.41792,4633
7.41993,155778
7.42435,4613
7.42637,157451
7.43077,4622
7.43280,157115
7.43720,4616
7.43923,157793
7.44363,4631
7.44567,156623
7.45007,4610
7.45208,156222
7.45650,4600
7.45852,156103
7.46293,4606
7.46495,159026
7.46935,4607
7.47138,156579
7.47578,4621
7.47782,157487
7.48222,4636
7.48425,158010
7.48865,4620
7.49067,157101
7.49508,4583
7.49710,156965
7.50152,4587
7.50353,156948
7.50793,4612
7.50997,158992
7.51437,4609
7.51640,157414
7.52080,4590
7.52283,156884
7.52723,4595
7.52925,159215
7.53367,4584
7.53568,156788
7.54010,4578
7.54212,157777
7.54652,4584
7.54855,157326
7.55295,4578
7.55498,157408
7.55938,4600
7.56142,157447
7.56582,4553
7.56783,156466
7.57225,4558
7.57427,156527
7.57868,4615
7.58070,157807
7.58510,4596
7.58713,159158
7.59153,4598
7.59357,157577
7.59797,4605
7.60000,155734
7.60440,4568
7.60642,158542
7.61083,4583
7.61285,157672
7.61727,4586
7.61928,157565
7.62368,4575
7.62572,156688
7.63012,4575
7.63215,159882
7.63655,4620
7.63858,158556
7.64298,4561
7.64500,157991
7.64942,4589
7.65143,157572
7.65585,4569
7.65787,158914
7.66227,4599
7.66430,158241
7.66870,4568
7.67073,157786
7.67513,4614
7.67717,158439
7.68157,4600
7.68358,158492
7.68800,4573
7.69002,159480
7.69443,4606
7.69645,157579
7.70085,4589
7.70288,157809
7.70728,4614
7.70932,161129
7.71372,4608
7.71575,160883
7.72015,4596
7.72217,162629
7.72658,4578
7.72860,161288
7.73302,4624
7.73503,163312
7.73943,4606
7.74147,161279
7.74587,4604
7.74790,159636
7.75230,4570
7.75433,158610
7.75873,4572
7.76075,157863
7.76517,4591
7.76718,156917
7.77160,4565
7.77362,156570
7.77802,4534
7.78005,155905
7.78445,4542
7.78648,153207
7.79088,4535
7.79292,155901
7.79732,4580
7.79933,155983
7.80375,4555
7.80577,155497
7.81018,4565
7.81220,155312
7.81660,4565
7.81863,155682
7.82303,4553
7.82507,155753
7.82947,4572
7.83150,154161
7.83590,4574
7.83792,157375
7.84233,4561
7.84435,157397
7.84875,4609
7.85078,162352
7.85518,4588
7.85722,161502
7.86162,4572
7.86365,159554
7.86805,4576
7.87008,160864
7.87448,4555
7.87650,156930
7.88092,4536
7.88293,155454
7.88733,4581
7.88937,157397
7.89377,4506
7.89580,155604
7.90020,4547
7.90223,156369
7.90663,4553
7.90867,159707
7.91307,4568
7.91508,164474
7.91950,4566
7.92152,169694
7.92592,4588
7.92795,167471
7.93235,4600
7.93438,162625
7.93878,4596
7.94082,158785
7.94522,4596
7.94725,158613
7.95165,4551
7.95367,158781
7.95808,4560
7.96010,158321
7.96450,4533
7.96653,158411
7.97093,4552
7.97297,158187
7.97737,4555
7.97940,156363
7.98380,4562
7.98583,155717
7.99023,4536
7.99225,158607
7.99667,4555
7.99868,154818
8.00308,4561
8.00512,154923
8.00952,4552
8.01155,156113
8.01595,4519
8.01798,157108
8.02238,4557
8.02442,156196
8.02882,4569
8.03083,157221
8.03525,4560
8.03727,157847
8.04167,4554
8.04370,156684
8.04810,4515
8.05013,156073
8.05453,4531
8.05657,155099
8.06097,4533
8.06300,156417
8.06740,4545
8.06942,154598
8.07383,4563
8.07585,153365
8.08025,4534
8.08228,156272
8.08668,4573
8.08872,156072
8.09312,4560
8.09515,154168
8.09955,4526
8.10158,156625
8.10598,4556
8.10800,157099
8.11242,4561
8.11443,156321
8.11883,4522
8.12087,156586
8.12527,4520
8.12730,158641
8.13170,4578
8.13373,156872
8.13813,4545
8.14017,154621
8.14457,4570
8.14658,154943
8.15100,4568
8.15302,156333
8.15742,4551
8.15945,157371
8.16385,4540
8.16588,155927
8.17028,4548
8.17232,158218
8.17672,4576
8.17875,155990
8.18315,4530
8.18517,157677
8.18958,4532
8.19160,155451
8.19600,4537
8.19803,156162
8.20243,4544
8.20447,156125
8.20887,4532
8.21090,158456
8.21530,4546
8.21732,157164
8.22173,4575
8.22375,158348
8.22817,4536
8.23018,157597
8.23458,4558
8.23662,156158
8.24102,4534
8.24305,159138
8.24745,4511
8.24948,158525
8.25388,4560
8.25590,156525
8.26032,4560
8.26233,155689
8.26675,4508
8.26877,157853
8.27317,4520
8.27520,157000
8.27960,4569
8.28163,157532
8.28603,4528
8.28807,158350
8.29247,4534
8.29448,156901
8.29890,4572
8.30092,159752
8.30533,4522
8.30735,160687
8.31175,4571
8.31378,161274
8.31818,4549
8.32022,161967
8.32462,4518
8.32665,159376
8.33105,4536
8.33307,158884
8.33748,4540
8.33950,157538
8.34392,4559
8.34593,160032
8.35033,4566
8.35237,158018
8.35677,4527
8.35880,157234
8.36320,4540
8.36523,156831
8.36963,4547
8.37165,158117
8.37607,4534
8.37808,158910
8.38250,4556
8.38452,158397
8.38892,4543
8.39095,156146
8.39535,4552
8.39738,159115
8.40178,4570
8.40382,156395
8.40822,4557
8.41023,157885
8.41465,4597
8.41667,156348
8.42108,4547
8.42310,156307
8.42750,4529
8.42953,159228
8.43393,4561
8.43597,158815
8.44037,4546
8.44240,157043
8.44680,4572
8.44882,158527
8.45323,4530
8.45525,158185
8.45967,4562
8.46168,157516
8.46608,4573
8.46812,159420
8.47252,4532
8.47455,157833
8.47895,4540
8.48098,158779
8.48538,4569
8.48740,159862
8.49182,4577
8.49383,159175
8.49825,4554
8.50467,4558
