RT (min),220.0
0.0052,-0.0004246830940246582
0.011866666666666666,-0.008046627044677734
0.018533333333333332,-0.021882355213165283
0.0252,-0.035002827644348145
0.03186666666666667,-0.0505298376083374
0.038533333333333336,-0.0679120421409607
0.0452,-0.07918477058410645
0.051866666666666665,-0.08022040128707886
0.05853333333333333,-0.07552653551101685
0.0652,-0.07352232933044434
0.07186666666666666,-0.07493793964385986
0.07853333333333333,-0.07802993059158325
0.0852,-0.08222460746765137
0.09186666666666667,-0.08741021156311035
0.09853333333333333,-0.09289383888244629
0.1052,-0.09791553020477295
0.11186666666666667,-0.10172277688980103
0.11853333333333334,-0.1044049859046936
0.1252,-0.10633468627929688
0.13186666666666666,-0.1079663634300232
0.13853333333333334,-0.10985136032104492
0.1452,-0.11261552572250366
0.15186666666666668,-0.11666864156723022
0.15853333333333333,-0.12128055095672607
0.1652,-0.12539327144622803
0.17186666666666667,-0.1278892159461975
0.17853333333333332,-0.12823939323425293
0.1852,-0.12652575969696045
0.19186666666666666,-0.12323260307312012
0.19853333333333334,-0.11923909187316895
0.2052,-0.11533498764038086
0.21186666666666668,-0.11220574378967285
0.21853333333333333,-0.10956823825836182
0.2252,-0.10675191879272461
0.23186666666666667,-0.10334700345993042
0.23853333333333335,-0.09953975677490234
0.2452,-0.09541958570480347
0.2518666666666667,-0.09075552225112915
0.25853333333333334,-0.08620321750640869
0.2652,-0.08083879947662354
0.27186666666666665,-0.0722929835319519
0.27853333333333335,-0.0630989670753479
0.2852,-0.07129460573196411
0.29186666666666666,-0.1276358962059021
0.2985333333333333,-0.2595633268356323
0.3052,-0.47976523637771606
0.3118666666666667,-0.7788985967636108
0.31853333333333333,-1.1164844036102295
0.3252,-1.417502760887146
0.33186666666666664,-1.5999823808670044
0.33853333333333335,-1.6162917017936707
0.3452,-1.4691203832626343
0.35186666666666666,-1.1992380023002625
0.3585333333333333,-0.8688569068908691
0.3652,-0.5489513278007507
0.3718666666666667,-0.2973303198814392
0.37853333333333333,-0.13642758131027222
0.3852,-0.05295872688293457
0.39186666666666664,-0.018037855625152588
0.39853333333333335,-0.006712973117828369
0.4052,-0.004507601261138916
0.41186666666666666,-0.004902482032775879
0.4185333333333333,-0.005073845386505127
0.4252,0.005327165126800537
0.4318666666666667,0.0720098614692688
0.43853333333333333,0.26673823595046997
0.4452,0.6107985973358154
0.4518666666666667,1.029781997203827
0.45853333333333335,1.404494047164917
0.4652,1.659490168094635
0.47186666666666666,1.7582029104232788
0.4785333333333333,1.664876937866211
0.4852,1.38748437166214
0.4918666666666667,1.0175034403800964
0.49853333333333333,0.6834566593170166
0.5052,0.45999884605407715
0.5118666666666667,0.3508925437927246
0.5185333333333333,0.3311261534690857
0.5252,0.3674924373626709
0.5318666666666667,0.42326003313064575
0.5385333333333333,0.4697740077972412
0.5452,0.4995986819267273
0.5518666666666666,0.5290359258651733
0.5585333333333333,0.5851313471794128
0.5652,0.682242214679718
0.5718666666666666,0.8139088749885559
0.5785333333333333,0.9679868817329407
0.5852,1.1454224586486816
0.5918666666666667,1.3404563069343567
0.5985333333333334,1.5265196561813354
0.6052,1.6578957438468933
0.6118666666666667,1.544274389743805
0.6185333333333334,0.804215669631958
0.6252,-0.8264034986495972
0.6318666666666667,-3.215581178665161
0.6385333333333333,-5.904495716094971
0.6452,-8.422739803791046
0.6518666666666667,-10.169781744480133
0.6585333333333333,-10.153308510780334
0.6652,-7.253855466842651
0.6718666666666666,-1.306295394897461
0.6785333333333333,5.987085402011871
0.6852,12.34292984008789
0.6918666666666666,16.313381493091583
0.6985333333333333,17.7602618932724
0.7052,16.62375032901764
0.7118666666666666,12.975580990314484
0.7185333333333334,8.18554311990738
0.7252,4.139505326747894
0.7318666666666667,1.9075125455856323
0.7385333333333334,1.0424479842185974
0.7452,0.7346346974372864
0.7518666666666667,0.580519437789917
0.7585333333333333,0.4375278949737549
0.7652,0.272601842880249
0.7718666666666667,0.0904276967048645
0.7785333333333333,-0.09018927812576294
0.7852,-0.24563074111938477
0.7918666666666667,-0.3566816449165344
0.7985333333333333,-0.41494518518447876
0.8052,-0.4249885678291321
0.8118666666666666,-0.40012598037719727
0.8185333333333333,-0.3563910722732544
0.8252,-0.3079026937484741
0.8318666666666666,-0.2641230821609497
0.8385333333333334,-0.22970885038375854
0.8452,-0.20431727170944214
0.8518666666666667,-0.18393248319625854
0.8585333333333334,-0.16418099403381348
0.8652,-0.1433044672012329
0.8718666666666667,-0.12259185314178467
0.8785333333333334,-0.10433793067932129
0.8852,-0.09017437696456909
0.8918666666666667,-0.08095800876617432
0.8985333333333333,-0.07683783769607544
0.9052,-0.07604062557220459
0.9118666666666667,-0.07507205009460449
0.9185333333333333,-0.0710412859916687
0.9252,-0.06323307752609253
0.9318666666666666,-0.05300343036651611
0.9385333333333333,-0.04205852746963501
0.9452,-0.03186613321304321
0.9518666666666666,-0.02316385507583618
0.9585333333333333,-0.015586614608764648
0.9652,-0.008381903171539307
0.9718666666666667,-0.0009834766387939453
0.9785333333333334,0.0073015689849853516
0.9852,0.01744180917739868
0.9918666666666667,0.030606985092163086
0.9985333333333334,0.04751235246658325
1.0052,0.0686943531036377
1.0118666666666667,0.0944286584854126
1.0185333333333333,0.12459605932235718
1.0252,0.15895068645477295
1.0318666666666667,0.1968592405319214
1.0385333333333333,0.23741275072097778
1.0452,0.2797618508338928
1.0518666666666667,0.3239363431930542
1.0585333333333333,0.3700852394104004
1.0652,0.418052077293396
1.0718666666666667,0.46703964471817017
1.0785333333333333,0.516250729560852
1.0852,0.5646049976348877
1.0918666666666668,0.6106644868850708
1.0985333333333334,0.6532147526741028
1.1052,0.6912723183631897
1.1118666666666666,0.7245317101478577
1.1185333333333334,0.7528737187385559
1.1252,0.7760226726531982
1.1318666666666666,0.7928609848022461
1.1385333333333334,0.8021369576454163
1.1452,0.803142786026001
1.1518666666666666,0.7958337664604187
1.1585333333333334,0.7806047797203064
1.1652,0.7583945989608765
1.1718666666666666,0.7308498024940491
1.1785333333333334,0.6994232535362244
1.1852,0.6649047136306763
1.1918666666666666,0.6277784705162048
1.1985333333333332,0.5884692072868347
1.2052,0.5472376942634583
1.2118666666666666,0.5041584372520447
1.2185333333333332,0.45974552631378174
1.2252,0.415802001953125
1.2318666666666667,0.37419795989990234
1.2385333333333333,0.3360062837600708
1.2452,0.30177831649780273
1.2518666666666667,0.2724453806877136
1.2585333333333333,0.24949759244918823
1.2652,0.23346394300460815
1.2718666666666667,0.22474676370620728
1.2785333333333333,0.22449344396591187
1.2852,0.23412704467773438
1.2918666666666667,0.25466829538345337
1.2985333333333333,0.2858787775039673
1.3052,0.3272891044616699
1.3118666666666667,0.37775933742523193
1.3185333333333333,0.4358440637588501
1.3252,0.5004480481147766
1.3318666666666668,0.5715638399124146
1.3385333333333334,0.6501749157905579
1.3452,0.7374808192253113
1.3518666666666668,0.8344501256942749
1.3585333333333334,0.9413808584213257
1.3652,1.0574907064437866
1.3718666666666666,1.180112361907959
1.3785333333333334,1.3062134385108948
1.3852,1.433826982975006
1.3918666666666666,1.56296044588089
1.3985333333333334,1.6951113939285278
1.4052,1.8320083618164062
1.4118666666666666,1.9743368029594421
1.4185333333333334,2.1206215023994446
1.4252,2.266518771648407
1.4318666666666666,2.4070441722869873
1.4385333333333334,2.5377050042152405
1.4452,2.657100558280945
1.4518666666666666,2.7677640318870544
1.4585333333333332,2.8746649622917175
1.4652,2.98280268907547
1.4718666666666667,3.0937641859054565
1.4785333333333333,3.2048597931861877
1.4852,3.30960750579834
1.4918666666666667,3.4005939960479736
1.4985333333333333,3.473028540611267
1.5052,3.527440130710602
1.5118666666666667,3.5692304372787476
1.5185333333333333,3.6062896251678467
1.5252,3.644876182079315
1.5318666666666667,3.68596613407135
1.5385333333333333,3.724530339241028
1.5452,3.7518590688705444
1.5518666666666667,3.7601813673973083
1.5585333333333333,3.74700129032135
1.5652,3.71677428483963
1.5718666666666667,3.679439425468445
1.5785333333333333,3.6457106471061707
1.5852,3.6216750741004944
1.5918666666666668,3.6058276891708374
1.5985333333333334,3.590293228626251
1.6052,3.5654380917549133
1.6118666666666666,3.5251379013061523
1.6185333333333334,3.4698471426963806
1.6252,3.4072622656822205
1.6318666666666666,3.349006175994873
1.6385333333333334,3.304421901702881
1.6452,3.2756030559539795
1.6518666666666666,3.256477415561676
1.6585333333333334,3.2373815774917603
1.6652,3.2097846269607544
1.6718666666666666,3.1709298491477966
1.6785333333333334,3.1261667609214783
1.6852,3.0868500471115112
1.6918666666666666,3.0647963285446167
1.6985333333333332,3.0656978487968445
1.7052,3.0868351459503174
1.7118666666666666,3.11838835477829
1.7185333333333332,3.1481608748435974
1.7252,3.168143332004547
1.7318666666666667,3.1789392232894897
1.7385333333333333,3.1893551349639893
1.7452,3.2120496034622192
1.7518666666666667,3.257051110267639
1.7585333333333333,3.3266767859458923
1.7652,3.413587808609009
1.7718666666666667,3.5041645169258118
1.7785333333333333,3.5858154296875
1.7852,3.6531761288642883
1.7918666666666667,3.7109479308128357
1.7985333333333333,3.7711039185523987
1.8052,3.846198320388794
1.8118666666666667,3.9421245455741882
1.8185333333333333,4.0543824434280396
1.8252,4.169799387454987
1.8318666666666668,4.2727068066596985
1.8385333333333334,4.352383315563202
1.8452,4.409275949001312
1.8518666666666668,4.454173147678375
1.8585333333333334,4.501886665821075
1.8652,4.562102258205414
1.8718666666666666,4.633717238903046
1.8785333333333334,4.705518484115601
1.8852,4.761092364788055
1.8918666666666666,4.787623882293701
1.8985333333333334,4.783019423484802
1.9052,4.757359623908997
1.9118666666666666,4.727303981781006
1.9185333333333334,4.706680774688721
1.9252,4.699200391769409
1.9318666666666666,4.696346819400787
1.9385333333333334,4.681341350078583
1.9452,4.638224840164185
1.9518666666666666,4.560783505439758
1.9585333333333332,4.456155002117157
1.9652,4.340924322605133
1.9718666666666667,4.232205450534821
1.9785333333333333,4.138782620429993
1.9852,4.056908190250397
1.9918666666666667,3.9730966091156006
1.9985333333333333,3.8709789514541626
2.0052,3.7400200963020325
2.0118666666666667,3.5815536975860596
2.0185333333333335,3.4083202481269836
2.0252,3.2371729612350464
2.0318666666666667,3.0787289142608643
2.0385333333333335,2.9331371188163757
2.0452,2.791278064250946
2.0518666666666667,2.640165388584137
2.0585333333333335,2.4705156683921814
2.0652,2.2821351885795593
2.0718666666666667,2.0850151777267456
2.078533333333333,1.8933787941932678
2.0852,1.717887818813324
2.0918666666666668,1.5610381960868835
2.098533333333333,1.4160796999931335
2.1052,1.271367073059082
2.111866666666667,1.1170655488967896
2.118533333333333,0.951424241065979
2.1252,0.7822737097740173
2.131866666666667,0.6223022937774658
2.138533333333333,0.4827231168746948
2.1452,0.36790966987609863
2.151866666666667,0.27392804622650146
2.158533333333333,0.19065290689468384
2.1652,0.10801106691360474
2.171866666666667,0.022105872631072998
2.178533333333333,-0.06233900785446167
2.1852,-0.13522803783416748
2.191866666666667,-0.18708407878875732
2.1985333333333332,-0.2142488956451416
2.2052,-0.22221356630325317
2.211866666666667,-0.22429227828979492
2.2185333333333332,-0.23670494556427002
2.2252,-0.2713054418563843
2.231866666666667,-0.3304407000541687
2.2385333333333333,-0.40652602910995483
2.2452,-0.48635900020599365
2.2518666666666665,-0.5580335855484009
2.2585333333333333,-0.616028904914856
2.2652,-0.6627514958381653
2.2718666666666665,-0.7066577672958374
2.2785333333333333,-0.7574558258056641
2.2852,-0.8210241794586182
2.2918666666666665,-0.8966401219367981
2.2985333333333333,-0.9777769446372986
2.3052,-1.056663691997528
2.3118666666666665,-1.1288449168205261
2.3185333333333333,-1.196637749671936
2.3252,-1.267075538635254
2.3318666666666665,-1.3478845357894897
2.3385333333333334,-1.443803310394287
2.3452,-1.5546008944511414
2.3518666666666665,-1.674756407737732
2.3585333333333334,-1.7947033047676086
2.3652,-1.9070804119110107
2.3718666666666666,-2.0109787583351135
2.3785333333333334,-2.111561596393585
2.3852,-2.2165924310684204
2.3918666666666666,-2.33304500579834
2.3985333333333334,-2.465188503265381
2.4052,-2.612084150314331
2.4118666666666666,-2.7676820755004883
2.4185333333333334,-2.924978733062744
2.4252,-3.0794665217399597
2.4318666666666666,-3.2309740781784058
2.4385333333333334,-3.3824220299720764
2.4452,-3.5379230976104736
2.4518666666666666,-3.700561821460724
2.4585333333333335,-3.8704723119735718
2.4652,-4.044584929943085
2.4718666666666667,-4.217781126499176
2.4785333333333335,-4.385493695735931
2.4852,-4.546023905277252
2.4918666666666667,-4.700802266597748
2.4985333333333335,-4.853367805480957
2.5052,-5.007229745388031
2.5118666666666667,-5.165331065654755
2.5185333333333335,-5.329295992851257
2.5252,-5.496762692928314
2.5318666666666667,-5.662247538566589
2.5385333333333335,-5.819931626319885
2.5452,-5.967758595943451
2.5518666666666667,-6.106644868850708
2.5585333333333335,-6.237313151359558
2.5652,-6.360642611980438
2.5718666666666667,-6.478242576122284
2.578533333333333,-6.5919384360313416
2.5852,-6.702519953250885
2.5918666666666668,-6.809331476688385
2.598533333333333,-6.911911070346832
2.6052,-7.011733949184418
2.611866666666667,-7.111899554729462
2.618533333333333,-7.215321063995361
2.6252,-7.322199642658234
2.631866666666667,-7.430151104927063
2.638533333333333,-7.536143064498901
2.6452,-7.638201117515564
2.651866666666667,-7.736116647720337
2.658533333333333,-7.831752300262451
2.6652,-7.928021252155304
2.671866666666667,-8.027218282222748
2.678533333333333,-8.130304515361786
2.6852,-8.237093687057495
2.691866666666667,-8.346401154994965
2.6985333333333332,-8.455350995063782
2.7052,-8.560188114643097
2.711866666666667,-8.658409118652344
2.7185333333333332,-8.749276399612427
2.7252,-8.832916617393494
2.731866666666667,-8.910484611988068
2.7385333333333333,-8.984364569187164
2.7452,-9.057894349098206
2.7518666666666665,-9.134270250797272
2.7585333333333333,-9.215816855430603
2.7652,-9.303949773311615
2.7718666666666665,-9.398408234119415
2.7785333333333333,-9.497657418251038
2.7852,-9.6001997590065
2.7918666666666665,-9.705722332000732
2.7985333333333333,-9.814076125621796
2.8052,-9.918212890625
2.8118666666666665,-9.998500347137451
2.8185333333333333,-10.036647319793701
2.8252,-10.041244328022003
2.8318666666666665,-10.048039257526398
2.8385333333333334,-10.091014206409454
2.8452,-10.18359512090683
2.8518666666666665,-10.331861674785614
2.8585333333333334,-10.540470480918884
2.8652,-10.793052613735199
2.8718666666666666,-11.048853397369385
2.8785333333333334,-11.270768940448761
2.8852,-11.450104415416718
2.8918666666666666,-11.599026620388031
2.8985333333333334,-11.731088161468506
2.9052,-11.854611337184906
2.9118666666666666,-11.974871158599854
2.9185333333333334,-12.095779180526733
2.9252,-12.219510972499847
2.9318666666666666,-12.346155941486359
2.9385333333333334,-12.473464012145996
2.9452,-12.598320841789246
2.9518666666666666,-12.718364596366882
2.9585333333333335,-12.8326416015625
2.9652,-12.94255256652832
2.9718666666666667,-13.050921261310577
2.9785333333333335,-13.160832226276398
2.9852,-13.274185359477997
2.9918666666666667,-13.39053362607956
2.9985333333333335,-13.50758969783783
3.0052,-13.622112572193146
3.0118666666666667,-13.731703162193298
3.0185333333333335,-13.836026191711426
3.0252,-13.936646282672882
3.0318666666666667,-14.036163687705994
3.0385333333333335,-14.136753976345062
3.0452,-14.239177107810974
3.0518666666666667,-14.342382550239563
3.0585333333333335,-14.443978667259216
3.0652,-14.541730284690857
3.0718666666666667,-14.63499665260315
3.078533333333333,-14.725178480148315
3.0852,-14.815226197242737
3.0918666666666668,-14.90812748670578
3.098533333333333,-15.005506575107574
3.1052,-15.106260776519775
3.111866666666667,-15.207663178443909
3.118533333333333,-15.306949615478516
3.1252,-15.40251076221466
3.131866666666667,-15.494510531425476
3.138533333333333,-15.584893524646759
3.1452,-15.677087008953094
3.151866666666667,-15.773728489875793
3.158533333333333,-15.875622630119324
3.1652,-15.981338918209076
3.171866666666667,-16.087912023067474
3.178533333333333,-16.192764043807983
3.1852,-16.294807195663452
3.191866666666667,-16.395434737205505
3.1985333333333332,-16.497090458869934
3.2052,-16.60212129354477
3.211866666666667,-16.712002456188202
3.2185333333333332,-16.825959086418152
3.2252,-16.941584646701813
3.231866666666667,-17.055481672286987
3.2385333333333333,-17.165429890155792
3.2452,-17.271466553211212
3.2518666666666665,-17.375290393829346
3.2585333333333333,-17.479978501796722
3.2652,-17.588041722774506
3.2718666666666665,-17.70073175430298
3.2785333333333333,-17.817027866840363
3.2852,-17.934300005435944
3.2918666666666665,-18.05005967617035
3.2985333333333333,-18.163204193115234
3.3052,-18.274202942848206
3.3118666666666665,-18.38451623916626
3.3185333333333333,-18.496349453926086
3.3252,-18.611259758472443
3.3318666666666665,-18.729299306869507
3.3385333333333334,-18.848150968551636
3.3452,-18.965162336826324
3.3518666666666665,-19.07867193222046
3.3585333333333334,-19.188806414604187
3.3652,-19.29771900177002
3.3718666666666666,-19.408203661441803
3.3785333333333334,-19.52272653579712
3.3852,-19.641846418380737
3.3918666666666666,-19.76390928030014
3.3985333333333334,-19.8855921626091
3.4052,-20.003534853458405
3.4118666666666666,-20.116344094276428
3.4185333333333334,-20.22499591112137
3.4252,-20.33185213804245
3.4318666666666666,-20.43967694044113
3.4385333333333334,-20.550541579723358
3.4452,-20.664311945438385
3.4518666666666666,-20.778074860572815
3.4585333333333335,-20.888447761535645
3.4652,-20.99405974149704
3.4718666666666667,-21.096013486385345
3.4785333333333335,-21.196328103542328
3.4852,-21.297916769981384
3.4918666666666667,-21.40399068593979
3.4985333333333335,-21.515972912311554
3.5052,-21.632418036460876
3.5118666666666667,-21.74973487854004
3.5185333333333335,-21.86524122953415
3.5252,-21.977752447128296
3.5318666666666667,-22.087670862674713
3.5385333333333335,-22.196702659130096
3.5452,-22.307001054286957
3.5518666666666667,-22.420257329940796
3.5585333333333335,-22.53611385822296
3.5652,-22.652268409729004
3.5718666666666667,-22.766202688217163
3.578533333333333,-22.87638932466507
3.5852,-22.982917726039886
3.5918666666666668,-23.08720350265503
3.598533333333333,-23.191705346107483
3.6052,-23.298978805541992
3.611866666666667,-23.409850895404816
3.618533333333333,-23.523040115833282
3.6252,-23.635923862457275
3.631866666666667,-23.746192455291748
3.638533333333333,-23.85289967060089
3.6452,-23.9570289850235
3.651866666666667,-24.06056970357895
3.658533333333333,-24.165727198123932
3.6652,-24.274028837680817
3.671866666666667,-24.385415017604828
3.678533333333333,-24.497956037521362
3.6852,-24.608410894870758
3.691866666666667,-24.714864790439606
3.6985333333333332,-24.81721341609955
3.7052,-24.91714060306549
3.711866666666667,-25.016501545906067
3.7185333333333332,-25.117002427577972
3.7252,-25.219492614269257
3.731866666666667,-25.323212146759033
3.7385333333333333,-25.4262313246727
3.7452,-25.526374578475952
3.7518666666666665,-25.623098015785217
3.7585333333333333,-25.715768337249756
3.7652,-25.80443024635315
3.7718666666666665,-25.891266763210297
3.7785333333333333,-25.979921221733093
3.7852,-26.072844862937927
3.7918666666666665,-26.16944909095764
3.7985333333333333,-26.268750429153442
3.8052,-26.37028694152832
3.8118666666666665,-26.472441852092743
3.8185333333333333,-26.57371759414673
3.8252,-26.674330234527588
3.8318666666666665,-26.77619457244873
3.8385333333333334,-26.88080072402954
3.8452,-26.98712795972824
3.8518666666666665,-27.092628180980682
3.8585333333333334,-27.194373309612274
3.8652,-27.29019522666931
