"SampleName","A2Rd2_01-41"
"Target Mass 1",
"Column Name","IA-3 (3um, 4.6X100)"
"Channel","QDa 1: SIR Ch2"
0.00195,569
0.003616667,650
0.005283333,709
0.00695,782
0.008616666,824
0.01028333,866
0.01195,820
0.01361667,974
0.01528333,960
0.01695,844
0.01861667,1018
0.02028333,895
0.02195,856
0.02361667,871
0.02528333,808
0.02695,868
0.02861667,1012
0.03028333,1006
0.03195,818
0.03361667,1063
0.03528333,1049
0.03695,1083
0.03861667,864
0.04028333,995
0.04195,1093
0.04361667,872
0.04528333,886
0.04695,778
0.04861667,825
0.05028334,872
0.05195,874
0.05361667,876
0.05528333,822
0.05695,872
0.05861667,828
0.06028333,785
0.06195,802
0.06361666,806
0.06528334,810
0.06695,999
0.06861667,1103
0.07028333,1092
0.07195,982
0.07361667,761
0.07528333,840
0.07695,829
0.07861666,810
0.08028334,791
0.08195,775
0.08361667,822
0.08528333,869
0.08695,919
0.08861667,863
0.09028333,806
0.09195,834
0.09361666,861
0.09528334,859
0.09695,913
0.09861667,931
0.1002833,950
0.10195,904
0.1036167,792
0.1052833,1044
0.10695,1137
0.1086167,1079
0.1102833,922
0.11195,923
0.1136167,727
0.1152833,989
0.11695,869
0.1186167,883
0.1202833,807
0.12195,745
0.1236167,1007
0.1252833,929
0.12695,887
0.1286167,905
0.1302833,923
0.13195,869
0.1336167,913
0.1352833,974
0.13695,954
0.1386167,885
0.1402833,675
0.14195,983
0.1436167,790
0.1452833,980
0.14695,561
0.1486167,695
0.1502833,838
0.15195,801
0.1536167,615
0.1552833,859
0.15695,842
0.1586167,826
0.1602833,989
0.16195,919
0.1636167,849
0.1652833,669
0.16695,691
0.1686167,856
0.1702833,657
0.17195,938
0.1736167,907
0.1752833,837
0.17695,698
0.1786167,862
0.1802833,747
0.18195,885
0.1836167,922
0.1852833,811
0.18695,849
0.1886167,936
0.1902833,930
0.19195,783
0.1936167,739
0.1952833,840
0.19695,947
0.1986167,910
0.2002833,1016
0.20195,1001
0.2036167,1060
0.2052833,907
0.20695,1028
0.2086167,1015
0.2102833,935
0.21195,889
0.2136167,889
0.2152833,925
0.21695,914
0.2186167,897
0.2202833,880
0.22195,975
0.2236167,963
0.2252833,950
0.22695,982
0.2286167,1188
0.2302833,1171
0.23195,1070
0.2336167,1119
0.2352833,1064
0.23695,1009
0.2386167,1038
0.2402833,1066
0.24195,1113
0.2436167,1088
0.2452833,997
0.24695,1121
0.2486167,1084
0.2502833,1046
0.25195,1014
0.2536167,981
0.2552833,1121
0.25695,1157
0.2586167,1203
0.2602833,1037
0.26195,973
0.2636167,1077
0.2652833,1116
0.26695,963
0.2686167,1011
0.2702833,982
0.27195,1025
0.2736167,1067
0.2752833,782
0.27695,1057
0.2786167,1034
0.2802833,951
0.28195,902
0.2836167,952
0.2852833,1003
0.28695,1012
0.2886167,970
0.2903,929
0.29195,1040
0.2936167,1003
0.2952833,1098
0.29695,1043
0.2986333,964
0.3002833,1166
0.30195,1075
0.3036167,1143
0.3052833,1073
0.30695,1084
0.3086167,1095
0.3102833,1229
0.31195,1318
0.3136167,1370
0.3153,1061
0.31695,1055
0.3186167,926
0.3202833,1073
0.32195,1114
0.3236167,1054
0.3252833,1181
0.32695,1149
0.3286167,1117
0.3302833,1192
0.33195,1210
0.3336333,1186
0.3352833,1162
0.33695,1222
0.3386167,1215
0.3403,1207
0.34195,1356
0.3436167,1406
0.3452833,1298
0.34695,1219
0.3486167,1488
0.3503,1354
0.35195,1302
0.3536167,1411
0.3553,1348
0.3569667,1284
0.3586167,1233
0.3602833,1402
0.36195,1702
0.3636167,2710
0.3653,3890
0.36695,4723
0.3686333,5266
0.3702833,4947
0.3719667,4683
0.3736333,3923
0.3752833,3122
0.37695,3052
0.3786167,1785
0.3802833,1484
0.3819667,942
0.3836167,841
0.3853,834
0.38695,769
0.3886333,455
0.3903,643
0.39195,483
0.3936167,519
0.3952833,492
0.39695,465
0.3986333,541
0.4002833,616
0.40195,664
0.4036333,927
0.4053,911
0.4069667,1099
0.4086167,1102
0.4103,1004
0.41195,930
0.4136167,932
0.4153,933
0.4169667,953
0.4186167,792
0.4203,879
0.4219667,969
0.4236333,981
0.4252833,1113
0.4269667,1047
0.4286167,1131
0.4302833,1090
0.4319667,1049
0.4336167,1021
0.4352833,1039
0.4369667,1056
0.4386333,1261
0.4403,1388
0.4419667,1283
0.4436333,1514
0.4453,1544
0.4469667,1467
0.4486333,1275
0.4503,1661
0.4519667,1751
0.4536333,1760
0.4553,1669
0.4569667,1700
0.4586333,1697
0.4603,1560
0.4619667,1708
0.4636333,1855
0.4653,1760
0.4669667,1666
0.4686333,1901
0.4703,1943
0.4719667,1424
0.4736333,1862
0.4753,1414
0.4769667,2027
0.4786333,1676
0.4803,1610
0.4819667,1449
0.4836333,1446
0.4853,1392
0.4869667,1329
0.4886333,1314
0.4903,1290
0.4919667,1241
0.4936333,1279
0.4953,1317
0.4969667,1278
0.4986333,1448
0.5003,1405
0.5019667,1415
0.5036333,1265
0.5053,1172
0.5069667,1068
0.5086333,1099
0.5103,1135
0.5119666,964
0.5136333,1006
0.5153,1054
0.5169666,972
0.5186333,979
0.5203,833
0.5219667,1054
0.5236334,1034
0.5253,1038
0.5269667,1077
0.5286334,1033
0.5303,990
0.5319667,1079
0.5336334,1125
0.5353,1200
0.5369667,1117
0.5386333,1241
0.5403,1208
0.5419667,1011
0.5436333,1172
0.5453,1082
0.5469667,1088
0.5486333,1077
0.5503,1047
0.5519667,1017
0.5536333,767
0.5553,896
0.5569667,886
0.5586333,984
0.5603,954
0.5619667,924
0.5636333,950
0.5653,893
0.5669667,946
0.5686333,998
0.5703,1077
0.5719666,1143
0.5736333,1109
0.5753,870
0.5769666,1006
0.5786333,1167
0.5803,832
0.5819666,955
0.5836333,1103
0.5853,956
0.5869667,834
0.5886334,993
0.5903,999
0.5919667,1004
0.5936334,1027
0.5953,1051
0.5969667,1069
0.5986333,874
0.6003,875
0.6019667,829
0.6036333,1029
0.6053,1054
0.6069667,1117
0.6086333,947
0.6103,908
0.6119667,1096
0.6136333,1005
0.6153,1002
0.6169667,872
0.6186333,1074
0.6203,908
0.6219667,989
0.6236333,1061
0.6253,944
0.6269667,950
0.6286333,795
0.6303,971
0.6319667,868
0.6336333,917
0.6353,967
0.6369666,893
0.6386333,980
0.6403,1003
0.6419666,943
0.6436333,1025
0.6453,916
0.6469667,982
0.6486334,1128
0.6503,1059
0.6519667,996
0.6536334,974
0.6553,892
0.6569667,870
0.6586334,785
0.6603,890
0.6619667,850
0.6636333,810
0.6653,914
0.6669667,788
0.6686333,662
0.6703,780
0.6719667,747
0.6736333,714
0.6753,789
0.6769667,841
0.6786333,892
0.6803,889
0.6819667,865
0.6836333,840
0.6853,875
0.6869667,879
0.6886333,883
0.6903,753
0.6919667,1027
0.6936333,968
0.6953,886
0.6969666,935
0.6986333,743
0.7003,991
0.7019666,919
0.7036333,1041
0.7053,788
0.7069666,993
0.7086333,863
0.7103,927
0.7119667,853
0.7136334,871
0.7153,983
0.7169667,966
0.7186334,768
0.7203,749
0.7219667,911
0.7236333,837
0.7253,724
0.7269667,791
0.7286333,970
0.7303,958
0.7319667,882
0.7336333,881
0.7353,924
0.7369667,716
0.7386333,731
0.7403,903
0.7419667,892
0.7436333,984
0.7453,965
0.7469667,947
0.7486333,991
0.7503,813
0.7519667,917
0.7536333,1020
0.7553,822
0.7569667,641
0.7586333,943
0.7603,817
0.7619666,939
0.7636333,812
0.7653,835
0.7669666,858
0.7686333,864
0.7703,871
0.7719667,927
0.7736334,953
0.7753,843
0.7769667,744
0.7786334,771
0.7803,798
0.7819667,840
0.7836334,1047
0.7853,1000
0.7869667,793
0.7886333,678
0.7903,879
0.7919667,881
0.7936333,679
0.7953,970
0.7969667,932
0.7986333,856
0.8003,883
0.8019667,909
0.8036333,815
0.8053,933
0.8069667,927
0.8086333,845
0.8103,851
0.8119667,805
0.8136333,799
0.8153,691
0.8169667,875
0.8186333,883
0.8203,841
0.8219666,858
0.8236333,852
0.8253,882
0.8269666,881
0.8286333,879
0.8303,878
0.8319666,922
0.8336333,884
0.8353,846
0.8369667,841
0.8386334,944
0.8403,913
0.8419667,930
0.8436334,860
0.8453,848
0.8469667,749
0.8486333,802
0.8503,855
0.8519667,891
0.8536333,973
0.8553,1111
0.8569667,1138
0.8586333,847
0.8603,864
0.8619667,934
0.8636333,930
0.8653,925
0.8669667,844
0.8686333,1210
0.8703,1337
0.8719667,1212
0.8736333,1481
0.8753,1474
0.8769667,1394
0.8786333,1310
0.8803,1553
0.8819667,1488
0.8836333,1414
0.8853,1463
0.8869666,1094
0.8886333,1128
0.8903,1163
0.8919666,1245
0.8936333,1246
0.8953,1329
0.8969667,1256
0.8986334,1183
0.9003,1280
0.9019667,1470
0.9036334,1509
0.9053,1278
0.9069667,1510
0.9086334,1271
0.9103,1405
0.9119667,1314
0.9136333,1339
0.9153,1385
0.9169667,1395
0.9186333,1170
0.9203,1123
0.9219667,1458
0.9236333,1513
0.9253,1558
0.9269667,1448
0.9286333,1358
0.9303,1525
0.9319667,1444
0.9336333,1451
0.9353,1307
0.9369667,1179
0.9386333,1453
0.9403,1171
0.9419667,1502
0.9436333,1323
0.9453,1291
0.9469666,1262
0.9486333,1270
0.9503,1278
0.9519666,1086
0.9536333,1274
0.9553,1331
0.9569666,1216
0.9586333,1065
0.9603,1067
0.9619667,1086
0.9636334,836
0.9653,1139
0.9669667,921
0.9686334,1037
0.9703,835
0.9719667,982
0.9736333,806
0.9753,901
0.9769667,807
0.9786333,789
0.9803,885
0.9819667,660
0.9836333,974
0.9853,692
0.9869667,1095
0.9886333,856
0.9903,876
0.9919667,852
0.9936333,874
0.9953,872
0.9969667,869
0.9986333,791
1.0003,953
1.001967,935
1.003633,916
1.0053,886
1.006967,911
1.008633,1006
1.0103,1003
1.011967,933
1.013633,864
1.0153,870
1.016967,929
1.018633,778
1.0203,934
1.021967,842
1.023633,894
1.0253,945
1.026967,848
1.028633,731
1.0303,960
1.031967,799
1.033633,823
1.0353,967
1.036967,973
1.038633,673
1.0403,880
1.041967,1270
1.043633,1093
1.0453,1006
1.046967,927
1.048633,872
1.0503,723
1.051967,771
1.053633,819
1.0553,859
1.056967,899
1.058633,848
1.0603,851
1.061967,853
1.063633,841
1.0653,828
1.066967,809
1.068633,790
1.0703,841
1.071967,891
1.073633,872
1.0753,818
1.076967,1000
1.078633,710
1.0803,802
1.081967,841
1.083633,747
1.0853,840
1.086967,1106
1.088633,1179
1.0903,847
1.091967,996
1.093633,1012
1.0953,938
1.096967,884
1.098633,819
1.1003,962
1.101967,736
1.103633,785
1.1053,834
1.106967,939
1.108633,918
1.1103,780
1.111967,886
1.113633,742
1.1153,728
1.116967,714
1.118633,749
1.1203,783
1.121967,665
1.123633,693
1.1253,700
1.126967,707
1.128633,754
1.1303,800
1.131967,867
1.133633,934
1.1353,963
1.136967,993
1.138633,916
1.1403,738
1.141967,824
1.143633,932
1.1453,753
1.146967,929
1.148633,930
1.1503,841
1.151967,842
1.153633,883
1.1553,750
1.156967,637
1.158633,832
1.1603,713
1.161967,813
1.163633,834
1.1653,901
1.166967,989
1.168633,948
1.1703,937
1.171967,771
1.173633,761
1.1753,763
1.176967,775
1.178633,786
1.1803,805
1.181967,785
1.183633,766
1.1853,734
1.186967,757
1.188633,780
1.1903,715
1.191967,650
1.193633,741
1.1953,704
1.196967,782
1.198633,651
