"SampleName","A2Rd2_01-31"
"Target Mass 1",
"Column Name","IA-3 (3um, 4.6X100)"
"Channel","QDa 1: SIR Ch1"
0.00195,317
0.003616667,768
0.005283333,564
0.00695,675
0.008616666,700
0.01028333,633
0.01195,560
0.01361667,598
0.01528333,502
0.01695,571
0.01861667,634
0.02028333,582
0.02195,560
0.02361667,678
0.02528333,572
0.02695,466
0.02861667,773
0.03028333,685
0.03195,603
0.03361667,740
0.03528333,611
0.03695,535
0.03861667,618
0.04028333,644
0.04195,630
0.04361667,617
0.04528333,611
0.04695,543
0.04861667,664
0.05028334,681
0.05195,664
0.05361667,657
0.05528333,784
0.05695,531
0.05861667,592
0.06028333,735
0.06195,673
0.06361666,673
0.06528334,608
0.06695,458
0.06861667,719
0.07028333,554
0.07195,645
0.07361667,550
0.07528333,533
0.07695,599
0.07861666,580
0.08028334,560
0.08195,649
0.08361667,629
0.08528333,609
0.08695,486
0.08861667,624
0.09028333,732
0.09195,750
0.09361666,511
0.09528334,654
0.09695,454
0.09861667,703
0.1002833,551
0.10195,629
0.1036167,631
0.1052833,568
0.10695,503
0.1086167,649
0.1102833,590
0.11195,596
0.1136167,530
0.1152833,514
0.11695,635
0.1186167,653
0.1202833,538
0.12195,452
0.1236167,650
0.1252833,618
0.12695,559
0.1286167,692
0.1302833,633
0.13195,665
0.1336167,564
0.1352833,677
0.13695,613
0.1386167,626
0.1402833,597
0.14195,563
0.1436167,654
0.1452833,519
0.14695,543
0.1486167,514
0.1502833,576
0.15195,666
0.1536167,708
0.1552833,651
0.15695,593
0.1586167,627
0.1602833,670
0.16195,578
0.1636167,435
0.1652833,450
0.16695,687
0.1686167,585
0.1702833,582
0.17195,654
0.1736167,627
0.1752833,625
0.17695,622
0.1786167,517
0.1802833,525
0.18195,540
0.1836167,596
0.1852833,576
0.18695,555
0.1886167,614
0.1902833,505
0.19195,652
0.1936167,651
0.1952833,640
0.19695,631
0.1986167,622
0.2002833,539
0.20195,401
0.2036167,590
0.2052833,557
0.20695,616
0.2086167,580
0.2102833,543
0.21195,502
0.2136167,525
0.2152833,461
0.21695,560
0.2186167,533
0.2202833,506
0.22195,423
0.2236167,562
0.2252833,578
0.22695,568
0.2286167,441
0.2302833,587
0.23195,556
0.2336167,636
0.2352833,559
0.23695,562
0.2386167,660
0.2402833,487
0.24195,522
0.2436167,557
0.2452833,658
0.24695,365
0.2486167,612
0.2502833,612
0.25195,648
0.2536167,548
0.2553,673
0.25695,522
0.2586167,494
0.2602833,494
0.26195,518
0.2636333,526
0.2652833,542
0.26695,531
0.2686167,434
0.2702833,573
0.27195,580
0.2736167,587
0.2752833,580
0.27695,574
0.2786167,564
0.2803,555
0.28195,581
0.2836167,608
0.2853,517
0.2869667,564
0.2886167,574
0.2902833,584
0.29195,514
0.2936167,517
0.2952833,604
0.29695,467
0.2986333,526
0.3002833,585
0.3019667,633
0.3036333,663
0.3053,692
0.30695,522
0.3086167,684
0.3103,561
0.31195,715
0.3136167,621
0.3153,615
0.31695,629
0.3186333,673
0.3202833,667
0.3219667,662
0.3236167,650
0.3252833,638
0.3269667,600
0.3286167,645
0.3302833,643
0.33195,641
0.3336333,604
0.3353,602
0.3369667,674
0.3386167,726
0.3402833,760
0.34195,628
0.3436333,565
0.3452833,610
0.34695,536
0.3486167,442
0.3503,494
0.3519667,593
0.3536333,655
0.3553,537
0.3569667,722
0.3586333,787
0.3603,734
0.3619667,731
0.3636167,1540
0.3653,3070
0.36695,5209
0.3686333,7256
0.3703,7246
0.3719667,7561
0.3736333,6264
0.3753,5472
0.3769667,4390
0.3786333,3551
0.3802833,3011
0.3819667,2483
0.3836167,1967
0.3853,1684
0.3869667,1749
0.3886333,1356
0.3903,1300
0.3919667,1557
0.3936333,1149
0.3953,1462
0.3969667,1261
0.3986333,1176
0.4003,1098
0.4019667,1574
0.4036333,1752
0.4053,1811
0.4069667,1728
0.4086333,1645
0.4103,1616
0.4119667,1587
0.4136333,1787
0.4153,1676
0.4169667,1565
0.4186333,1885
0.4203,1724
0.4219667,1558
0.4236333,1730
0.4253,1374
0.4269667,1268
0.4286333,1424
0.4303,1446
0.4319667,1439
0.4336333,2067
0.4353,2368
0.4369667,3391
0.4386333,4845
0.4403,6326
0.4419667,9084
0.4436333,12080
0.4453,15572
0.4469667,21660
0.4486333,28196
0.4503,35152
0.4519667,48352
0.4536333,65856
0.4553,82928
0.4569667,110464
0.4586333,141952
0.4603,178752
0.4619667,219072
0.4636333,266240
0.4653,311360
0.4669667,366464
0.4686333,395264
0.4703,426048
0.4719667,440192
0.4736333,431232
0.4753,410688
0.4769667,375424
0.4786333,334656
0.4803,282240
0.4819667,235456
0.4836333,189952
0.4853,149952
0.4869667,119216
0.4886333,91936
0.4903,72192
0.4919667,56848
0.4936333,45312
0.4953,36736
0.4969667,29084
0.4986333,24936
0.5003,20380
0.5019667,17544
0.5036333,15504
0.5053,13744
0.5069667,11492
0.5086333,9864
0.5103,8820
0.5119666,8412
0.5136333,6967
0.5153,6460
0.5169666,6435
0.5186333,5973
0.5203,5502
0.5219667,5421
0.5236334,5122
0.5253,4514
0.5269667,4534
0.5286334,4199
0.5303,4380
0.5319667,3760
0.5336334,3966
0.5353,3866
0.5369667,3730
0.5386333,3250
0.5403,3663
0.5419667,3425
0.5436333,3182
0.5453,3142
0.5469667,2617
0.5486333,3046
0.5503,2862
0.5519667,3021
0.5536333,2653
0.5553,2392
0.5569667,2423
0.5586333,2455
0.5603,2096
0.5619667,2168
0.5636333,2356
0.5653,1981
0.5669667,1925
0.5686333,2132
0.5703,1950
0.5719666,1682
0.5736333,2207
0.5753,2050
0.5769666,2099
0.5786333,2018
0.5803,2050
0.5819666,1968
0.5836333,1804
0.5853,1884
0.5869667,1848
0.5886334,2077
0.5903,2070
0.5919667,1915
0.5936334,2050
0.5953,1624
0.5969667,1925
0.5986333,1888
0.6003,1639
0.6019667,1706
0.6036333,1773
0.6053,1796
0.6069667,1820
0.6086333,1709
0.6103,1707
0.6119667,1561
0.6136333,1438
0.6153,1388
0.6169667,1704
0.6186333,1660
0.6203,1379
0.6219667,1265
0.6236333,1544
0.6253,1442
0.6269667,1431
0.6286333,1290
0.6303,1151
0.6319667,1449
0.6336333,1347
0.6353,1082
0.6369666,1208
0.6386333,1168
0.6403,1152
0.6419666,1172
0.6436333,1213
0.6453,1254
0.6469667,1271
0.6486334,1113
0.6503,1248
0.6519667,1289
0.6536334,1177
0.6553,1373
0.6569667,1093
0.6586334,1156
0.6603,993
0.6619667,1110
0.6636333,1260
0.6653,1189
0.6669667,1086
0.6686333,1123
0.6703,1184
0.6719667,1128
0.6736333,1073
0.6753,1016
0.6769667,1188
0.6786333,1165
0.6803,1027
0.6819667,1379
0.6836333,1288
0.6853,1150
0.6869667,1221
0.6886333,995
0.6903,1166
0.6919667,1062
0.6936333,1135
0.6953,1087
0.6969666,976
0.6986333,1256
0.7003,871
0.7019666,848
0.7036333,1043
0.7053,1229
0.7069666,1115
0.7086333,944
0.7103,994
0.7119667,953
0.7136334,912
0.7153,987
0.7169667,904
0.7186334,820
0.7203,1014
0.7219667,765
0.7236333,1028
0.7253,985
0.7269667,1096
0.7286333,838
0.7303,913
0.7319667,1041
0.7336333,993
0.7353,1052
0.7369667,1029
0.7386333,843
0.7403,992
0.7419667,1073
0.7436333,1019
0.7453,1121
0.7469667,1168
0.7486333,1193
0.7503,1124
0.7519667,1056
0.7536333,1001
0.7553,993
0.7569667,961
0.7586333,995
0.7603,1047
0.7619666,1022
0.7636333,984
0.7653,1054
0.7669666,836
0.7686333,920
0.7703,1116
0.7719667,1032
0.7736334,1049
0.7753,1021
0.7769667,993
0.7786334,875
0.7803,1027
0.7819667,978
0.7836334,953
0.7853,947
0.7869667,983
0.7886333,1006
0.7903,1010
0.7919667,1014
0.7936333,833
0.7953,952
0.7969667,825
0.7986333,895
0.8003,924
0.8019667,952
0.8036333,812
0.8053,1300
0.8069667,1257
0.8086333,842
0.8103,1129
0.8119667,1109
0.8136333,1008
0.8153,1106
0.8169667,971
0.8186333,1010
0.8203,1006
0.8219666,891
0.8236333,1139
0.8253,1009
0.8269666,879
0.8286333,983
0.8303,1029
0.8319666,1074
0.8336333,1079
0.8353,1042
0.8369667,982
0.8386334,963
0.8403,1027
0.8419667,1038
0.8436334,996
0.8453,955
0.8469667,967
0.8486333,1055
0.8503,1109
0.8519667,710
0.8536333,948
0.8553,877
0.8569667,811
0.8586333,718
0.8603,929
0.8619667,1031
0.8636333,1166
0.8653,1364
0.8669667,1671
0.8686333,2214
0.8703,2553
0.8719667,3232
0.8736333,3639
0.8753,4108
0.8769667,4204
0.8786333,3883
0.8803,4048
0.8819667,4214
0.8836333,3575
0.8853,3734
0.8869666,3606
0.8886333,3691
0.8903,3634
0.8919666,3767
0.8936333,3851
0.8953,3451
0.8969667,3398
0.8986334,3660
0.9003,3636
0.9019667,3558
0.9036334,3527
0.9053,3194
0.9069667,3527
0.9086334,4072
0.9103,4232
0.9119667,4028
0.9136333,3943
0.9153,3490
0.9169667,4079
0.9186333,3558
0.9203,3778
0.9219667,3677
0.9236333,3404
0.9253,3419
0.9269667,3602
0.9286333,3487
0.9303,3372
0.9319667,3396
0.9336333,3125
0.9353,2933
0.9369667,2789
0.9386333,2780
0.9403,2863
0.9419667,2441
0.9436333,2606
0.9453,2361
0.9469666,2464
0.9486333,1977
0.9503,2018
0.9519666,1956
0.9536333,1849
0.9553,1798
0.9569666,1543
0.9586333,1351
0.9603,1499
0.9619667,1362
0.9636334,1278
0.9653,1422
0.9669667,1183
0.9686334,1091
0.9703,1505
0.9719667,931
0.9736333,1044
0.9753,970
0.9769667,844
0.9786333,796
0.9803,885
0.9819667,642
0.9836333,843
0.9853,744
0.9869667,840
0.9886333,710
0.9903,732
0.9919667,701
0.9936333,560
0.9953,787
0.9969667,688
0.9986333,790
1.0003,817
1.001967,677
1.003633,717
1.0053,622
1.006967,679
1.008633,735
1.0103,674
1.011967,808
1.013633,830
1.0153,562
1.016967,822
1.018633,688
1.0203,620
1.021967,739
1.023633,751
1.0253,763
1.026967,613
1.028633,619
1.0303,671
1.031967,678
1.033633,685
1.0353,597
1.036967,652
1.038633,680
1.0403,546
1.041967,585
1.043633,569
1.0453,554
1.046967,668
1.048633,845
1.0503,781
1.051967,652
1.053633,834
1.0553,900
1.056967,688
1.058633,674
1.0603,808
1.061967,463
1.063633,796
1.0653,622
1.066967,924
1.068633,775
1.0703,719
1.071967,909
1.073633,605
1.0753,672
1.076967,698
1.078633,673
1.0803,648
1.081967,699
1.083633,645
1.0853,603
1.086967,680
1.088633,689
1.0903,699
1.091967,674
1.093633,649
1.0953,790
1.096967,763
1.098633,689
1.1003,570
1.101967,676
1.103633,865
1.1053,838
1.106967,805
1.108633,769
1.1103,682
1.111967,729
1.113633,824
1.1153,827
1.116967,653
1.118633,574
1.1203,642
1.121967,709
1.123633,666
1.1253,624
1.126967,620
1.128633,761
1.1303,752
1.131967,644
1.133633,784
1.1353,681
1.136967,798
1.138633,656
1.1403,716
1.141967,741
1.143633,740
1.1453,903
1.146967,880
1.148633,908
1.1503,740
1.151967,672
1.153633,596
1.1553,695
1.156967,757
1.158633,712
1.1603,738
1.161967,764
1.163633,662
1.1653,774
1.166967,828
1.168633,810
1.1703,824
1.171967,817
1.173633,810
1.1753,855
1.176967,875
1.178633,963
1.1803,927
1.181967,857
1.183633,788
1.1853,771
1.186967,754
1.188633,828
1.1903,903
1.191967,942
1.193633,902
1.1953,782
1.196967,975
1.198633,892
