"SampleName","A2Rd2_01-71"
"Target Mass 1",
"Column Name","IA-3 (3um, 4.6X100)"
"Channel","QDa 1: SIR Ch1"
0.00195,274
0.003616667,576
0.005283333,579
0.00695,695
0.008616666,656
0.01028333,522
0.01195,512
0.01361667,583
0.01528333,562
0.01695,541
0.01861667,598
0.02028333,490
0.02195,603
0.02361667,574
0.02528333,590
0.02695,482
0.02861667,494
0.03028333,483
0.03195,555
0.03361667,564
0.03528333,572
0.03695,631
0.03861667,403
0.04028333,481
0.04195,586
0.04361667,573
0.04528333,515
0.04695,524
0.04861667,568
0.05028334,612
0.05195,588
0.05361667,595
0.05528333,601
0.05695,586
0.05861667,606
0.06028333,460
0.06195,527
0.06361666,670
0.06528334,447
0.06695,506
0.06861667,482
0.07028333,474
0.07195,465
0.07361667,543
0.07528333,515
0.07695,487
0.07861666,550
0.08028334,553
0.08195,556
0.08361667,599
0.08528333,463
0.08695,423
0.08861667,385
0.09028333,450
0.09195,495
0.09361666,540
0.09528334,546
0.09695,469
0.09861667,568
0.1002833,475
0.10195,565
0.1036167,457
0.1052833,654
0.10695,602
0.1086167,618
0.1102833,459
0.11195,430
0.1136167,584
0.1152833,510
0.11695,542
0.1186167,566
0.1202833,596
0.12195,588
0.1236167,615
0.1252833,640
0.12695,543
0.1286167,498
0.1302833,591
0.13195,471
0.1336167,588
0.1352833,606
0.13695,534
0.1386167,592
0.1402833,390
0.14195,651
0.1436167,756
0.1452833,553
0.14695,476
0.1486167,589
0.1502833,446
0.15195,445
0.1536167,436
0.1552833,487
0.15695,537
0.1586167,606
0.1602833,345
0.16195,455
0.1636167,435
0.1652833,539
0.16695,577
0.1686167,511
0.1702833,459
0.17195,527
0.1736167,488
0.1752833,508
0.17695,455
0.1786167,557
0.1802833,538
0.18195,488
0.1836167,559
0.1852833,438
0.18695,407
0.1886167,483
0.1902833,473
0.19195,464
0.1936167,508
0.1952833,560
0.19695,643
0.1986167,588
0.2002833,543
0.20195,490
0.2036167,526
0.2052833,425
0.20695,398
0.2086167,466
0.2102833,592
0.21195,606
0.2136167,524
0.2152833,418
0.21695,455
0.2186167,462
0.2202833,498
0.22195,474
0.2236167,451
0.2252833,493
0.22695,535
0.2286167,642
0.2302833,597
0.23195,633
0.2336167,465
0.2352833,488
0.23695,501
0.2386167,486
0.2402833,471
0.24195,409
0.2436167,544
0.2452833,571
0.24695,428
0.2486167,359
0.2502833,411
0.25195,464
0.2536167,555
0.2552833,600
0.25695,561
0.2586167,495
0.2602833,496
0.26195,527
0.2636333,444
0.2652833,464
0.26695,423
0.2686167,496
0.2702833,570
0.27195,585
0.2736167,488
0.2752833,579
0.27695,598
0.2786167,617
0.2803,549
0.28195,357
0.2836167,518
0.2853,369
0.28695,652
0.2886167,542
0.2902833,458
0.29195,537
0.2936167,598
0.2952833,660
0.29695,583
0.2986333,609
0.3003,546
0.30195,524
0.3036167,510
0.3052833,449
0.30695,457
0.3086167,464
0.3102833,494
0.31195,529
0.3136167,563
0.3153,627
0.3169667,646
0.3186167,563
0.3202833,597
0.32195,559
0.3236167,458
0.3253,636
0.32695,561
0.3286167,433
0.3302833,557
0.33195,613
0.3336333,519
0.3352833,619
0.3369667,702
0.3386167,465
0.3402833,433
0.3419667,633
0.3436167,644
0.3452833,607
0.34695,475
0.3486333,557
0.3503,533
0.3519667,560
0.3536333,445
0.3553,562
0.35695,520
0.3586333,516
0.3602833,574
0.3619667,1003
0.3636333,960
0.3653,1609
0.3669667,2232
0.3686333,3695
0.3703,5423
0.3719667,6582
0.3736333,7158
0.3753,6828
0.37695,7343
0.3786333,7023
0.3802833,5867
0.3819667,5708
0.3836333,4451
0.3853,4128
0.3869667,3655
0.3886333,3148
0.3903,2806
0.3919667,2602
0.3936167,2123
0.3952833,1596
0.3969667,1229
0.3986333,1319
0.4003,1408
0.4019667,1035
0.4036333,1066
0.4053,1054
0.4069667,1344
0.4086333,1365
0.4103,1304
0.4119667,1157
0.4136333,1487
0.4153,1469
0.4169667,1459
0.4186333,1522
0.4203,1641
0.4219667,1672
0.4236333,1629
0.4253,1231
0.4269667,1505
0.4286333,1696
0.4303,1755
0.4319667,1863
0.4336333,2017
0.4353,3244
0.4369667,4945
0.4386333,7046
0.4403,10428
0.4419667,15128
0.4436333,22372
0.4453,31612
0.4469667,41776
0.4486333,55248
0.4503,71184
0.4519667,84352
0.4536333,101680
0.4553,122480
0.4569667,136000
0.4586333,153152
0.4603,172928
0.4619667,195008
0.4636333,210944
0.4653,236800
0.4669667,263552
0.4686333,274368
0.4703,300672
0.4719667,308672
0.4736333,312064
0.4753,304128
0.4769667,287552
0.4786333,263296
0.4803,240576
0.4819667,208512
0.4836333,177280
0.4853,147904
0.4869667,120688
0.4886333,95440
0.4903,77424
0.4919667,59712
0.4936333,45936
0.4953,36224
0.4969667,27820
0.4986333,22296
0.5003,17396
0.5019667,14632
0.5036333,11916
0.5053,9944
0.5069667,8884
0.5086333,7598
0.5103,7111
0.5119666,6063
0.5136333,5693
0.5153,4688
0.5169666,4653
0.5186333,4338
0.5203,4321
0.5219667,3651
0.5236334,3419
0.5253,3437
0.5269667,3388
0.5286334,3408
0.5303,3376
0.5319667,2740
0.5336334,2613
0.5353,2826
0.5369667,2389
0.5386333,2758
0.5403,2740
0.5419667,2397
0.5436333,2223
0.5453,2516
0.5469667,2508
0.5486333,2008
0.5503,2164
0.5519667,1991
0.5536333,2007
0.5553,1971
0.5569667,1594
0.5586333,1841
0.5603,1675
0.5619667,1828
0.5636333,1877
0.5653,1806
0.5669667,1620
0.5686333,1316
0.5703,1596
0.5719666,1414
0.5736333,1559
0.5753,1280
0.5769666,1546
0.5786333,1225
0.5803,1262
0.5819666,1259
0.5836333,1101
0.5853,1223
0.5869667,1346
0.5886334,1216
0.5903,1362
0.5919667,1398
0.5936334,1169
0.5953,1387
0.5969667,1196
0.5986333,1299
0.6003,1169
0.6019667,1227
0.6036333,1284
0.6053,1325
0.6069667,1235
0.6086333,1146
0.6103,1031
0.6119667,1150
0.6136333,1190
0.6153,1090
0.6169667,1220
0.6186333,1201
0.6203,1163
0.6219667,1002
0.6236333,1223
0.6253,1008
0.6269667,911
0.6286333,1003
0.6303,988
0.6319667,974
0.6336333,979
0.6353,944
0.6369666,945
0.6386333,766
0.6403,909
0.6419666,780
0.6436333,949
0.6453,805
0.6469667,822
0.6486334,840
0.6503,834
0.6519667,529
0.6536334,828
0.6553,798
0.6569667,713
0.6586334,663
0.6603,898
0.6619667,868
0.6636333,703
0.6653,518
0.6669667,859
0.6686333,714
0.6703,893
0.6719667,795
0.6736333,782
0.6753,688
0.6769667,743
0.6786333,623
0.6803,713
0.6819667,681
0.6836333,650
0.6853,662
0.6869667,582
0.6886333,602
0.6903,621
0.6919667,799
0.6936333,787
0.6953,859
0.6969666,692
0.6986333,631
0.7003,628
0.7019666,655
0.7036333,681
0.7053,590
0.7069666,635
0.7086333,642
0.7103,543
0.7119667,509
0.7136334,417
0.7153,461
0.7169667,505
0.7186334,487
0.7203,549
0.7219667,611
0.7236333,604
0.7253,598
0.7269667,610
0.7286333,567
0.7303,644
0.7319667,619
0.7336333,562
0.7353,618
0.7369667,769
0.7386333,796
0.7403,698
0.7419667,725
0.7436333,731
0.7453,731
0.7469667,511
0.7486333,625
0.7503,637
0.7519667,649
0.7536333,553
0.7553,562
0.7569667,648
0.7586333,623
0.7603,633
0.7619666,492
0.7636333,644
0.7653,633
0.7669666,696
0.7686333,626
0.7703,511
0.7719667,585
0.7736334,557
0.7753,533
0.7769667,510
0.7786334,574
0.7803,541
0.7819667,508
0.7836334,567
0.7853,600
0.7869667,619
0.7886333,637
0.7903,597
0.7919667,556
0.7936333,525
0.7953,495
0.7969667,501
0.7986333,526
0.8003,512
0.8019667,498
0.8036333,506
0.8053,514
0.8069667,532
0.8086333,551
0.8103,569
0.8119667,587
0.8136333,435
0.8153,549
0.8169667,599
0.8186333,504
0.8203,532
0.8219666,559
0.8236333,664
0.8253,623
0.8269666,521
0.8286333,572
0.8303,703
0.8319666,676
0.8336333,529
0.8353,489
0.8369667,635
0.8386334,675
0.8403,615
0.8419667,554
0.8436334,599
0.8453,518
0.8469667,519
0.8486333,521
0.8503,470
0.8519667,492
0.8536333,515
0.8553,506
0.8569667,496
0.8586333,527
0.8603,559
0.8619667,583
0.8636333,608
0.8653,475
0.8669667,501
0.8686333,567
0.8703,530
0.8719667,444
0.8736333,449
0.8753,440
0.8769667,527
0.8786333,845
0.8803,903
0.8819667,1138
0.8836333,1207
0.8853,1377
0.8869666,1517
0.8886333,1582
0.8903,1646
0.8919666,1946
0.8936333,2165
0.8953,2123
0.8969667,2196
0.8986334,1980
0.9003,2320
0.9019667,2247
0.9036334,2211
0.9053,2353
0.9069667,2228
0.9086334,1947
0.9103,2307
0.9119667,1943
0.9136333,2151
0.9153,2002
0.9169667,2139
0.9186333,2162
0.9203,2186
0.9219667,2113
0.9236333,2132
0.9253,2120
0.9269667,1774
0.9286333,2173
0.9303,2113
0.9319667,1990
0.9336333,2106
0.9353,1966
0.9369667,1804
0.9386333,1736
0.9403,1989
0.9419667,2014
0.9436333,1788
0.9453,1639
0.9469666,1703
0.9486333,1434
0.9503,1271
0.9519666,1522
0.9536333,1424
0.9553,1326
0.9569666,1360
0.9586333,1415
0.9603,1133
0.9619667,968
0.9636334,1041
0.9653,1063
0.9669667,1005
0.9686334,971
0.9703,865
0.9719667,825
0.9736333,903
0.9753,748
0.9769667,710
0.9786333,752
0.9803,471
0.9819667,654
0.9836333,570
0.9853,543
0.9869667,592
0.9886333,490
0.9903,526
0.9919667,533
0.9936333,539
0.9953,521
0.9969667,516
0.9986333,510
1.0003,473
1.001967,434
1.003633,503
1.0053,392
1.006967,538
1.008633,347
1.0103,425
1.011967,513
1.013633,446
1.0153,440
1.016967,435
1.018633,547
1.0203,588
1.021967,555
1.023633,451
1.0253,454
1.026967,457
1.028633,449
1.0303,442
1.031967,455
1.033633,467
1.0353,469
1.036967,470
1.038633,302
1.0403,424
1.041967,380
1.043633,391
1.0453,401
1.046967,391
1.048633,487
1.0503,518
1.051967,370
1.053633,411
1.0553,419
1.056967,427
1.058633,429
1.0603,425
1.061967,515
1.063633,531
1.0653,382
1.066967,483
1.068633,498
1.0703,397
1.071967,443
1.073633,489
1.0753,518
1.076967,488
1.078633,470
1.0803,451
1.081967,485
1.083633,518
1.0853,528
1.086967,499
1.088633,470
1.0903,533
1.091967,458
1.093633,500
1.0953,565
1.096967,304
1.098633,509
1.1003,564
1.101967,518
1.103633,482
1.1053,481
1.106967,522
1.108633,424
1.1103,346
1.111967,514
1.113633,491
1.1153,530
1.116967,521
1.118633,560
1.1203,401
1.121967,579
1.123633,680
1.1253,476
1.126967,603
1.128633,491
1.1303,466
1.131967,468
1.133633,465
1.1353,462
1.136967,506
1.138633,483
1.1403,459
1.141967,506
1.143633,527
1.1453,503
1.146967,469
1.148633,492
1.1503,616
1.151967,659
1.153633,490
1.1553,509
1.156967,568
1.158633,579
1.1603,591
1.161967,418
1.163633,406
1.1653,510
1.166967,489
1.168633,467
1.1703,429
1.171967,447
1.173633,515
1.1753,516
1.176967,531
1.178633,525
1.1803,519
1.181967,491
1.183633,526
1.1853,458
1.186967,474
1.188633,489
1.1903,540
1.191967,556
1.193633,606
1.1953,570
1.196967,496
1.198633,518
