"SampleName","A2Rd2_01-42"
"Target Mass 1",
"Column Name","IA-3 (3um, 4.6X100)"
"Channel","QDa 1: SIR Ch1"
0.00195,660
0.003616667,562
0.005283333,655
0.00695,607
0.008616666,621
0.01028333,594
0.01195,588
0.01361667,582
0.01528333,636
0.01695,739
0.01861667,746
0.02028333,615
0.02195,737
0.02361667,625
0.02528333,671
0.02695,503
0.02861667,631
0.03028333,676
0.03195,605
0.03361667,595
0.03528333,648
0.03695,591
0.03861667,652
0.04028333,599
0.04195,646
0.04361667,534
0.04528333,583
0.04695,615
0.04861667,627
0.05028334,640
0.05195,580
0.05361667,445
0.05528333,582
0.05695,616
0.05861667,596
0.06028333,587
0.06195,574
0.06361666,561
0.06528334,618
0.06695,600
0.06861667,582
0.07028333,556
0.07195,542
0.07361667,529
0.07528333,559
0.07695,589
0.07861666,568
0.08028334,548
0.08195,566
0.08361667,584
0.08528333,569
0.08695,580
0.08861667,574
0.09028333,568
0.09195,527
0.09361666,617
0.09528334,554
0.09695,491
0.09861667,496
0.1002833,502
0.10195,568
0.1036167,711
0.1052833,672
0.10695,467
0.1086167,568
0.1102833,587
0.11195,513
0.1136167,532
0.1152833,616
0.11695,651
0.1186167,642
0.1202833,572
0.12195,593
0.1236167,623
0.1252833,569
0.12695,555
0.1286167,542
0.1302833,546
0.13195,681
0.1336167,607
0.1352833,532
0.13695,412
0.1386167,702
0.1402833,694
0.14195,587
0.1436167,539
0.1452833,601
0.14695,609
0.1486167,563
0.1502833,610
0.15195,700
0.1536167,721
0.1552833,671
0.15695,463
0.1586167,676
0.1602833,578
0.16195,552
0.1636167,625
0.1652833,542
0.16695,645
0.1686167,497
0.1702833,540
0.17195,537
0.1736167,469
0.1752833,629
0.17695,603
0.1786167,650
0.1802833,658
0.18195,666
0.1836167,527
0.1852833,410
0.18695,502
0.1886167,572
0.1902833,577
0.19195,578
0.1936167,567
0.1952833,556
0.19695,527
0.1986167,557
0.2002833,588
0.20195,555
0.2036167,522
0.2052833,556
0.20695,523
0.2086167,485
0.2102833,541
0.21195,567
0.2136167,532
0.2152833,407
0.21695,432
0.2186167,457
0.2202833,447
0.22195,512
0.2236167,496
0.2252833,592
0.22695,553
0.2286167,546
0.2302833,539
0.23195,503
0.2336167,494
0.2352833,485
0.23695,491
0.2386167,523
0.2402833,554
0.24195,546
0.2436167,537
0.2452833,639
0.24695,605
0.2486167,571
0.2502833,524
0.25195,495
0.2536167,494
0.2552833,517
0.25695,557
0.2586167,598
0.2602833,608
0.26195,618
0.2636333,492
0.2652833,560
0.26695,473
0.2686167,485
0.2702833,626
0.27195,568
0.2736167,511
0.2752833,708
0.27695,673
0.2786167,654
0.2803,476
0.28195,540
0.2836167,594
0.2852833,532
0.28695,561
0.2886167,591
0.2902833,654
0.29195,645
0.2936167,731
0.2952833,742
0.29695,683
0.2986333,672
0.3002833,635
0.30195,731
0.3036167,744
0.3052833,652
0.30695,654
0.3086167,814
0.3102833,522
0.31195,584
0.3136167,721
0.3153,780
0.31695,739
0.3186333,539
0.3202833,711
0.3219667,711
0.3236167,573
0.3252833,689
0.32695,481
0.3286167,599
0.3303,634
0.33195,695
0.3336333,477
0.3352833,648
0.33695,575
0.3386333,632
0.3402833,506
0.34195,552
0.3436167,599
0.3452833,495
0.3469667,530
0.3486167,564
0.3503,717
0.35195,680
0.3536333,516
0.3553,539
0.35695,694
0.3586167,571
0.3602833,780
0.36195,710
0.3636333,1076
0.3652833,1478
0.3669667,3333
0.3686333,5050
0.3703,6867
0.3719667,7631
0.3736333,7673
0.3752833,6527
0.3769667,5290
0.3786167,4665
0.3803,3976
0.3819667,2876
0.3836333,2516
0.3853,2003
0.3869667,1535
0.3886333,1504
0.3903,1296
0.3919667,1242
0.3936333,1197
0.3952833,1211
0.3969667,1029
0.3986333,1079
0.4003,1211
0.4019667,1174
0.4036333,1137
0.4053,1582
0.4069667,1953
0.4086167,1992
0.4103,2029
0.41195,2030
0.4136333,1660
0.4153,2021
0.4169667,1726
0.4186167,1921
0.4203,1861
0.4219667,1874
0.4236333,1857
0.4253,1720
0.4269667,1932
0.4286333,1802
0.4303,2179
0.4319667,2608
0.4336333,3027
0.4353,3791
0.4369667,4620
0.4386333,6161
0.4403,8580
0.4419667,11448
0.4436333,14860
0.4453,19020
0.4469667,25696
0.4486333,34400
0.4503,43760
0.4519667,57584
0.4536333,71456
0.4553,89392
0.4569667,108160
0.4586333,134784
0.4603,161600
0.4619667,194176
0.4636333,231552
0.4653,271104
0.4669667,311936
0.4686333,339136
0.4703,370240
0.4719667,386368
0.4736333,389248
0.4753,368384
0.4769667,349888
0.4786333,318016
0.4803,276352
0.4819667,236288
0.4836333,197952
0.4853,154240
0.4869667,121120
0.4886333,98512
0.4903,75488
0.4919667,57152
0.4936333,44704
0.4953,34976
0.4969667,27624
0.4986333,21132
0.5003,18364
0.5019667,15980
0.5036333,13304
0.5053,11900
0.5069667,10676
0.5086333,9208
0.5103,8324
0.5119666,7960
0.5136333,6804
0.5153,6612
0.5169666,6115
0.5186333,6088
0.5203,5450
0.5219667,4775
0.5236334,4310
0.5253,4888
0.5269667,4173
0.5286334,4544
0.5303,3842
0.5319667,4061
0.5336334,4026
0.5353,3757
0.5369667,3298
0.5386333,3655
0.5403,3810
0.5419667,3456
0.5436333,3495
0.5453,2925
0.5469667,2815
0.5486333,3140
0.5503,2626
0.5519667,2954
0.5536333,2620
0.5553,2909
0.5569667,2270
0.5586333,2325
0.5603,2281
0.5619667,2317
0.5636333,2223
0.5653,2185
0.5669667,1995
0.5686333,1883
0.5703,1634
0.5719666,1809
0.5736333,1984
0.5753,1937
0.5769666,1905
0.5786333,1719
0.5803,1613
0.5819666,1601
0.5836333,1761
0.5853,1655
0.5869667,1785
0.5886334,1767
0.5903,1748
0.5919667,1728
0.5936334,1864
0.5953,1535
0.5969667,1612
0.5986333,1731
0.6003,1687
0.6019667,1750
0.6036333,1694
0.6053,1771
0.6069667,1692
0.6086333,1614
0.6103,1651
0.6119667,1613
0.6136333,1703
0.6153,1787
0.6169667,1375
0.6186333,1598
0.6203,1614
0.6219667,1363
0.6236333,1381
0.6253,1544
0.6269667,1474
0.6286333,1324
0.6303,1525
0.6319667,1447
0.6336333,1170
0.6353,1568
0.6369666,1284
0.6386333,1244
0.6403,1146
0.6419666,1193
0.6436333,1241
0.6453,1093
0.6469667,1282
0.6486334,1225
0.6503,1162
0.6519667,1041
0.6536334,1243
0.6553,1171
0.6569667,1106
0.6586334,1085
0.6603,988
0.6619667,984
0.6636333,1259
0.6653,1289
0.6669667,1173
0.6686333,1026
0.6703,843
0.6719667,869
0.6736333,1033
0.6753,954
0.6769667,852
0.6786333,865
0.6803,949
0.6819667,1030
0.6836333,1129
0.6853,1122
0.6869667,978
0.6886333,1214
0.6903,930
0.6919667,1123
0.6936333,1150
0.6953,820
0.6969666,1231
0.6986333,873
0.7003,1066
0.7019666,1013
0.7036333,888
0.7053,1010
0.7069666,898
0.7086333,966
0.7103,978
0.7119667,992
0.7136334,959
0.7153,926
0.7169667,972
0.7186334,1033
0.7203,810
0.7219667,1063
0.7236333,898
0.7253,858
0.7269667,834
0.7286333,972
0.7303,937
0.7319667,902
0.7336333,877
0.7353,1012
0.7369667,1031
0.7386333,1049
0.7403,978
0.7419667,804
0.7436333,950
0.7453,945
0.7469667,934
0.7486333,933
0.7503,902
0.7519667,783
0.7536333,824
0.7553,872
0.7569667,891
0.7586333,742
0.7603,758
0.7619666,920
0.7636333,908
0.7653,897
0.7669666,743
0.7686333,774
0.7703,898
0.7719667,912
0.7736334,755
0.7753,962
0.7769667,924
0.7786334,866
0.7803,877
0.7819667,754
0.7836334,821
0.7853,840
0.7869667,841
0.7886333,751
0.7903,636
0.7919667,927
0.7936333,914
0.7953,797
0.7969667,751
0.7986333,705
0.8003,776
0.8019667,872
0.8036333,876
0.8053,682
0.8069667,804
0.8086333,810
0.8103,783
0.8119667,713
0.8136333,754
0.8153,795
0.8169667,849
0.8186333,871
0.8203,825
0.8219666,814
0.8236333,795
0.8253,777
0.8269666,739
0.8286333,820
0.8303,840
0.8319666,697
0.8336333,755
0.8353,862
0.8369667,533
0.8386334,933
0.8403,881
0.8419667,698
0.8436334,865
0.8453,850
0.8469667,853
0.8486333,597
0.8503,785
0.8519667,696
0.8536333,703
0.8553,805
0.8569667,754
0.8586333,777
0.8603,661
0.8619667,659
0.8636333,1006
0.8653,993
0.8669667,1374
0.8686333,1621
0.8703,1874
0.8719667,2332
0.8736333,2620
0.8753,2471
0.8769667,2868
0.8786333,2841
0.8803,2817
0.8819667,2723
0.8836333,2430
0.8853,2564
0.8869666,2485
0.8886333,2573
0.8903,2549
0.8919666,2793
0.8936333,2721
0.8953,2757
0.8969667,2793
0.8986334,2729
0.9003,2790
0.9019667,2339
0.9036334,2728
0.9053,2618
0.9069667,2962
0.9086334,2805
0.9103,2540
0.9119667,2601
0.9136333,2901
0.9153,2927
0.9169667,2738
0.9186333,2398
0.9203,2578
0.9219667,2697
0.9236333,2725
0.9253,2549
0.9269667,2251
0.9286333,2821
0.9303,2240
0.9319667,2451
0.9336333,2524
0.9353,2375
0.9369667,2289
0.9386333,2292
0.9403,2061
0.9419667,2040
0.9436333,2005
0.9453,1724
0.9469666,1745
0.9486333,1781
0.9503,1812
0.9519666,1665
0.9536333,1577
0.9553,1532
0.9569666,1815
0.9586333,1285
0.9603,1257
0.9619667,1172
0.9636334,1180
0.9653,1180
0.9669667,1108
0.9686334,1125
0.9703,833
0.9719667,925
0.9736333,872
0.9753,797
0.9769667,940
0.9786333,701
0.9803,748
0.9819667,792
0.9836333,616
0.9853,431
0.9869667,634
0.9886333,753
0.9903,751
0.9919667,563
0.9936333,702
0.9953,633
0.9969667,660
0.9986333,647
1.0003,605
1.001967,609
1.003633,556
1.0053,579
1.006967,602
1.008633,476
1.0103,498
1.011967,520
1.013633,571
1.0153,623
1.016967,648
1.018633,673
1.0203,496
1.021967,594
1.023633,691
1.0253,516
1.026967,603
1.028633,550
1.0303,583
1.031967,616
1.033633,595
1.0353,573
1.036967,613
1.038633,658
1.0403,644
1.041967,608
1.043633,590
1.0453,700
1.046967,672
1.048633,644
1.0503,628
1.051967,615
1.053633,532
1.0553,592
1.056967,644
1.058633,509
1.0603,541
1.061967,572
1.063633,595
1.0653,562
1.066967,530
1.068633,529
1.0703,529
1.071967,697
1.073633,657
1.0753,686
1.076967,713
1.078633,636
1.0803,539
1.081967,742
1.083633,685
1.0853,752
1.086967,751
1.088633,751
1.0903,635
1.091967,556
1.093633,678
1.0953,706
1.096967,512
1.098633,519
1.1003,459
1.101967,537
1.103633,549
1.1053,561
1.106967,577
1.108633,574
1.1103,571
1.111967,563
1.113633,589
1.1153,614
1.116967,494
1.118633,546
1.1203,598
1.121967,647
1.123633,470
1.1253,570
1.126967,634
1.128633,647
1.1303,617
1.131967,587
1.133633,638
1.1353,619
1.136967,599
1.138633,619
1.1403,628
1.141967,637
1.143633,428
1.1453,653
1.146967,705
1.148633,516
1.1503,666
1.151967,603
1.153633,614
1.1553,681
1.156967,727
1.158633,801
1.1603,727
1.161967,771
1.163633,676
1.1653,559
1.166967,550
1.168633,615
1.1703,570
1.171967,597
1.173633,625
1.1753,629
1.176967,636
1.178633,644
1.1803,544
1.181967,714
1.183633,636
1.1853,804
1.186967,707
1.188633,515
1.1903,716
1.191967,634
1.193633,613
1.1953,673
1.196967,733
1.198633,544
