"SampleName","A2Rd2_01-80"
"Target Mass 1",
"Column Name","IA-3 (3um, 4.6X100)"
"Channel","QDa 1: SIR Ch1"
0.00195,321
0.003616667,517
0.005283333,466
0.00695,435
0.008616666,529
0.01028333,663
0.01195,645
0.01361667,474
0.01528333,599
0.01695,618
0.01861667,621
0.02028333,601
0.02195,582
0.02361667,595
0.02528333,606
0.02695,618
0.02861667,509
0.03028333,491
0.03195,550
0.03361667,534
0.03528333,518
0.03695,544
0.03861667,570
0.04028333,588
0.04195,416
0.04361667,486
0.04528333,636
0.04695,518
0.04861667,699
0.05028334,390
0.05195,533
0.05361667,600
0.05528333,677
0.05695,602
0.05861667,693
0.06028333,500
0.06195,573
0.06361666,645
0.06528334,689
0.06695,593
0.06861667,455
0.07028333,581
0.07195,465
0.07361667,395
0.07528333,558
0.07695,414
0.07861666,454
0.08028334,494
0.08195,513
0.08361667,532
0.08528333,584
0.08695,605
0.08861667,631
0.09028333,513
0.09195,461
0.09361666,406
0.09528334,544
0.09695,500
0.09861667,638
0.1002833,569
0.10195,531
0.1036167,513
0.1052833,529
0.10695,506
0.1086167,568
0.1102833,614
0.11195,588
0.1136167,439
0.1152833,564
0.11695,455
0.1186167,416
0.1202833,468
0.12195,409
0.1236167,407
0.1252833,405
0.12695,604
0.1286167,616
0.1302833,663
0.13195,398
0.1336167,638
0.1352833,551
0.13695,438
0.1386167,560
0.1402833,569
0.14195,452
0.1436167,476
0.1452833,471
0.14695,548
0.1486167,602
0.1502833,558
0.15195,451
0.1536167,445
0.1552833,558
0.15695,502
0.1586167,465
0.1602833,525
0.16195,508
0.1636167,454
0.1652833,523
0.16695,427
0.1686167,511
0.1702833,394
0.17195,489
0.1736167,451
0.1752833,414
0.17695,451
0.1786167,487
0.1802833,505
0.18195,497
0.1836167,490
0.1852833,506
0.18695,522
0.1886167,410
0.1902833,539
0.19195,495
0.1936167,566
0.1952833,572
0.19695,588
0.1986167,604
0.2002833,386
0.20195,615
0.2036167,556
0.2052833,431
0.20695,419
0.2086167,554
0.2103,529
0.21195,613
0.2136167,382
0.2152833,360
0.21695,469
0.2186167,522
0.2202833,574
0.22195,560
0.2236167,417
0.2252833,440
0.22695,542
0.2286167,487
0.2302833,427
0.23195,523
0.2336167,460
0.2352833,503
0.23695,529
0.2386167,555
0.2402833,381
0.24195,554
0.2436167,516
0.2452833,597
0.24695,460
0.2486167,417
0.2502833,462
0.25195,475
0.2536167,489
0.2552833,488
0.25695,487
0.2586167,528
0.2602833,391
0.26195,510
0.2636333,548
0.2652833,587
0.26695,561
0.2686167,577
0.2702833,507
0.27195,401
0.2736167,652
0.2753,589
0.27695,547
0.2786167,459
0.2803,515
0.28195,534
0.2836167,459
0.2852833,607
0.28695,623
0.2886167,495
0.2902833,513
0.29195,480
0.2936167,325
0.2952833,479
0.29695,498
0.2986333,559
0.3002833,491
0.30195,449
0.3036333,573
0.3052833,595
0.30695,459
0.3086167,617
0.3102833,396
0.31195,562
0.3136167,534
0.3153,546
0.31695,493
0.3186167,525
0.3202833,556
0.3219667,566
0.3236167,498
0.3253,580
0.32695,541
0.3286167,576
0.3302833,538
0.33195,500
0.3336333,605
0.3352833,502
0.3369667,438
0.3386333,547
0.3402833,488
0.34195,594
0.3436167,535
0.3452833,527
0.34695,518
0.3486167,438
0.3503,476
0.3519667,590
0.3536333,618
0.3553,431
0.35695,628
0.3586333,615
0.3602833,623
0.36195,585
0.3636167,715
0.3653,902
0.36695,1662
0.3686333,3375
0.3703,5363
0.3719667,5725
0.3736167,6009
0.3753,7084
0.3769667,6851
0.3786167,7136
0.3802833,7006
0.38195,6313
0.3836167,4773
0.3853,4417
0.3869667,4269
0.3886333,3334
0.3903,2722
0.3919667,2308
0.3936167,2057
0.3952833,1694
0.3969667,1459
0.3986167,1012
0.4003,944
0.4019667,889
0.4036333,722
0.4053,1004
0.4069667,1042
0.4086333,967
0.4103,1040
0.4119667,1271
0.4136333,1203
0.4153,1186
0.4169667,1216
0.4186333,1175
0.4203,1135
0.4219667,1171
0.4236333,1208
0.4253,1178
0.4269667,1141
0.4286333,1090
0.4303,1039
0.4319667,1330
0.4336333,1385
0.4353,1931
0.4369667,2761
0.4386333,4315
0.4403,6051
0.4419667,9276
0.4436333,14908
0.4453,22804
0.4469667,31564
0.4486333,41904
0.4503,54688
0.4519667,68448
0.4536333,83168
0.4553,98736
0.4569667,112992
0.4586333,127936
0.4603,136832
0.4619667,146560
0.4636333,164032
0.4653,181568
0.4669667,193792
0.4686333,210240
0.4703,226496
0.4719667,243712
0.4736333,254080
0.4753,256192
0.4769667,251904
0.4786333,243200
0.4803,226880
0.4819667,201152
0.4836333,179328
0.4853,153024
0.4869667,126416
0.4886333,105504
0.4903,85760
0.4919667,66816
0.4936333,53264
0.4953,40320
0.4969667,31404
0.4986333,24060
0.5003,18488
0.5019667,15092
0.5036333,13108
0.5053,9824
0.5069667,8636
0.5086333,7579
0.5103,6897
0.5119666,6129
0.5136333,5466
0.5153,4832
0.5169666,4405
0.5186333,4050
0.5203,3964
0.5219667,3645
0.5236334,3710
0.5253,3264
0.5269667,3254
0.5286334,2989
0.5303,3035
0.5319667,3196
0.5336334,2650
0.5353,2419
0.5369667,2523
0.5386333,2276
0.5403,2503
0.5419667,2465
0.5436333,2265
0.5453,2141
0.5469667,2181
0.5486333,2144
0.5503,2011
0.5519667,1591
0.5536333,1607
0.5553,1714
0.5569667,1541
0.5586333,1570
0.5603,1472
0.5619667,1654
0.5636333,1645
0.5653,1637
0.5669667,1454
0.5686333,1561
0.5703,1474
0.5719666,1480
0.5736333,1486
0.5753,1391
0.5769666,1322
0.5786333,922
0.5803,1142
0.5819666,1342
0.5836333,1297
0.5853,1419
0.5869667,1267
0.5886334,1289
0.5903,1166
0.5919667,1333
0.5936334,1313
0.5953,1123
0.5969667,1390
0.5986333,1292
0.6003,1301
0.6019667,1412
0.6036333,1222
0.6053,1426
0.6069667,1077
0.6086333,1349
0.6103,1134
0.6119667,1220
0.6136333,1219
0.6153,1154
0.6169667,1218
0.6186333,1241
0.6203,1258
0.6219667,891
0.6236333,1112
0.6253,1141
0.6269667,1038
0.6286333,1071
0.6303,1051
0.6319667,1115
0.6336333,1135
0.6353,1145
0.6369666,926
0.6386333,948
0.6403,989
0.6419666,619
0.6436333,844
0.6453,786
0.6469667,761
0.6486334,799
0.6503,837
0.6519667,877
0.6536334,900
0.6553,791
0.6569667,882
0.6586334,739
0.6603,752
0.6619667,655
0.6636333,727
0.6653,756
0.6669667,845
0.6686333,828
0.6703,618
0.6719667,928
0.6736333,866
0.6753,691
0.6769667,883
0.6786333,989
0.6803,893
0.6819667,655
0.6836333,855
0.6853,766
0.6869667,718
0.6886333,671
0.6903,722
0.6919667,680
0.6936333,786
0.6953,775
0.6969666,763
0.6986333,727
0.7003,749
0.7019666,753
0.7036333,548
0.7053,602
0.7069666,630
0.7086333,715
0.7103,774
0.7119667,741
0.7136334,869
0.7153,835
0.7169667,661
0.7186334,850
0.7203,767
0.7219667,723
0.7236333,616
0.7253,630
0.7269667,644
0.7286333,618
0.7303,655
0.7319667,842
0.7336333,793
0.7353,686
0.7369667,676
0.7386333,754
0.7403,758
0.7419667,502
0.7436333,749
0.7453,822
0.7469667,854
0.7486333,774
0.7503,700
0.7519667,787
0.7536333,712
0.7553,726
0.7569667,744
0.7586333,801
0.7603,616
0.7619666,802
0.7636333,790
0.7653,833
0.7669666,682
0.7686333,758
0.7703,861
0.7719667,798
0.7736334,677
0.7753,808
0.7769667,743
0.7786334,669
0.7803,800
0.7819667,710
0.7836334,620
0.7853,628
0.7869667,755
0.7886333,570
0.7903,655
0.7919667,660
0.7936333,666
0.7953,694
0.7969667,706
0.7986333,718
0.8003,628
0.8019667,663
0.8036333,669
0.8053,692
0.8069667,675
0.8086333,748
0.8103,771
0.8119667,776
0.8136333,781
0.8153,741
0.8169667,725
0.8186333,700
0.8203,747
0.8219666,758
0.8236333,769
0.8253,744
0.8269666,719
0.8286333,865
0.8303,810
0.8319666,754
0.8336333,843
0.8353,783
0.8369667,795
0.8386334,807
0.8403,746
0.8419667,906
0.8436334,923
0.8453,847
0.8469667,862
0.8486333,876
0.8503,774
0.8519667,845
0.8536333,931
0.8553,848
0.8569667,815
0.8586333,890
0.8603,745
0.8619667,732
0.8636333,694
0.8653,707
0.8669667,689
0.8686333,619
0.8703,549
0.8719667,686
0.8736333,675
0.8753,831
0.8769667,870
0.8786333,1001
0.8803,1328
0.8819667,1621
0.8836333,2039
0.8853,2387
0.8869666,2828
0.8886333,3438
0.8903,3136
0.8919666,3110
0.8936333,3484
0.8953,3250
0.8969667,3493
0.8986334,3214
0.9003,3318
0.9019667,3422
0.9036334,3464
0.9053,3505
0.9069667,3646
0.9086334,3669
0.9103,3540
0.9119667,3388
0.9136333,3569
0.9153,3739
0.9169667,3609
0.9186333,3460
0.9203,3193
0.9219667,3510
0.9236333,3392
0.9253,3274
0.9269667,3108
0.9286333,3477
0.9303,3281
0.9319667,3206
0.9336333,3329
0.9353,3448
0.9369667,3076
0.9386333,3009
0.9403,2578
0.9419667,2958
0.9436333,2604
0.9453,2645
0.9469666,2750
0.9486333,2829
0.9503,2537
0.9519666,2466
0.9536333,2346
0.9553,1851
0.9569666,2181
0.9586333,1992
0.9603,1697
0.9619667,1950
0.9636334,1748
0.9653,1566
0.9669667,1224
0.9686334,1573
0.9703,1351
0.9719667,1293
0.9736333,1175
0.9753,1254
0.9769667,988
0.9786333,1144
0.9803,1057
0.9819667,937
0.9836333,863
0.9853,838
0.9869667,577
0.9886333,578
0.9903,627
0.9919667,800
0.9936333,755
0.9953,609
0.9969667,502
0.9986333,721
1.0003,739
1.001967,575
1.003633,702
1.0053,594
1.006967,467
1.008633,545
1.0103,522
1.011967,571
1.013633,632
1.0153,692
1.016967,654
1.018633,720
1.0203,526
1.021967,601
1.023633,475
1.0253,506
1.026967,537
1.028633,485
1.0303,433
1.031967,554
1.033633,620
1.0353,607
1.036967,562
1.038633,641
1.0403,663
1.041967,562
1.043633,714
1.0453,615
1.046967,633
1.048633,593
1.0503,522
1.051967,582
1.053633,580
1.0553,529
1.056967,477
1.058633,646
1.0603,585
1.061967,658
1.063633,715
1.0653,664
1.066967,613
1.068633,672
1.0703,649
1.071967,649
1.073633,621
1.0753,648
1.076967,616
1.078633,689
1.0803,670
1.081967,650
1.083633,689
1.0853,698
1.086967,706
1.088633,692
1.0903,678
1.091967,570
1.093633,621
1.0953,687
1.096967,648
1.098633,668
1.1003,626
1.101967,621
1.103633,616
1.1053,631
1.106967,648
1.108633,655
1.1103,640
1.111967,646
1.113633,652
1.1153,550
1.116967,540
1.118633,719
1.1203,719
1.121967,610
1.123633,532
1.1253,768
1.126967,608
1.128633,672
1.1303,696
1.131967,714
1.133633,693
1.1353,589
1.136967,685
1.138633,710
1.1403,545
1.141967,543
1.143633,700
1.1453,722
1.146967,700
1.148633,651
1.1503,717
1.151967,724
1.153633,732
1.1553,737
1.156967,650
1.158633,646
1.1603,642
1.161967,663
1.163633,683
1.1653,720
1.166967,757
1.168633,765
1.1703,753
1.171967,742
1.173633,782
1.1753,784
1.176967,787
1.178633,809
1.1803,832
1.181967,842
1.183633,789
1.1853,945
1.186967,957
1.188633,912
1.1903,918
1.191967,882
1.193633,898
1.1953,753
1.196967,973
1.198633,842
