"SampleName","A2Rd2_01-49"
"Target Mass 1",
"Column Name","IA-3 (3um, 4.6X100)"
"Channel","QDa 1: SIR Ch1"
0.00195,341
0.003616667,490
0.005283333,536
0.00695,554
0.008616666,554
0.01028333,553
0.01195,389
0.01361667,639
0.01528333,651
0.01695,539
0.01861667,512
0.02028333,569
0.02195,703
0.02361667,703
0.02528333,457
0.02695,582
0.02861667,431
0.03028333,499
0.03195,625
0.03361667,686
0.03528333,640
0.03695,615
0.03861667,495
0.04028333,599
0.04195,687
0.04361667,645
0.04528333,512
0.04695,510
0.04861667,627
0.05028334,565
0.05195,576
0.05361667,467
0.05528333,512
0.05695,494
0.05861667,546
0.06028333,575
0.06195,557
0.06361666,539
0.06528334,504
0.06695,552
0.06861667,531
0.07028333,554
0.07195,576
0.07361667,499
0.07528333,701
0.07695,730
0.07861666,552
0.08028334,498
0.08195,485
0.08361667,501
0.08528333,453
0.08695,405
0.08861667,469
0.09028333,556
0.09195,535
0.09361666,513
0.09528334,437
0.09695,603
0.09861667,625
0.1002833,585
0.10195,622
0.1036167,524
0.1052833,439
0.10695,361
0.1086167,482
0.1102833,602
0.11195,512
0.1136167,422
0.1152833,496
0.11695,503
0.1186167,495
0.1202833,487
0.12195,583
0.1236167,379
0.1252833,563
0.12695,523
0.1286167,457
0.1302833,490
0.13195,522
0.1336167,528
0.1352833,539
0.13695,528
0.1386167,517
0.1402833,530
0.14195,543
0.1436167,529
0.1452833,515
0.14695,487
0.1486167,533
0.1502833,503
0.15195,489
0.1536167,511
0.1552833,581
0.15695,407
0.1586167,634
0.1602833,621
0.16195,643
0.1636167,416
0.1652833,458
0.16695,532
0.1686167,542
0.1702833,521
0.17195,495
0.1736167,504
0.1752833,513
0.17695,459
0.1786167,428
0.1802833,592
0.18195,543
0.1836167,494
0.1852833,562
0.18695,612
0.1886167,659
0.1902833,542
0.19195,676
0.1936167,518
0.1952833,611
0.19695,469
0.1986167,656
0.2002833,556
0.20195,570
0.2036167,470
0.2052833,541
0.20695,461
0.2086167,637
0.2102833,603
0.21195,401
0.2136167,517
0.2152833,407
0.21695,442
0.2186167,507
0.2202833,468
0.22195,413
0.2236167,626
0.2252833,590
0.22695,418
0.2286167,591
0.2302833,415
0.23195,390
0.2336167,393
0.2352833,487
0.23695,503
0.2386167,518
0.2402833,404
0.24195,580
0.2436167,430
0.2453,439
0.24695,449
0.2486167,560
0.2502833,547
0.25195,564
0.2536167,600
0.2552833,651
0.25695,431
0.2586167,523
0.2602833,448
0.26195,469
0.2636333,305
0.2652833,516
0.26695,624
0.2686167,506
0.2702833,493
0.27195,565
0.2736167,570
0.2752833,510
0.27695,554
0.2786167,421
0.2803,490
0.28195,494
0.2836167,481
0.2852833,469
0.28695,522
0.2886167,504
0.2902833,486
0.29195,482
0.2936167,592
0.2952833,582
0.29695,497
0.2986333,589
0.3002833,588
0.30195,598
0.3036333,462
0.3052833,717
0.3069667,636
0.3086167,651
0.3102833,554
0.31195,629
0.3136167,553
0.3153,590
0.31695,440
0.3186167,619
0.3203,769
0.3219667,691
0.3236167,493
0.3252833,624
0.32695,445
0.3286333,360
0.3302833,534
0.33195,461
0.3336333,587
0.3352833,501
0.3369667,474
0.3386167,529
0.3402833,310
0.34195,476
0.3436167,501
0.3453,654
0.34695,644
0.3486167,585
0.3503,473
0.35195,612
0.3536167,680
0.3553,629
0.3569667,529
0.3586167,695
0.3602833,755
0.3619667,706
0.3636167,1045
0.3652833,1714
0.36695,3740
0.3686333,5666
0.3703,8252
0.3719667,8712
0.3736167,8972
0.3753,7758
0.37695,6830
0.3786333,5927
0.3802833,5243
0.3819667,3457
0.3836333,2353
0.3853,1857
0.38695,1699
0.3886333,1510
0.3902833,1435
0.3919667,1026
0.3936167,903
0.3953,1366
0.39695,1297
0.3986333,1142
0.4002833,1228
0.4019667,1246
0.4036333,1171
0.4053,1682
0.4069667,1748
0.4086333,2189
0.4103,2145
0.4119667,2285
0.4136333,2576
0.4153,2563
0.4169667,2549
0.4186333,2679
0.4203,2719
0.4219667,2758
0.4236333,2951
0.4253,3233
0.4269667,3558
0.4286333,3308
0.4303,3288
0.4319667,4055
0.4336333,4804
0.4353,5704
0.4369667,7049
0.4386333,8924
0.4403,11272
0.4419667,14088
0.4436333,18508
0.4453,23420
0.4469667,29904
0.4486333,39696
0.4503,48928
0.4519667,60688
0.4536333,73376
0.4553,88048
0.4569667,105600
0.4586333,122720
0.4603,149056
0.4619667,173760
0.4636333,203712
0.4653,234880
0.4669667,270080
0.4686333,294912
0.4703,323712
0.4719667,333056
0.4736333,337728
0.4753,333504
0.4769667,315776
0.4786333,286976
0.4803,255296
0.4819667,218176
0.4836333,183744
0.4853,148992
0.4869667,119072
0.4886333,92320
0.4903,72496
0.4919667,54224
0.4936333,42336
0.4953,30964
0.4969667,24396
0.4986333,19748
0.5003,15548
0.5019667,14344
0.5036333,11720
0.5053,10396
0.5069667,8860
0.5086333,7557
0.5103,6934
0.5119666,6558
0.5136333,6058
0.5153,5844
0.5169666,5707
0.5186333,5229
0.5203,4362
0.5219667,4543
0.5236334,4752
0.5253,3965
0.5269667,4165
0.5286334,3990
0.5303,4019
0.5319667,3284
0.5336334,3918
0.5353,3955
0.5369667,3525
0.5386333,3256
0.5403,3401
0.5419667,2964
0.5436333,3168
0.5453,2636
0.5469667,3003
0.5486333,2622
0.5503,2625
0.5519667,2460
0.5536333,2729
0.5553,2171
0.5569667,2567
0.5586333,2623
0.5603,2348
0.5619667,2112
0.5636333,2157
0.5653,2198
0.5669667,1982
0.5686333,2085
0.5703,1933
0.5719666,2020
0.5736333,1938
0.5753,1782
0.5769666,1783
0.5786333,1872
0.5803,1668
0.5819666,1919
0.5836333,1671
0.5853,1940
0.5869667,1848
0.5886334,1804
0.5903,1831
0.5919667,1730
0.5936334,1913
0.5953,1624
0.5969667,1897
0.5986333,1631
0.6003,1946
0.6019667,1720
0.6036333,1727
0.6053,1744
0.6069667,1683
0.6086333,1685
0.6103,1679
0.6119667,1743
0.6136333,1742
0.6153,1742
0.6169667,1716
0.6186333,1691
0.6203,1601
0.6219667,1457
0.6236333,1616
0.6253,1354
0.6269667,1396
0.6286333,1598
0.6303,1581
0.6319667,1618
0.6336333,1392
0.6353,1506
0.6369666,1260
0.6386333,1199
0.6403,1187
0.6419666,1127
0.6436333,1205
0.6453,1193
0.6469667,1181
0.6486334,1152
0.6503,1122
0.6519667,1102
0.6536334,1146
0.6553,1144
0.6569667,1143
0.6586334,1045
0.6603,1034
0.6619667,1098
0.6636333,1107
0.6653,1115
0.6669667,1120
0.6686333,1051
0.6703,1044
0.6719667,1144
0.6736333,1136
0.6753,1127
0.6769667,1172
0.6786333,1216
0.6803,1257
0.6819667,970
0.6836333,1060
0.6853,983
0.6869667,954
0.6886333,967
0.6903,1149
0.6919667,1106
0.6936333,867
0.6953,952
0.6969666,1155
0.6986333,926
0.7003,949
0.7019666,1038
0.7036333,943
0.7053,847
0.7069666,962
0.7086333,967
0.7103,973
0.7119667,981
0.7136334,898
0.7153,1052
0.7169667,1024
0.7186334,1008
0.7203,746
0.7219667,966
0.7236333,1033
0.7253,1000
0.7269667,950
0.7286333,810
0.7303,943
0.7319667,943
0.7336333,943
0.7353,877
0.7369667,757
0.7386333,818
0.7403,933
0.7419667,855
0.7436333,887
0.7453,769
0.7469667,741
0.7486333,848
0.7503,884
0.7519667,828
0.7536333,755
0.7553,857
0.7569667,698
0.7586333,798
0.7603,898
0.7619666,788
0.7636333,724
0.7653,769
0.7669666,899
0.7686333,861
0.7703,871
0.7719667,747
0.7736334,753
0.7753,759
0.7769667,817
0.7786334,794
0.7803,771
0.7819667,837
0.7836334,802
0.7853,1023
0.7869667,996
0.7886333,761
0.7903,976
0.7919667,710
0.7936333,829
0.7953,852
0.7969667,764
0.7986333,649
0.8003,727
0.8019667,752
0.8036333,758
0.8053,774
0.8069667,945
0.8086333,915
0.8103,827
0.8119667,709
0.8136333,779
0.8153,850
0.8169667,896
0.8186333,710
0.8203,793
0.8219666,899
0.8236333,801
0.8253,845
0.8269666,724
0.8286333,764
0.8303,828
0.8319666,737
0.8336333,698
0.8353,728
0.8369667,834
0.8386334,801
0.8403,908
0.8419667,862
0.8436334,708
0.8453,678
0.8469667,683
0.8486333,674
0.8503,664
0.8519667,652
0.8536333,640
0.8553,688
0.8569667,675
0.8586333,663
0.8603,910
0.8619667,871
0.8636333,1094
0.8653,1298
0.8669667,1414
0.8686333,2061
0.8703,2397
0.8719667,1832
0.8736333,2420
0.8753,2597
0.8769667,2146
0.8786333,2640
0.8803,2242
0.8819667,2301
0.8836333,2540
0.8853,2080
0.8869666,2304
0.8886333,2261
0.8903,2304
0.8919666,2348
0.8936333,2192
0.8953,2227
0.8969667,2261
0.8986334,2409
0.9003,2276
0.9019667,2143
0.9036334,2321
0.9053,2528
0.9069667,2445
0.9086334,2034
0.9103,2432
0.9119667,2504
0.9136333,2429
0.9153,2407
0.9169667,1982
0.9186333,2204
0.9203,2531
0.9219667,2460
0.9236333,2420
0.9253,2216
0.9269667,2221
0.9286333,2005
0.9303,1877
0.9319667,2132
0.9336333,2062
0.9353,1914
0.9369667,2057
0.9386333,1924
0.9403,1819
0.9419667,1902
0.9436333,1815
0.9453,1448
0.9469666,1581
0.9486333,1345
0.9503,1551
0.9519666,1547
0.9536333,1473
0.9553,1565
0.9569666,1319
0.9586333,1334
0.9603,1316
0.9619667,1295
0.9636334,973
0.9653,907
0.9669667,985
0.9686334,1002
0.9703,1034
0.9719667,825
0.9736333,750
0.9753,905
0.9769667,753
0.9786333,664
0.9803,818
0.9819667,590
0.9836333,514
0.9853,674
0.9869667,667
0.9886333,645
0.9903,584
0.9919667,513
0.9936333,674
0.9953,557
0.9969667,594
0.9986333,584
1.0003,575
1.001967,451
1.003633,576
1.0053,574
1.006967,572
1.008633,570
1.0103,569
1.011967,675
1.013633,725
1.0153,487
1.016967,550
1.018633,646
1.0203,562
1.021967,530
1.023633,602
1.0253,554
1.026967,510
1.028633,467
1.0303,462
1.031967,458
1.033633,604
1.0353,711
1.036967,621
1.038633,572
1.0403,654
1.041967,693
1.043633,675
1.0453,611
1.046967,603
1.048633,530
1.0503,505
1.051967,567
1.053633,536
1.0553,554
1.056967,585
1.058633,561
1.0603,537
1.061967,585
1.063633,539
1.0653,494
1.066967,605
1.068633,616
1.0703,626
1.071967,558
1.073633,707
1.0753,782
1.076967,710
1.078633,513
1.0803,620
1.081967,611
1.083633,597
1.0853,584
1.086967,535
1.088633,583
1.0903,631
1.091967,707
1.093633,678
1.0953,649
1.096967,615
1.098633,574
1.1003,610
1.101967,648
1.103633,689
1.1053,763
1.106967,837
1.108633,558
1.1103,522
1.111967,651
1.113633,666
1.1153,542
1.116967,462
1.118633,614
1.1203,701
1.121967,694
1.123633,571
1.1253,623
1.126967,662
1.128633,643
1.1303,674
1.131967,631
1.133633,445
1.1353,638
1.136967,542
1.138633,626
1.1403,646
1.141967,679
1.143633,716
1.1453,715
1.146967,589
1.148633,626
1.1503,734
1.151967,589
1.153633,643
1.1553,636
1.156967,626
1.158633,625
1.1603,543
1.161967,527
1.163633,564
1.1653,600
1.166967,595
1.168633,542
1.1703,625
1.171967,577
1.173633,517
1.1753,661
1.176967,581
1.178633,495
1.1803,532
1.181967,569
1.183633,720
1.1853,727
1.186967,529
1.188633,739
1.1903,575
1.191967,611
1.193633,640
1.1953,652
1.196967,591
1.198633,626
