"SampleName","A2Rd2_01-24"
"Target Mass 1",
"Column Name","IA-3 (3um, 4.6X100)"
"Channel","QDa 1: SIR Ch1"
0.00195,199
0.003616667,458
0.005283333,472
0.00695,444
0.008616666,494
0.01028333,492
0.01195,395
0.01361667,521
0.01528333,541
0.01695,455
0.01861667,576
0.02028333,436
0.02195,523
0.02361667,450
0.02528333,607
0.02695,654
0.02861667,397
0.03028333,460
0.03195,573
0.03361667,432
0.03528333,473
0.03695,517
0.03861667,538
0.04028333,506
0.04195,403
0.04361667,567
0.04528333,514
0.04695,535
0.04861667,451
0.05028334,333
0.05195,504
0.05361667,358
0.05528333,289
0.05695,501
0.05861667,446
0.06028333,496
0.06195,395
0.06361666,509
0.06528334,376
0.06695,328
0.06861667,464
0.07028333,422
0.07195,379
0.07361667,397
0.07528333,416
0.07695,398
0.07861666,380
0.08028334,368
0.08195,505
0.08361667,523
0.08528333,536
0.08695,414
0.08861667,507
0.09028333,447
0.09195,399
0.09361666,335
0.09528334,523
0.09695,510
0.09861667,370
0.1002833,461
0.10195,304
0.1036167,451
0.1052833,424
0.10695,384
0.1086167,344
0.1102833,442
0.11195,497
0.1136167,559
0.1152833,620
0.11695,664
0.1186167,428
0.1202833,447
0.12195,507
0.1236167,481
0.1252833,455
0.12695,420
0.1286167,366
0.1302833,449
0.13195,550
0.1336167,562
0.1352833,601
0.13695,520
0.1386167,488
0.1402833,474
0.14195,510
0.1436167,483
0.1452833,456
0.14695,509
0.1486167,510
0.1502833,452
0.15195,438
0.1536167,567
0.1552833,505
0.15695,442
0.1586167,487
0.1602833,607
0.16195,585
0.1636167,473
0.1652833,680
0.16695,438
0.1686167,540
0.1702833,417
0.17195,442
0.1736167,528
0.1752833,531
0.17695,535
0.1786167,409
0.1802833,529
0.18195,430
0.1836167,609
0.1852833,317
0.18695,496
0.1886167,534
0.1902833,513
0.19195,476
0.1936167,601
0.1952833,603
0.19695,460
0.1986167,504
0.2002833,411
0.20195,432
0.2036167,423
0.2052833,414
0.20695,440
0.2086167,426
0.2102833,412
0.21195,408
0.2136167,417
0.2152833,411
0.21695,529
0.2186167,485
0.2202833,441
0.22195,473
0.2236167,504
0.2252833,499
0.22695,495
0.2286167,488
0.2302833,405
0.23195,474
0.2336167,375
0.2352833,495
0.23695,487
0.2386167,428
0.2402833,347
0.24195,460
0.2436167,439
0.2452833,460
0.24695,473
0.2486167,485
0.2502833,520
0.25195,588
0.2536167,387
0.2552833,480
0.25695,357
0.2586167,430
0.2602833,500
0.26195,373
0.2636333,487
0.2652833,486
0.26695,484
0.2686167,421
0.2702833,391
0.27195,480
0.2736167,606
0.2752833,593
0.27695,606
0.2786167,490
0.2803,525
0.28195,366
0.2836167,526
0.2852833,539
0.2869667,336
0.2886167,481
0.2902833,391
0.29195,414
0.2936167,437
0.2952833,454
0.29695,382
0.2986333,405
0.3002833,428
0.30195,501
0.3036167,527
0.3052833,470
0.30695,414
0.3086167,351
0.3102833,684
0.31195,633
0.3136167,499
0.3153,451
0.31695,514
0.3186333,401
0.3203,539
0.32195,492
0.3236167,454
0.3252833,417
0.32695,449
0.3286167,449
0.3303,450
0.33195,426
0.3336333,402
0.3352833,544
0.3369667,527
0.3386167,424
0.3402833,507
0.34195,432
0.3436167,467
0.3453,489
0.34695,411
0.3486167,566
0.3503,610
0.3519667,521
0.3536333,469
0.3553,423
0.3569667,588
0.3586167,535
0.3602833,499
0.3619667,754
0.3636167,733
0.3653,1274
0.36695,2768
0.3686333,5384
0.3703,6412
0.3719667,6896
0.3736167,7777
0.3753,6807
0.37695,5146
0.3786333,4280
0.3802833,3674
0.3819667,3474
0.3836167,3019
0.3853,2696
0.3869667,2552
0.3886333,2274
0.3902833,1916
0.3919667,1642
0.3936167,1545
0.3953,1540
0.39695,1582
0.3986333,1276
0.4002833,1511
0.4019667,1474
0.4036333,1443
0.4053,1208
0.4069667,1355
0.4086333,1202
0.4103,1748
0.4119667,1632
0.4136333,1649
0.4153,1488
0.4169667,1709
0.4186333,1591
0.4203,1473
0.4219667,1661
0.4236333,1489
0.4253,1505
0.4269667,1301
0.4286333,1131
0.4303,1180
0.4319667,1340
0.4336333,1659
0.4353,2062
0.4369667,2935
0.4386333,3734
0.4403,5065
0.4419667,7103
0.4436333,9428
0.4453,12128
0.4469667,16252
0.4486333,21352
0.4503,28672
0.4519667,36624
0.4536333,46848
0.4553,63824
0.4569667,84800
0.4586333,115824
0.4603,149504
0.4619667,194112
0.4636333,246592
0.4653,289280
0.4669667,339264
0.4686333,369600
0.4703,390912
0.4719667,397184
0.4736333,380992
0.4753,343744
0.4769667,308736
0.4786333,260288
0.4803,212736
0.4819667,170496
0.4836333,131968
0.4853,104224
0.4869667,79168
0.4886333,60928
0.4903,47504
0.4919667,35632
0.4936333,29736
0.4953,24468
0.4969667,20528
0.4986333,17288
0.5003,13656
0.5019667,11632
0.5036333,10728
0.5053,9264
0.5069667,8520
0.5086333,6700
0.5103,6609
0.5119666,5770
0.5136333,5514
0.5153,5092
0.5169666,4117
0.5186333,4159
0.5203,4399
0.5219667,3362
0.5236334,3922
0.5253,3473
0.5269667,3655
0.5286334,3174
0.5303,3035
0.5319667,2827
0.5336334,2634
0.5353,2653
0.5369667,2363
0.5386333,2644
0.5403,2875
0.5419667,2313
0.5436333,2181
0.5453,2087
0.5469667,2340
0.5486333,2201
0.5503,1914
0.5519667,2040
0.5536333,1677
0.5553,1748
0.5569667,1617
0.5586333,1631
0.5603,1515
0.5619667,1573
0.5636333,1642
0.5653,1522
0.5669667,1210
0.5686333,1179
0.5703,1256
0.5719666,1240
0.5736333,1259
0.5753,1278
0.5769666,1098
0.5786333,1181
0.5803,1057
0.5819666,844
0.5836333,1227
0.5853,1216
0.5869667,1111
0.5886334,1236
0.5903,1182
0.5919667,1311
0.5936334,1228
0.5953,1228
0.5969667,1380
0.5986333,1110
0.6003,1166
0.6019667,1144
0.6036333,1187
0.6053,1184
0.6069667,1208
0.6086333,1231
0.6103,1238
0.6119667,1106
0.6136333,940
0.6153,1252
0.6169667,1361
0.6186333,1311
0.6203,1111
0.6219667,1053
0.6236333,1000
0.6253,1185
0.6269667,932
0.6286333,1004
0.6303,1032
0.6319667,1043
0.6336333,909
0.6353,930
0.6369666,1019
0.6386333,726
0.6403,1022
0.6419666,864
0.6436333,698
0.6453,739
0.6469667,839
0.6486334,725
0.6503,834
0.6519667,726
0.6536334,580
0.6553,575
0.6569667,570
0.6586334,808
0.6603,762
0.6619667,807
0.6636333,613
0.6653,672
0.6669667,768
0.6686333,649
0.6703,757
0.6719667,599
0.6736333,657
0.6753,714
0.6769667,686
0.6786333,625
0.6803,653
0.6819667,680
0.6836333,688
0.6853,644
0.6869667,659
0.6886333,674
0.6903,626
0.6919667,438
0.6936333,678
0.6953,614
0.6969666,675
0.6986333,701
0.7003,696
0.7019666,674
0.7036333,470
0.7053,552
0.7069666,588
0.7086333,570
0.7103,566
0.7119667,562
0.7136334,566
0.7153,571
0.7169667,525
0.7186334,618
0.7203,626
0.7219667,640
0.7236333,497
0.7253,606
0.7269667,537
0.7286333,500
0.7303,622
0.7319667,614
0.7336333,471
0.7353,436
0.7369667,621
0.7386333,557
0.7403,493
0.7419667,570
0.7436333,524
0.7453,552
0.7469667,580
0.7486333,428
0.7503,499
0.7519667,690
0.7536333,648
0.7553,470
0.7569667,708
0.7586333,343
0.7603,522
0.7619666,553
0.7636333,476
0.7653,469
0.7669666,461
0.7686333,522
0.7703,584
0.7719667,583
0.7736334,500
0.7753,598
0.7769667,493
0.7786334,655
0.7803,597
0.7819667,528
0.7836334,592
0.7853,547
0.7869667,553
0.7886333,598
0.7903,625
0.7919667,413
0.7936333,471
0.7953,602
0.7969667,387
0.7986333,543
0.8003,534
0.8019667,429
0.8036333,466
0.8053,502
0.8069667,432
0.8086333,406
0.8103,346
0.8119667,452
0.8136333,413
0.8153,375
0.8169667,459
0.8186333,544
0.8203,510
0.8219666,539
0.8236333,521
0.8253,541
0.8269666,402
0.8286333,429
0.8303,656
0.8319666,598
0.8336333,607
0.8353,517
0.8369667,601
0.8386334,467
0.8403,634
0.8419667,407
0.8436334,607
0.8453,649
0.8469667,477
0.8486333,451
0.8503,608
0.8519667,527
0.8536333,565
0.8553,388
0.8569667,441
0.8586333,561
0.8603,482
0.8619667,570
0.8636333,489
0.8653,567
0.8669667,439
0.8686333,403
0.8703,371
0.8719667,358
0.8736333,480
0.8753,467
0.8769667,550
0.8786333,365
0.8803,558
0.8819667,547
0.8836333,638
0.8853,630
0.8869666,622
0.8886333,965
0.8903,1037
0.8919666,1099
0.8936333,1240
0.8953,1511
0.8969667,1485
0.8986334,1399
0.9003,1414
0.9019667,1418
0.9036334,1400
0.9053,1407
0.9069667,1529
0.9086334,1576
0.9103,1224
0.9119667,1685
0.9136333,1524
0.9153,1461
0.9169667,1240
0.9186333,1328
0.9203,1403
0.9219667,1543
0.9236333,1546
0.9253,1616
0.9269667,1374
0.9286333,1476
0.9303,1531
0.9319667,1607
0.9336333,1340
0.9353,1240
0.9369667,1492
0.9386333,1553
0.9403,1410
0.9419667,1550
0.9436333,1382
0.9453,1346
0.9469666,1204
0.9486333,1232
0.9503,1120
0.9519666,1178
0.9536333,1200
0.9553,828
0.9569666,1004
0.9586333,1049
0.9603,850
0.9619667,1117
0.9636334,825
0.9653,614
0.9669667,749
0.9686334,523
0.9703,708
0.9719667,618
0.9736333,599
0.9753,720
0.9769667,624
0.9786333,448
0.9803,643
0.9819667,561
0.9836333,478
0.9853,491
0.9869667,491
0.9886333,503
0.9903,406
0.9919667,480
0.9936333,484
0.9953,420
0.9969667,408
0.9986333,397
1.0003,386
1.001967,311
1.003633,442
1.0053,360
1.006967,509
1.008633,446
1.0103,542
1.011967,356
1.013633,456
1.0153,363
1.016967,513
1.018633,467
1.0203,420
1.021967,476
1.023633,483
1.0253,489
1.026967,473
1.028633,440
1.0303,429
1.031967,540
1.033633,526
1.0353,440
1.036967,375
1.038633,322
1.0403,405
1.041967,412
1.043633,530
1.0453,539
1.046967,405
1.048633,380
1.0503,591
1.051967,357
1.053633,523
1.0553,523
1.056967,501
1.058633,454
1.0603,335
1.061967,494
1.063633,493
1.0653,412
1.066967,543
1.068633,495
1.0703,447
1.071967,477
1.073633,441
1.0753,554
1.076967,484
1.078633,415
1.0803,409
1.081967,486
1.083633,366
1.0853,447
1.086967,451
1.088633,487
1.0903,454
1.091967,422
1.093633,385
1.0953,367
1.096967,430
1.098633,372
1.1003,402
1.101967,510
1.103633,493
1.1053,442
1.106967,439
1.108633,486
1.1103,426
1.111967,556
1.113633,527
1.1153,431
1.116967,380
1.118633,471
1.1203,426
1.121967,362
1.123633,439
1.1253,417
1.126967,396
1.128633,411
1.1303,426
1.131967,453
1.133633,438
1.1353,454
1.136967,469
1.138633,356
1.1403,504
1.141967,570
1.143633,380
1.1453,596
1.146967,465
1.148633,601
1.1503,436
1.151967,412
1.153633,429
1.1553,489
1.156967,487
1.158633,376
1.1603,516
1.161967,516
1.163633,585
1.1653,439
1.166967,357
1.168633,470
1.1703,581
1.171967,606
1.173633,470
1.1753,417
1.176967,551
1.178633,558
1.1803,370
1.181967,534
1.183633,543
1.1853,395
1.186967,366
1.188633,566
1.1903,409
1.191967,356
1.193633,556
1.1953,470
1.196967,441
1.198633,419
