"SampleName","A2Rd2_01-56"
"Target Mass 1",
"Column Name","IA-3 (3um, 4.6X100)"
"Channel","QDa 1: SIR Ch1"
0.00195,336
0.003616667,406
0.005283333,518
0.00695,572
0.008616666,629
0.01028333,615
0.01195,557
0.01361667,656
0.01528333,586
0.01695,598
0.01861667,611
0.02028333,533
0.02195,617
0.02361667,524
0.02528333,619
0.02695,540
0.02861667,412
0.03028333,805
0.03195,717
0.03361667,594
0.03528333,702
0.03695,522
0.03861667,595
0.04028333,437
0.04195,469
0.04361667,500
0.04528333,521
0.04695,541
0.04861667,460
0.05028334,438
0.05195,484
0.05361667,507
0.05528333,530
0.05695,493
0.05861667,598
0.06028333,640
0.06195,429
0.06361666,531
0.06528334,606
0.06695,523
0.06861667,562
0.07028333,601
0.07195,559
0.07361667,476
0.07528333,614
0.07695,559
0.07861666,686
0.08028334,605
0.08195,506
0.08361667,519
0.08528333,511
0.08695,551
0.08861667,414
0.09028333,453
0.09195,488
0.09361666,490
0.09528334,491
0.09695,561
0.09861667,527
0.1002833,492
0.10195,461
0.1036167,489
0.1052833,517
0.10695,382
0.1086167,494
0.1102833,464
0.11195,413
0.1136167,417
0.1152833,420
0.11695,551
0.1186167,585
0.1202833,522
0.12195,573
0.1236167,476
0.1252833,489
0.12695,531
0.1286167,567
0.1302833,565
0.13195,483
0.1336167,469
0.1352833,502
0.13695,536
0.1386167,585
0.1402833,413
0.14195,664
0.1436167,646
0.1452833,623
0.14695,532
0.1486167,514
0.1502833,554
0.15195,539
0.1536167,523
0.1552833,556
0.15695,652
0.1586167,644
0.1602833,466
0.16195,486
0.1636167,560
0.1652833,525
0.16695,489
0.1686167,483
0.1702833,501
0.17195,493
0.1736167,485
0.1752833,483
0.17695,481
0.1786167,508
0.1802833,471
0.18195,434
0.1836167,540
0.1852833,563
0.18695,399
0.1886167,475
0.1902833,555
0.19195,506
0.1936167,545
0.1952833,542
0.19695,539
0.1986167,604
0.2002833,383
0.20195,482
0.2036167,492
0.2052833,470
0.20695,448
0.2086167,533
0.2102833,529
0.21195,525
0.2136167,497
0.2152833,438
0.21695,531
0.2186167,467
0.2202833,489
0.22195,542
0.2236167,511
0.2252833,480
0.22695,497
0.2286333,515
0.2302833,605
0.23195,602
0.2336167,553
0.2352833,484
0.23695,532
0.2386167,553
0.2402833,537
0.24195,520
0.2436167,519
0.2453,518
0.24695,487
0.2486167,458
0.2502833,476
0.25195,494
0.2536167,510
0.2552833,508
0.25695,640
0.2586167,542
0.2602833,445
0.26195,409
0.2636333,581
0.2652833,542
0.26695,535
0.2686167,522
0.2703,622
0.27195,603
0.2736167,498
0.2752833,612
0.27695,404
0.2786167,490
0.2803,426
0.28195,559
0.2836167,607
0.2852833,527
0.28695,626
0.2886167,551
0.2902833,469
0.2919667,628
0.2936167,564
0.2953,563
0.29695,461
0.2986333,581
0.3002833,614
0.30195,660
0.3036167,625
0.3052833,577
0.30695,683
0.3086333,640
0.3102833,500
0.3119667,529
0.3136167,646
0.3153,637
0.3169667,517
0.3186167,631
0.3202833,565
0.3219667,532
0.3236167,677
0.3253,630
0.32695,600
0.3286167,617
0.3302833,601
0.33195,585
0.3336333,632
0.3353,428
0.3369667,522
0.3386333,486
0.3402833,479
0.3419667,471
0.3436167,492
0.3453,513
0.34695,469
0.3486333,425
0.3503,432
0.3519667,451
0.3536333,483
0.3553,516
0.3569667,503
0.3586333,491
0.3602833,655
0.3619667,755
0.3636167,941
0.3653,1232
0.3669667,2365
0.3686333,4061
0.3703,5995
0.3719667,6531
0.3736167,7160
0.3753,7167
0.3769667,5963
0.3786333,5369
0.3802833,4364
0.3819667,3723
0.3836333,3221
0.3853,2303
0.3869667,1900
0.3886333,1371
0.3903,1291
0.3919667,1168
0.3936333,1103
0.3953,964
0.3969667,1145
0.3986333,1283
0.4003,1175
0.4019667,1052
0.4036333,1182
0.4053,1383
0.4069667,1844
0.4086333,2063
0.4103,2006
0.4119667,1858
0.4136333,2171
0.4153,2322
0.4169667,2315
0.4186333,2365
0.4203,2160
0.4219667,2323
0.4236333,2345
0.4253,2367
0.4269667,2063
0.4286333,2548
0.4303,2666
0.4319667,3392
0.4336333,3884
0.4353,5081
0.4369667,7216
0.4386333,9732
0.4403,12572
0.4419667,16672
0.4436333,21584
0.4453,28372
0.4469667,37536
0.4486333,45792
0.4503,56688
0.4519667,71504
0.4536333,85776
0.4553,102896
0.4569667,120112
0.4586333,138432
0.4603,158592
0.4619667,185728
0.4636333,211648
0.4653,245056
0.4669667,274752
0.4686333,307712
0.4703,332288
0.4719667,349568
0.4736333,366848
0.4753,359872
0.4769667,354944
0.4786333,326848
0.4803,292032
0.4819667,260992
0.4836333,220288
0.4853,187392
0.4869667,148864
0.4886333,119904
0.4903,89872
0.4919667,70208
0.4936333,52640
0.4953,41488
0.4969667,32420
0.4986333,24616
0.5003,19440
0.5019667,15196
0.5036333,12656
0.5053,10884
0.5069667,9500
0.5086333,8532
0.5103,7562
0.5119666,6692
0.5136333,6514
0.5153,5763
0.5169666,5645
0.5186333,5115
0.5203,4461
0.5219667,4710
0.5236334,4466
0.5253,4318
0.5269667,4208
0.5286334,3909
0.5303,4120
0.5319667,3566
0.5336334,3628
0.5353,3440
0.5369667,3404
0.5386333,3315
0.5403,3471
0.5419667,3290
0.5436333,3207
0.5453,3169
0.5469667,3209
0.5486333,2531
0.5503,2797
0.5519667,2789
0.5536333,2598
0.5553,2507
0.5569667,2416
0.5586333,2688
0.5603,2314
0.5619667,2368
0.5636333,2156
0.5653,2374
0.5669667,2023
0.5686333,2332
0.5703,1878
0.5719666,1954
0.5736333,1867
0.5753,1832
0.5769666,1797
0.5786333,2355
0.5803,2469
0.5819666,2156
0.5836333,1902
0.5853,2201
0.5869667,2216
0.5886334,2149
0.5903,2023
0.5919667,2121
0.5936334,1893
0.5953,1889
0.5969667,1882
0.5986333,1924
0.6003,2090
0.6019667,2129
0.6036333,2125
0.6053,1980
0.6069667,2012
0.6086333,2045
0.6103,1887
0.6119667,1973
0.6136333,2221
0.6153,1706
0.6169667,1783
0.6186333,1658
0.6203,1764
0.6219667,1869
0.6236333,1604
0.6253,1906
0.6269667,1790
0.6286333,1737
0.6303,1770
0.6319667,1604
0.6336333,1335
0.6353,1383
0.6369666,1492
0.6386333,1521
0.6403,1467
0.6419666,1351
0.6436333,1358
0.6453,1199
0.6469667,1368
0.6486334,1325
0.6503,1226
0.6519667,1285
0.6536334,1252
0.6553,1144
0.6569667,1036
0.6586334,1137
0.6603,1238
0.6619667,1215
0.6636333,1193
0.6653,1299
0.6669667,1335
0.6686333,1276
0.6703,1394
0.6719667,1153
0.6736333,1256
0.6753,1274
0.6769667,1169
0.6786333,1151
0.6803,1203
0.6819667,1067
0.6836333,1206
0.6853,1147
0.6869667,1151
0.6886333,1177
0.6903,1202
0.6919667,1224
0.6936333,1245
0.6953,1025
0.6969666,1334
0.6986333,956
0.7003,1159
0.7019666,1075
0.7036333,1259
0.7053,1135
0.7069666,1118
0.7086333,1101
0.7103,1078
0.7119667,1110
0.7136334,1142
0.7153,1259
0.7169667,1324
0.7186334,1028
0.7203,1106
0.7219667,1046
0.7236333,1115
0.7253,1088
0.7269667,1061
0.7286333,997
0.7303,1007
0.7319667,1017
0.7336333,1092
0.7353,1076
0.7369667,1061
0.7386333,1081
0.7403,1138
0.7419667,1196
0.7436333,1308
0.7453,1319
0.7469667,1076
0.7486333,1062
0.7503,1352
0.7519667,963
0.7536333,1098
0.7553,1210
0.7569667,1104
0.7586333,1106
0.7603,1108
0.7619666,1035
0.7636333,931
0.7653,1193
0.7669666,1053
0.7686333,1168
0.7703,1213
0.7719667,923
0.7736334,1094
0.7753,921
0.7769667,1085
0.7786334,960
0.7803,986
0.7819667,1053
0.7836334,1035
0.7853,1017
0.7869667,973
0.7886333,1005
0.7903,1062
0.7919667,1098
0.7936333,1091
0.7953,927
0.7969667,1105
0.7986333,954
0.8003,814
0.8019667,1055
0.8036333,938
0.8053,830
0.8069667,972
0.8086333,1025
0.8103,1122
0.8119667,1121
0.8136333,1121
0.8153,987
0.8169667,991
0.8186333,875
0.8203,1021
0.8219666,1009
0.8236333,1115
0.8253,1100
0.8269666,1233
0.8286333,897
0.8303,1050
0.8319666,1125
0.8336333,1193
0.8353,1095
0.8369667,997
0.8386334,1160
0.8403,1100
0.8419667,1062
0.8436334,1189
0.8453,1168
0.8469667,1148
0.8486333,917
0.8503,1072
0.8519667,1223
0.8536333,968
0.8553,895
0.8569667,804
0.8586333,781
0.8603,813
0.8619667,845
0.8636333,1170
0.8653,1714
0.8669667,1987
0.8686333,2589
0.8703,2946
0.8719667,4020
0.8736333,3854
0.8753,4358
0.8769667,4566
0.8786333,4589
0.8803,4573
0.8819667,4598
0.8836333,4536
0.8853,4474
0.8869666,4583
0.8886333,4692
0.8903,4630
0.8919666,4353
0.8936333,4646
0.8953,4547
0.8969667,4713
0.8986334,4297
0.9003,4683
0.9019667,4903
0.9036334,4524
0.9053,5021
0.9069667,4311
0.9086334,4358
0.9103,4744
0.9119667,4487
0.9136333,4744
0.9153,4424
0.9169667,4743
0.9186333,3781
0.9203,4407
0.9219667,4365
0.9236333,3987
0.9253,4366
0.9269667,3667
0.9286333,3694
0.9303,3473
0.9319667,3706
0.9336333,3691
0.9353,2837
0.9369667,3265
0.9386333,2961
0.9403,3256
0.9419667,2452
0.9436333,2842
0.9453,2610
0.9469666,2464
0.9486333,2271
0.9503,2691
0.9519666,2242
0.9536333,1848
0.9553,1903
0.9569666,2013
0.9586333,1725
0.9603,1515
0.9619667,1630
0.9636334,1376
0.9653,1600
0.9669667,1590
0.9686334,1238
0.9703,1365
0.9719667,1113
0.9736333,1059
0.9753,1047
0.9769667,1104
0.9786333,1065
0.9803,744
0.9819667,587
0.9836333,936
0.9853,675
0.9869667,773
0.9886333,875
0.9903,709
0.9919667,723
0.9936333,689
0.9953,654
0.9969667,730
0.9986333,647
1.0003,639
1.001967,630
1.003633,837
1.0053,816
1.006967,789
1.008633,852
1.0103,721
1.011967,777
1.013633,553
1.0153,793
1.016967,751
1.018633,697
1.0203,831
1.021967,679
1.023633,827
1.0253,757
1.026967,645
1.028633,852
1.0303,716
1.031967,681
1.033633,820
1.0353,785
1.036967,751
1.038633,756
1.0403,589
1.041967,626
1.043633,696
1.0453,663
1.046967,629
1.048633,689
1.0503,681
1.051967,674
1.053633,655
1.0553,635
1.056967,674
1.058633,712
1.0603,737
1.061967,691
1.063633,645
1.0653,744
1.066967,729
1.068633,669
1.0703,674
1.071967,572
1.073633,683
1.0753,800
1.076967,806
1.078633,753
1.0803,699
1.081967,627
1.083633,651
1.0853,675
1.086967,754
1.088633,536
1.0903,695
1.091967,738
1.093633,673
1.0953,657
1.096967,641
1.098633,649
1.1003,657
1.101967,658
1.103633,654
1.1053,651
1.106967,634
1.108633,794
1.1103,756
1.111967,718
1.113633,679
1.1153,718
1.116967,727
1.118633,732
1.1203,686
1.121967,690
1.123633,801
1.1253,726
1.126967,651
1.128633,774
1.1303,767
1.131967,759
1.133633,780
1.1353,698
1.136967,756
1.138633,714
1.1403,780
1.141967,780
1.143633,780
1.1453,622
1.146967,724
1.148633,650
1.1503,813
1.151967,849
1.153633,885
1.1553,938
1.156967,542
1.158633,874
1.1603,741
1.161967,889
1.163633,838
1.1653,848
1.166967,723
1.168633,601
1.1703,763
1.171967,597
1.173633,699
1.1753,779
1.176967,682
1.178633,742
1.1803,815
1.181967,723
1.183633,769
1.1853,759
1.186967,699
1.188633,791
1.1903,637
1.191967,724
1.193633,811
1.1953,809
1.196967,619
1.198633,738
