"SampleName","A2Rd2_01-58"
"Target Mass 1",
"Column Name","IA-3 (3um, 4.6X100)"
"Channel","QDa 1: SIR Ch1"
0.00195,371
0.003616667,605
0.005283333,655
0.00695,639
0.008616666,667
0.01028333,596
0.01195,409
0.01361667,503
0.01528333,646
0.01695,518
0.01861667,613
0.02028333,560
0.02195,507
0.02361667,498
0.02528333,560
0.02695,587
0.02861667,606
0.03028333,625
0.03195,474
0.03361667,571
0.03528333,692
0.03695,646
0.03861667,516
0.04028333,503
0.04195,684
0.04361667,590
0.04528333,623
0.04695,622
0.04861667,680
0.05028334,534
0.05195,442
0.05361667,553
0.05528333,549
0.05695,491
0.05861667,511
0.06028333,489
0.06195,476
0.06361666,463
0.06528334,512
0.06695,419
0.06861667,567
0.07028333,549
0.07195,607
0.07361667,503
0.07528333,495
0.07695,503
0.07861666,534
0.08028334,534
0.08195,535
0.08361667,537
0.08528333,540
0.08695,548
0.08861667,557
0.09028333,492
0.09195,418
0.09361666,566
0.09528334,549
0.09695,439
0.09861667,505
0.1002833,604
0.10195,578
0.1036167,530
0.1052833,577
0.10695,536
0.1086167,498
0.1102833,584
0.11195,459
0.1136167,457
0.1152833,598
0.11695,551
0.1186167,503
0.1202833,577
0.12195,455
0.1236167,513
0.1252833,571
0.12695,593
0.1286167,501
0.1302833,515
0.13195,530
0.1336167,541
0.1352833,483
0.13695,557
0.1386167,462
0.1402833,530
0.14195,638
0.1436167,684
0.1452833,559
0.14695,576
0.1486167,466
0.1502833,506
0.15195,600
0.1536167,542
0.1552833,513
0.15695,610
0.1586167,555
0.1602833,466
0.16195,528
0.1636167,529
0.1652833,425
0.16695,572
0.1686167,511
0.1702833,528
0.17195,566
0.1736167,539
0.1752833,468
0.17695,581
0.1786167,431
0.1802833,567
0.18195,559
0.1836167,423
0.1852833,601
0.18695,555
0.1886167,506
0.1902833,457
0.19195,591
0.1936167,572
0.1952833,589
0.19695,586
0.1986167,540
0.2002833,541
0.20195,560
0.2036167,557
0.2052833,554
0.20695,467
0.2086167,572
0.2102833,278
0.21195,537
0.2136167,445
0.2152833,536
0.21695,550
0.2186167,554
0.2202833,457
0.22195,439
0.2236167,561
0.2252833,484
0.22695,628
0.2286167,598
0.2302833,422
0.23195,670
0.2336167,529
0.2352833,587
0.23695,467
0.2386167,474
0.2402833,485
0.24195,505
0.2436167,526
0.2453,601
0.24695,627
0.2486167,699
0.2502833,420
0.25195,435
0.2536167,573
0.2552833,605
0.25695,442
0.2586167,528
0.2602833,501
0.26195,555
0.2636167,370
0.2652833,373
0.26695,436
0.2686167,499
0.2702833,549
0.27195,543
0.2736167,460
0.2752833,546
0.27695,429
0.2786167,545
0.2803,623
0.28195,542
0.2836167,629
0.2852833,594
0.28695,452
0.2886167,559
0.2902833,460
0.29195,605
0.2936167,572
0.2952833,447
0.29695,657
0.2986333,657
0.3002833,402
0.30195,495
0.3036167,679
0.3052833,488
0.30695,573
0.3086167,496
0.3102833,492
0.31195,487
0.3136167,505
0.3153,570
0.31695,591
0.3186167,532
0.3202833,585
0.32195,611
0.3236167,559
0.3252833,692
0.32695,459
0.3286167,486
0.3302833,539
0.33195,438
0.3336333,569
0.3352833,545
0.33695,521
0.3386167,557
0.3402833,574
0.34195,512
0.3436167,593
0.3452833,596
0.34695,612
0.3486167,439
0.3503,537
0.3519667,656
0.3536333,651
0.3553,697
0.3569667,544
0.3586333,534
0.3602833,571
0.36195,690
0.3636167,848
0.3652833,1397
0.36695,2426
0.3686333,5068
0.3703,6136
0.3719667,6779
0.3736167,7382
0.3753,6727
0.37695,6671
0.3786167,5258
0.3802833,4424
0.38195,3567
0.3836167,3428
0.3853,2056
0.38695,1835
0.3886167,1402
0.3902833,1169
0.39195,921
0.3936333,1169
0.3952833,1155
0.39695,921
0.3986167,1035
0.4002833,1160
0.40195,1212
0.4036333,1172
0.4053,1478
0.4069667,1489
0.4086333,2055
0.4103,2142
0.41195,1911
0.4136167,2009
0.4153,2103
0.41695,2090
0.4186167,2077
0.4203,2462
0.4219667,2379
0.4236333,2541
0.4253,2533
0.4269667,2822
0.4286333,3204
0.4303,3431
0.4319667,4255
0.4336333,5362
0.4353,6980
0.4369667,9096
0.4386333,11140
0.4403,15676
0.4419667,20256
0.4436333,26596
0.4453,32448
0.4469667,44032
0.4486333,55216
0.4503,66208
0.4519667,81136
0.4536333,98656
0.4553,115792
0.4569667,134400
0.4586333,152960
0.4603,177472
0.4619667,200704
0.4636333,230656
0.4653,259712
0.4669667,290688
0.4686333,321664
0.4703,347520
0.4719667,370752
0.4736333,384000
0.4753,378624
0.4769667,367616
0.4786333,337280
0.4803,306368
0.4819667,268608
0.4836333,229888
0.4853,190016
0.4869667,153600
0.4886333,122688
0.4903,96080
0.4919667,74832
0.4936333,56752
0.4953,43776
0.4969667,33248
0.4986333,25856
0.5003,21148
0.5019667,16632
0.5036333,13728
0.5053,12388
0.5069667,9596
0.5086333,8964
0.5103,8124
0.5119666,7321
0.5136333,7372
0.5153,6090
0.5169666,6143
0.5186333,5484
0.5203,4776
0.5219667,5141
0.5236334,4655
0.5253,4763
0.5269667,4383
0.5286334,4284
0.5303,4492
0.5319667,3650
0.5336334,3694
0.5353,3304
0.5369667,3479
0.5386333,3489
0.5403,3200
0.5419667,2801
0.5436333,3203
0.5453,2911
0.5469667,3182
0.5486333,3005
0.5503,2496
0.5519667,2673
0.5536333,2259
0.5553,2823
0.5569667,2015
0.5586333,2399
0.5603,2170
0.5619667,2190
0.5636333,2199
0.5653,1948
0.5669667,2292
0.5686333,2158
0.5703,1909
0.5719666,2042
0.5736333,2102
0.5753,1722
0.5769666,1678
0.5786333,1801
0.5803,1889
0.5819666,1829
0.5836333,1729
0.5853,1705
0.5869667,1681
0.5886334,1577
0.5903,1837
0.5919667,1837
0.5936334,1956
0.5953,1819
0.5969667,1919
0.5986333,1815
0.6003,1766
0.6019667,1896
0.6036333,1782
0.6053,1668
0.6069667,1783
0.6086333,1736
0.6103,1758
0.6119667,1626
0.6136333,1531
0.6153,1670
0.6169667,1718
0.6186333,1729
0.6203,1705
0.6219667,1681
0.6236333,1664
0.6253,1343
0.6269667,1360
0.6286333,1310
0.6303,1364
0.6319667,1330
0.6336333,1296
0.6353,1260
0.6369666,1306
0.6386333,1274
0.6403,1242
0.6419666,1205
0.6436333,1339
0.6453,1370
0.6469667,1314
0.6486334,981
0.6503,1205
0.6519667,1085
0.6536334,1155
0.6553,1175
0.6569667,1092
0.6586334,1224
0.6603,1301
0.6619667,1041
0.6636333,1291
0.6653,1283
0.6669667,1195
0.6686333,1204
0.6703,989
0.6719667,1244
0.6736333,1012
0.6753,1114
0.6769667,1081
0.6786333,1098
0.6803,1114
0.6819667,1142
0.6836333,1250
0.6853,918
0.6869667,889
0.6886333,1114
0.6903,1164
0.6919667,1067
0.6936333,1002
0.6953,1028
0.6969666,709
0.6986333,903
0.7003,922
0.7019666,970
0.7036333,996
0.7053,951
0.7069666,958
0.7086333,864
0.7103,770
0.7119667,779
0.7136334,788
0.7153,958
0.7169667,927
0.7186334,944
0.7203,954
0.7219667,964
0.7236333,922
0.7253,961
0.7269667,866
0.7286333,884
0.7303,892
0.7319667,919
0.7336333,946
0.7353,750
0.7369667,994
0.7386333,920
0.7403,1000
0.7419667,963
0.7436333,948
0.7453,933
0.7469667,867
0.7486333,869
0.7503,862
0.7519667,832
0.7536333,801
0.7553,940
0.7569667,939
0.7586333,883
0.7603,904
0.7619666,820
0.7636333,845
0.7653,814
0.7669666,782
0.7686333,877
0.7703,837
0.7719667,684
0.7736334,865
0.7753,900
0.7769667,962
0.7786334,765
0.7803,663
0.7819667,850
0.7836334,880
0.7853,757
0.7869667,780
0.7886333,773
0.7903,766
0.7919667,770
0.7936333,773
0.7953,804
0.7969667,834
0.7986333,825
0.8003,815
0.8019667,843
0.8036333,713
0.8053,816
0.8069667,735
0.8086333,821
0.8103,893
0.8119667,881
0.8136333,927
0.8153,918
0.8169667,922
0.8186333,875
0.8203,888
0.8219666,902
0.8236333,895
0.8253,867
0.8269666,949
0.8286333,747
0.8303,760
0.8319666,762
0.8336333,764
0.8353,751
0.8369667,737
0.8386334,802
0.8403,769
0.8419667,737
0.8436334,610
0.8453,806
0.8469667,743
0.8486333,852
0.8503,773
0.8519667,694
0.8536333,780
0.8553,769
0.8569667,758
0.8586333,787
0.8603,749
0.8619667,684
0.8636333,978
0.8653,986
0.8669667,1146
0.8686333,1821
0.8703,2108
0.8719667,2635
0.8736333,2595
0.8753,2862
0.8769667,3168
0.8786333,3000
0.8803,3142
0.8819667,2827
0.8836333,2875
0.8853,3243
0.8869666,2677
0.8886333,3137
0.8903,3103
0.8919666,3064
0.8936333,2581
0.8953,2498
0.8969667,2807
0.8986334,2945
0.9003,2932
0.9019667,2923
0.9036334,2856
0.9053,2840
0.9069667,2825
0.9086334,2621
0.9103,3086
0.9119667,3118
0.9136333,3244
0.9153,2812
0.9169667,2960
0.9186333,3054
0.9203,2905
0.9219667,3002
0.9236333,3035
0.9253,2484
0.9269667,2473
0.9286333,2580
0.9303,2564
0.9319667,2423
0.9336333,2651
0.9353,2709
0.9369667,2405
0.9386333,2279
0.9403,2042
0.9419667,2236
0.9436333,1920
0.9453,2102
0.9469666,2064
0.9486333,1982
0.9503,1681
0.9519666,1667
0.9536333,1669
0.9553,1560
0.9569666,1339
0.9586333,1369
0.9603,1186
0.9619667,1267
0.9636334,1177
0.9653,1082
0.9669667,1395
0.9686334,969
0.9703,1084
0.9719667,1092
0.9736333,701
0.9753,987
0.9769667,899
0.9786333,974
0.9803,760
0.9819667,858
0.9836333,950
0.9853,592
0.9869667,565
0.9886333,779
0.9903,585
0.9919667,749
0.9936333,669
0.9953,700
0.9969667,573
0.9986333,664
1.0003,810
1.001967,781
1.003633,608
1.0053,769
1.006967,663
1.008633,745
1.0103,610
1.011967,732
1.013633,658
1.0153,534
1.016967,632
1.018633,679
1.0203,599
1.021967,687
1.023633,452
1.0253,565
1.026967,678
1.028633,576
1.0303,593
1.031967,480
1.033633,548
1.0353,561
1.036967,586
1.038633,611
1.0403,613
1.041967,633
1.043633,598
1.0453,563
1.046967,540
1.048633,564
1.0503,588
1.051967,584
1.053633,580
1.0553,578
1.056967,577
1.058633,576
1.0603,550
1.061967,576
1.063633,601
1.0653,457
1.066967,505
1.068633,552
1.0703,714
1.071967,681
1.073633,695
1.0753,687
1.076967,545
1.078633,672
1.0803,716
1.081967,690
1.083633,607
1.0853,562
1.086967,583
1.088633,461
1.0903,653
1.091967,667
1.093633,526
1.0953,678
1.096967,699
1.098633,560
1.1003,552
1.101967,604
1.103633,643
1.1053,655
1.106967,475
1.108633,670
1.1103,496
1.111967,743
1.113633,670
1.1153,625
1.116967,653
1.118633,613
1.1203,620
1.121967,631
1.123633,624
1.1253,617
1.126967,595
1.128633,540
1.1303,587
1.131967,615
1.133633,644
1.1353,646
1.136967,664
1.138633,582
1.1403,677
1.141967,683
1.143633,565
1.1453,651
1.146967,672
1.148633,600
1.1503,547
1.151967,676
1.153633,712
1.1553,618
1.156967,705
1.158633,687
1.1603,687
1.161967,688
1.163633,589
1.1653,734
1.166967,664
1.168633,561
1.1703,714
1.171967,564
1.173633,774
1.1753,779
1.176967,694
1.178633,759
1.1803,556
1.181967,572
1.183633,761
1.1853,691
1.186967,776
1.188633,630
1.1903,698
1.191967,619
1.193633,624
1.1953,628
1.196967,652
1.198633,648
