"SampleName","A2Rd2_01-88"
"Target Mass 1",
"Column Name","IA-3 (3um, 4.6X100)"
"Channel","QDa 1: SIR Ch2"
0.00195,610
0.003616667,721
0.005283333,821
0.00695,623
0.008616666,791
0.01028333,836
0.01195,801
0.01361667,813
0.01528333,825
0.01695,882
0.01861667,885
0.02028333,913
0.02195,922
0.02361667,765
0.02528333,908
0.02695,741
0.02861667,797
0.03028333,813
0.03195,888
0.03361667,964
0.03528333,928
0.03695,820
0.03861667,916
0.04028333,1013
0.04195,988
0.04361667,1041
0.04528333,1030
0.04695,945
0.04861667,1003
0.05028334,864
0.05195,721
0.05361667,833
0.05528333,877
0.05695,819
0.05861667,953
0.06028333,944
0.06195,754
0.06361666,970
0.06528334,1048
0.06695,978
0.06861667,851
0.07028333,840
0.07195,685
0.07361667,780
0.07528333,719
0.07695,838
0.07861666,805
0.08028334,900
0.08195,708
0.08361667,1023
0.08528333,944
0.08695,943
0.08861667,804
0.09028333,906
0.09195,905
0.09361666,657
0.09528334,841
0.09695,905
0.09861667,691
0.1002833,973
0.10195,951
0.1036167,800
0.1052833,982
0.10695,868
0.1086167,861
0.1102833,854
0.11195,706
0.1136167,747
0.1152833,788
0.11695,762
0.1186167,821
0.1202833,875
0.12195,930
0.1236167,695
0.1252833,705
0.12695,845
0.1286167,717
0.1302833,896
0.13195,934
0.1336167,938
0.1352833,764
0.13695,922
0.1386167,786
0.1402833,952
0.14195,821
0.1436167,1000
0.1452833,896
0.14695,951
0.1486167,875
0.1502833,1037
0.15195,1047
0.1536167,652
0.1552833,843
0.15695,875
0.1586167,876
0.1602833,870
0.16195,810
0.1636167,808
0.1652833,806
0.16695,753
0.1686167,897
0.1702833,926
0.17195,808
0.1736167,949
0.1752833,790
0.17695,896
0.1786167,996
0.1802833,839
0.18195,857
0.1836167,774
0.1852833,999
0.18695,1014
0.1886167,999
0.1902833,723
0.19195,724
0.1936167,980
0.1952833,868
0.19695,840
0.1986167,854
0.2002833,760
0.20195,800
0.2036167,841
0.2052833,807
0.20695,907
0.2086167,850
0.2102833,794
0.21195,880
0.2136167,965
0.2152833,1077
0.21695,1035
0.2186167,993
0.2202833,850
0.22195,1220
0.2236167,1118
0.2252833,1095
0.22695,801
0.2286167,1279
0.2302833,1128
0.23195,1109
0.2336167,1107
0.2352833,1059
0.23695,1186
0.2386167,1169
0.2402833,1151
0.24195,1050
0.2436167,1064
0.2453,1078
0.24695,1201
0.2486167,1194
0.2502833,1187
0.25195,893
0.2536167,1053
0.2552833,1142
0.25695,1127
0.2586167,1102
0.2602833,1005
0.26195,1008
0.2636333,1011
0.2652833,1069
0.26695,1128
0.2686167,1126
0.2702833,883
0.27195,1166
0.2736167,1031
0.2752833,1087
0.27695,904
0.2786167,988
0.2803,968
0.28195,949
0.2836167,960
0.2852833,972
0.28695,982
0.2886167,993
0.2902833,1039
0.29195,707
0.2936167,1109
0.2952833,1066
0.29695,1160
0.2986333,1013
0.3002833,861
0.30195,984
0.3036167,961
0.3052833,1159
0.30695,1180
0.3086167,1256
0.3103,1000
0.31195,1109
0.3136167,1227
0.3153,1220
0.31695,1202
0.3186167,1184
0.3203,1227
0.32195,1269
0.3236333,1115
0.3252833,1292
0.3269667,1288
0.3286167,1338
0.3302833,1222
0.3319667,1437
0.3336333,1074
0.3352833,1521
0.3369667,1196
0.3386167,1282
0.3403,1409
0.34195,1326
0.3436167,1278
0.3453,1231
0.34695,1263
0.3486167,1295
0.3503,1378
0.35195,1361
0.3536167,1344
0.3552833,1312
0.3569667,1122
0.3586167,944
0.3603,1179
0.3619667,1304
0.3636333,1715
0.3652833,2147
0.3669667,3503
0.3686333,4121
0.3703,4496
0.3719667,4911
0.3736333,4929
0.3752833,4406
0.3769667,4820
0.3786333,4328
0.3803,3852
0.3819667,3054
0.3836333,3054
0.3853,2565
0.3869667,2075
0.3886333,1367
0.3903,1311
0.3919667,1123
0.3936333,841
0.3953,613
0.3969667,575
0.3986333,506
0.4003,531
0.40195,392
0.4036333,520
0.4053,372
0.4069667,582
0.4086333,501
0.4103,564
0.4119667,660
0.4136333,628
0.4153,628
0.4169667,628
0.4186333,691
0.4203,679
0.4219667,742
0.4236333,760
0.4253,778
0.4269667,664
0.4286333,780
0.4303,778
0.4319667,874
0.4336333,830
0.4353,690
0.4369667,756
0.4386333,815
0.4403,1083
0.4419667,1018
0.4436333,1153
0.4453,1124
0.4469667,959
0.4486333,1216
0.4503,1292
0.4519667,1379
0.4536333,1382
0.4553,1213
0.4569667,1278
0.4586333,1139
0.4603,1279
0.4619667,1228
0.4636333,1465
0.4653,1439
0.4669667,1413
0.4686333,1184
0.4703,1358
0.4719667,1322
0.4736333,1286
0.4753,1241
0.4769667,1291
0.4786333,1280
0.4803,1270
0.4819667,1217
0.4836333,1098
0.4853,1304
0.4869667,1114
0.4886333,1024
0.4903,1149
0.4919667,1134
0.4936333,1082
0.4953,1190
0.4969667,975
0.4986333,1074
0.5003,1076
0.5019667,872
0.5036333,871
0.5053,975
0.5069667,1144
0.5086333,1139
0.5103,776
0.5119666,1165
0.5136333,958
0.5153,833
0.5169666,945
0.5186333,920
0.5203,896
0.5219667,976
0.5236334,926
0.5253,876
0.5269667,910
0.5286334,944
0.5303,888
0.5319667,766
0.5336334,983
0.5353,1017
0.5369667,922
0.5386333,943
0.5403,862
0.5419667,1122
0.5436333,1124
0.5453,921
0.5469667,915
0.5486333,861
0.5503,932
0.5519667,785
0.5536333,970
0.5553,935
0.5569667,899
0.5586333,888
0.5603,730
0.5619667,964
0.5636333,861
0.5653,878
0.5669667,1063
0.5686333,1068
0.5703,867
0.5719666,835
0.5736333,837
0.5753,777
0.5769666,717
0.5786333,799
0.5803,881
0.5819666,889
0.5836333,1041
0.5853,1038
0.5869667,977
0.5886334,936
0.5903,895
0.5919667,874
0.5936334,853
0.5953,771
0.5969667,796
0.5986333,1048
0.6003,1164
0.6019667,940
0.6036333,831
0.6053,987
0.6069667,922
0.6086333,776
0.6103,943
0.6119667,840
0.6136333,871
0.6153,902
0.6169667,852
0.6186333,802
0.6203,956
0.6219667,987
0.6236333,998
0.6253,1009
0.6269667,1007
0.6286333,986
0.6303,903
0.6319667,990
0.6336333,931
0.6353,889
0.6369666,898
0.6386333,921
0.6403,945
0.6419666,665
0.6436333,823
0.6453,869
0.6469667,752
0.6486334,834
0.6503,916
0.6519667,788
0.6536334,964
0.6553,742
0.6569667,816
0.6586334,895
0.6603,976
0.6619667,674
0.6636333,844
0.6653,909
0.6669667,693
0.6686333,710
0.6703,781
0.6719667,763
0.6736333,746
0.6753,802
0.6769667,859
0.6786333,857
0.6803,855
0.6819667,840
0.6836333,825
0.6853,868
0.6869667,912
0.6886333,678
0.6903,885
0.6919667,1087
0.6936333,1136
0.6953,871
0.6969666,1025
0.6986333,1058
0.7003,1022
0.7019666,984
0.7036333,936
0.7053,865
0.7069666,842
0.7086333,851
0.7103,861
0.7119667,823
0.7136334,753
0.7153,896
0.7169667,916
0.7186334,973
0.7203,812
0.7219667,764
0.7236333,934
0.7253,881
0.7269667,829
0.7286333,893
0.7303,895
0.7319667,897
0.7336333,832
0.7353,766
0.7369667,961
0.7386333,637
0.7403,708
0.7419667,779
0.7436333,795
0.7453,810
0.7469667,686
0.7486333,866
0.7503,827
0.7519667,893
0.7536333,746
0.7553,782
0.7569667,807
0.7586333,831
0.7603,830
0.7619666,830
0.7636333,883
0.7653,876
0.7669666,868
0.7686333,841
0.7703,849
0.7719667,856
0.7736334,1014
0.7753,1024
0.7769667,842
0.7786334,736
0.7803,919
0.7819667,809
0.7836334,857
0.7853,905
0.7869667,891
0.7886333,795
0.7903,1068
0.7919667,1006
0.7936333,918
0.7953,845
0.7969667,1067
0.7986333,951
0.8003,924
0.8019667,1030
0.8036333,987
0.8053,988
0.8069667,989
0.8086333,847
0.8103,1058
0.8119667,1052
0.8136333,928
0.8153,804
0.8169667,787
0.8186333,889
0.8203,865
0.8219666,841
0.8236333,1125
0.8253,1159
0.8269666,1051
0.8286333,990
0.8303,1046
0.8319666,956
0.8336333,788
0.8353,1013
0.8369667,1043
0.8386334,969
0.8403,902
0.8419667,983
0.8436334,808
0.8453,917
0.8469667,925
0.8486333,767
0.8503,844
0.8519667,776
0.8536333,631
0.8553,802
0.8569667,826
0.8586333,858
0.8603,741
0.8619667,1017
0.8636333,995
0.8653,1106
0.8669667,767
0.8686333,813
0.8703,808
0.8719667,789
0.8736333,798
0.8753,829
0.8769667,855
0.8786333,880
0.8803,1058
0.8819667,1228
0.8836333,1246
0.8853,967
0.8869666,1247
0.8886333,1487
0.8903,1357
0.8919666,1239
0.8936333,956
0.8953,1281
0.8969667,1234
0.8986334,1239
0.9003,1124
0.9019667,1242
0.9036334,1138
0.9053,1249
0.9069667,1192
0.9086334,1137
0.9103,1122
0.9119667,1108
0.9136333,1102
0.9153,1097
0.9169667,1164
0.9186333,1191
0.9203,1193
0.9219667,1223
0.9236333,1253
0.9253,998
0.9269667,1206
0.9286333,1265
0.9303,1311
0.9319667,1207
0.9336333,1128
0.9353,1358
0.9369667,1201
0.9386333,1188
0.9403,1113
0.9419667,1216
0.9436333,1127
0.9453,1241
0.9469666,1382
0.9486333,993
0.9503,1242
0.9519666,1308
0.9536333,1188
0.9553,1263
0.9569666,1268
0.9586333,1029
0.9603,1062
0.9619667,1186
0.9636334,1074
0.9653,923
0.9669667,857
0.9686334,1019
0.9703,1012
0.9719667,1059
0.9736333,966
0.9753,800
0.9769667,848
0.9786333,1047
0.9803,1041
0.9819667,1053
0.9836333,1064
0.9853,830
0.9869667,853
0.9886333,971
0.9903,830
0.9919667,913
0.9936333,939
0.9953,891
0.9969667,938
0.9986333,920
1.0003,915
1.001967,756
1.003633,964
1.0053,853
1.006967,981
1.008633,813
1.0103,999
1.011967,951
1.013633,943
1.0153,893
1.016967,998
1.018633,1050
1.0203,966
1.021967,881
1.023633,901
1.0253,959
1.026967,838
1.028633,660
1.0303,867
1.031967,828
1.033633,907
1.0353,851
1.036967,906
1.038633,962
1.0403,798
1.041967,1080
1.043633,1029
1.0453,882
1.046967,760
1.048633,975
1.0503,847
1.051967,858
1.053633,830
1.0553,882
1.056967,990
1.058633,1068
1.0603,1015
1.061967,795
1.063633,909
1.0653,855
1.066967,888
1.068633,920
1.0703,922
1.071967,735
1.073633,995
1.0753,941
1.076967,956
1.078633,815
1.0803,771
1.081967,843
1.083633,774
1.0853,705
1.086967,711
1.088633,809
1.0903,856
1.091967,823
1.093633,791
1.0953,871
1.096967,857
1.098633,844
1.1003,803
1.101967,836
1.103633,869
1.1053,1017
1.106967,981
1.108633,889
1.1103,976
1.111967,853
1.113633,936
1.1153,851
1.116967,898
1.118633,819
1.1203,865
1.121967,910
1.123633,940
1.1253,960
1.126967,859
1.128633,952
1.1303,1008
1.131967,743
1.133633,989
1.1353,846
1.136967,896
1.138633,835
1.1403,840
1.141967,879
1.143633,827
1.1453,817
1.146967,810
1.148633,832
1.1503,709
1.151967,740
1.153633,752
1.1553,765
1.156967,854
1.158633,831
1.1603,909
1.161967,929
1.163633,891
1.1653,854
1.166967,865
1.168633,789
1.1703,872
1.171967,867
1.173633,797
1.1753,797
1.176967,791
1.178633,840
1.1803,888
1.181967,871
1.183633,854
1.1853,914
1.186967,652
1.188633,791
1.1903,801
1.191967,889
1.193633,805
1.1953,919
1.196967,806
1.198633,763
