"SampleName","A2Rd2_01-30"
"Target Mass 1",
"Column Name","IA-3 (3um, 4.6X100)"
"Channel","QDa 1: SIR Ch2"
0.00195,484
0.003616667,520
0.005283333,762
0.00695,747
0.008616666,732
0.01028333,827
0.01195,848
0.01361667,810
0.01528333,772
0.01695,857
0.01861667,811
0.02028333,843
0.02195,876
0.02361667,909
0.02528333,851
0.02695,793
0.02861667,920
0.03028333,892
0.03195,768
0.03361667,869
0.03528333,911
0.03695,896
0.03861667,903
0.04028333,911
0.04195,906
0.04361667,900
0.04528333,964
0.04695,1028
0.04861667,809
0.05028334,809
0.05195,723
0.05361667,563
0.05528333,762
0.05695,874
0.05861667,846
0.06028333,814
0.06195,781
0.06361666,968
0.06528334,995
0.06695,1019
0.06861667,1113
0.07028333,831
0.07195,969
0.07361667,890
0.07528333,773
0.07695,1004
0.07861666,941
0.08028334,934
0.08195,1001
0.08361667,801
0.08528333,857
0.08695,1204
0.08861667,1090
0.09028333,916
0.09195,937
0.09361666,878
0.09528334,884
0.09695,854
0.09861667,873
0.1002833,892
0.10195,780
0.1036167,784
0.1052833,904
0.10695,766
0.1086167,656
0.1102833,767
0.11195,792
0.1136167,742
0.1152833,749
0.11695,757
0.1186167,980
0.1202833,1047
0.12195,1017
0.1236167,878
0.1252833,863
0.12695,943
0.1286167,849
0.1302833,782
0.13195,919
0.1336167,864
0.1352833,820
0.13695,978
0.1386167,930
0.1402833,969
0.14195,980
0.1436167,923
0.1452833,972
0.14695,798
0.1486167,902
0.1502833,767
0.15195,784
0.1536167,771
0.1552833,913
0.15695,941
0.1586167,786
0.1602833,935
0.16195,892
0.1636167,606
0.1652833,715
0.16695,825
0.1686167,910
0.1702833,923
0.17195,787
0.1736167,789
0.1752833,629
0.17695,930
0.1786167,938
0.1802833,923
0.18195,766
0.1836167,906
0.1852833,874
0.18695,854
0.1886167,834
0.1902833,790
0.19195,774
0.1936167,757
0.1952833,1018
0.19695,1103
0.1986167,897
0.2002833,834
0.20195,1060
0.2036167,639
0.2052833,1124
0.20695,785
0.2086167,992
0.2102833,850
0.21195,1114
0.2136167,1043
0.2152833,1122
0.21695,971
0.2186167,955
0.2202833,930
0.22195,862
0.2236167,1078
0.2252833,1024
0.22695,969
0.2286167,1001
0.2302833,1033
0.23195,1050
0.2336167,1067
0.2352833,1125
0.23695,1197
0.2386167,1233
0.2402833,1022
0.24195,1046
0.2436167,1131
0.2453,1078
0.24695,1091
0.2486167,1105
0.2502833,1112
0.25195,1296
0.2536167,1267
0.2552833,1021
0.25695,1073
0.2586167,1139
0.2602833,943
0.26195,1024
0.2636167,1034
0.2652833,1045
0.26695,1025
0.2686167,1005
0.2702833,1115
0.27195,1125
0.2736167,974
0.2752833,1080
0.27695,1227
0.2786167,819
0.2803,903
0.28195,986
0.2836167,983
0.2852833,980
0.28695,952
0.2886167,1036
0.2902833,847
0.29195,1105
0.2936167,1048
0.2953,990
0.29695,1163
0.2986333,1339
0.3002833,1294
0.30195,1109
0.3036167,1173
0.3052833,1040
0.30695,1030
0.3086167,948
0.3102833,1103
0.31195,1038
0.3136167,1060
0.3153,1101
0.31695,1159
0.3186167,1127
0.3202833,1141
0.3219667,1131
0.3236167,1113
0.3252833,1131
0.32695,1148
0.3286333,1175
0.3302833,1164
0.33195,1282
0.3336333,1301
0.3352833,1250
0.3369667,1199
0.3386333,1252
0.3402833,1195
0.3419667,1303
0.3436167,1302
0.3453,1433
0.34695,1355
0.3486167,1230
0.3503,1412
0.35195,1127
0.3536333,1315
0.3553,1341
0.3569667,1491
0.3586333,1344
0.3602833,1430
0.3619667,1557
0.3636167,2373
0.3652833,3629
0.36695,4544
0.3686333,5073
0.3703,5534
0.3719667,4835
0.3736333,3453
0.3753,2887
0.3769667,2197
0.3786333,1813
0.3802833,1478
0.3819667,1100
0.3836167,954
0.3853,869
0.3869667,536
0.3886333,565
0.3903,452
0.3919667,504
0.3936333,420
0.3953,461
0.39695,501
0.3986333,639
0.4002833,768
0.4019667,919
0.4036333,835
0.4053,835
0.4069667,1172
0.4086333,1213
0.4103,1105
0.4119667,1115
0.4136333,798
0.4153,1062
0.41695,885
0.4186333,992
0.4203,907
0.4219667,910
0.4236333,876
0.4253,841
0.4269667,858
0.4286333,876
0.4303,954
0.4319667,1031
0.4336333,1211
0.4353,1138
0.4369667,1140
0.4386333,1237
0.4403,1307
0.4419667,1322
0.4436333,1338
0.4453,1478
0.4469667,1441
0.4486333,1403
0.4503,1463
0.4519667,1522
0.4536333,1924
0.4553,1905
0.4569667,1745
0.4586333,1996
0.4603,1705
0.4619667,1806
0.4636333,1763
0.4653,1758
0.4669667,1753
0.4686333,1731
0.4703,1709
0.4719667,1757
0.4736333,1804
0.4753,1631
0.4769667,1660
0.4786333,1551
0.4803,1314
0.4819667,1495
0.4836333,1407
0.4853,1415
0.4869667,1264
0.4886333,1536
0.4903,1550
0.4919667,1430
0.4936333,1329
0.4953,1047
0.4969667,1221
0.4986333,961
0.5003,1006
0.5019667,1247
0.5036333,1015
0.5053,1179
0.5069667,948
0.5086333,1028
0.5103,1028
0.5119666,1020
0.5136333,1029
0.5153,1037
0.5169666,1115
0.5186333,1117
0.5203,1006
0.5219667,1038
0.5236334,1070
0.5253,1062
0.5269667,1005
0.5286334,948
0.5303,1161
0.5319667,1239
0.5336334,1167
0.5353,1088
0.5369667,929
0.5386333,1188
0.5403,949
0.5419667,1047
0.5436333,1167
0.5453,1185
0.5469667,1052
0.5486333,1063
0.5503,1083
0.5519667,1102
0.5536333,1122
0.5553,1062
0.5569667,1002
0.5586333,1040
0.5603,971
0.5619667,1022
0.5636333,1073
0.5653,1051
0.5669667,998
0.5686333,957
0.5703,908
0.5719666,925
0.5736333,967
0.5753,878
0.5769666,926
0.5786333,953
0.5803,980
0.5819666,971
0.5836333,961
0.5853,977
0.5869667,935
0.5886334,899
0.5903,913
0.5919667,958
0.5936334,1135
0.5953,1122
0.5969667,1161
0.5986333,1246
0.6003,903
0.6019667,1006
0.6036333,1012
0.6053,935
0.6069667,942
0.6086333,1121
0.6103,1077
0.6119667,1081
0.6136333,1038
0.6153,994
0.6169667,1040
0.6186333,882
0.6203,963
0.6219667,1044
0.6236333,1047
0.6253,1050
0.6269667,1173
0.6286333,1184
0.6303,1019
0.6319667,1147
0.6336333,1120
0.6353,948
0.6369666,1043
0.6386333,1137
0.6403,970
0.6419666,1317
0.6436333,1392
0.6453,1273
0.6469667,1016
0.6486334,1174
0.6503,1297
0.6519667,1065
0.6536334,1052
0.6553,1139
0.6569667,1040
0.6586334,872
0.6603,1057
0.6619667,1039
0.6636333,997
0.6653,1002
0.6669667,986
0.6686333,969
0.6703,772
0.6719667,816
0.6736333,859
0.6753,960
0.6769667,1025
0.6786333,1082
0.6803,1050
0.6819667,1018
0.6836333,1090
0.6853,1064
0.6869667,1038
0.6886333,1179
0.6903,1302
0.6919667,1463
0.6936333,1447
0.6953,1618
0.6969666,1820
0.6986333,2066
0.7003,2176
0.7019666,2623
0.7036333,2498
0.7053,2687
0.7069666,2964
0.7086333,3244
0.7103,3432
0.7119667,3356
0.7136334,3905
0.7153,3824
0.7169667,3752
0.7186334,3579
0.7203,3611
0.7219667,3345
0.7236333,3140
0.7253,2976
0.7269667,2359
0.7286333,2510
0.7303,2128
0.7319667,1824
0.7336333,1879
0.7353,1786
0.7369667,1418
0.7386333,1471
0.7403,1702
0.7419667,1404
0.7436333,1095
0.7453,1124
0.7469667,1151
0.7486333,1168
0.7503,998
0.7519667,1275
0.7536333,992
0.7553,976
0.7569667,1040
0.7586333,1070
0.7603,1074
0.7619666,1078
0.7636333,1070
0.7653,1061
0.7669666,1005
0.7686333,1083
0.7703,682
0.7719667,959
0.7736334,918
0.7753,1013
0.7769667,976
0.7786334,910
0.7803,948
0.7819667,1009
0.7836334,979
0.7853,1052
0.7869667,1124
0.7886333,1384
0.7903,1330
0.7919667,1671
0.7936333,1916
0.7953,1688
0.7969667,2541
0.7986333,2318
0.8003,3008
0.8019667,3344
0.8036333,3448
0.8053,3854
0.8069667,4672
0.8086333,5069
0.8103,5909
0.8119667,6522
0.8136333,6694
0.8153,6702
0.8169667,7811
0.8186333,7791
0.8203,7745
0.8219666,7258
0.8236333,6980
0.8253,6683
0.8269666,5948
0.8286333,5553
0.8303,5481
0.8319666,5284
0.8336333,3952
0.8353,3465
0.8369667,3155
0.8386334,2989
0.8403,2836
0.8419667,2306
0.8436334,2272
0.8453,2162
0.8469667,1838
0.8486333,1623
0.8503,1614
0.8519667,1619
0.8536333,1582
0.8553,1446
0.8569667,1512
0.8586333,1113
0.8603,1374
0.8619667,1365
0.8636333,1281
0.8653,1689
0.8669667,1809
0.8686333,1897
0.8703,1871
0.8719667,1846
0.8736333,1855
0.8753,1865
0.8769667,2250
0.8786333,2200
0.8803,2138
0.8819667,1865
0.8836333,1835
0.8853,1813
0.8869666,1916
0.8886333,1967
0.8903,1950
0.8919666,1734
0.8936333,2049
0.8953,1737
0.8969667,1691
0.8986334,1813
0.9003,1665
0.9019667,1607
0.9036334,1913
0.9053,1773
0.9069667,1865
0.9086334,1801
0.9103,1610
0.9119667,1708
0.9136333,1726
0.9153,1665
0.9169667,1605
0.9186333,1646
0.9203,1687
0.9219667,1735
0.9236333,1773
0.9253,1711
0.9269667,1585
0.9286333,1638
0.9303,1546
0.9319667,1570
0.9336333,1703
0.9353,1623
0.9369667,1543
0.9386333,1708
0.9403,1602
0.9419667,1520
0.9436333,1399
0.9453,1429
0.9469666,1437
0.9486333,1445
0.9503,1352
0.9519666,1401
0.9536333,1254
0.9553,1190
0.9569666,1141
0.9586333,1378
0.9603,1307
0.9619667,1410
0.9636334,1185
0.9653,1453
0.9669667,1370
0.9686334,1284
0.9703,1199
0.9719667,1407
0.9736333,1745
0.9753,1852
0.9769667,2184
0.9786333,2349
0.9803,2816
0.9819667,2731
0.9836333,3029
0.9853,3386
0.9869667,4088
0.9886333,4559
0.9903,4599
0.9919667,5250
0.9936333,5961
0.9953,5675
0.9969667,6881
0.9986333,7320
1.0003,7585
1.001967,7936
1.003633,8772
1.0053,8776
1.006967,9244
1.008633,8964
1.0103,9244
1.011967,8044
1.013633,8224
1.0153,7953
1.016967,6830
1.018633,7090
1.0203,6585
1.021967,6181
1.023633,5161
1.0253,4430
1.026967,4102
1.028633,4255
1.0303,3803
1.031967,3439
1.033633,3140
1.0353,2763
1.036967,2690
1.038633,2269
1.0403,2300
1.041967,2201
1.043633,2131
1.0453,1829
1.046967,1825
1.048633,1818
1.0503,1834
1.051967,1563
1.053633,1826
1.0553,1769
1.056967,1695
1.058633,1479
1.0603,1788
1.061967,1903
1.063633,1548
1.0653,1639
1.066967,1730
1.068633,1776
1.0703,1688
1.071967,1590
1.073633,1807
1.0753,1827
1.076967,2018
1.078633,1883
1.0803,1747
1.081967,1942
1.083633,2310
1.0853,2303
1.086967,3080
1.088633,2966
1.0903,2893
1.091967,2857
1.093633,3345
1.0953,3561
1.096967,3603
1.098633,3668
1.1003,3589
1.101967,3999
1.103633,3974
1.1053,4061
1.106967,3696
1.108633,3814
1.1103,4122
1.111967,3703
1.113633,3243
1.1153,3526
1.116967,3245
1.118633,3036
1.1203,3173
1.121967,2705
1.123633,2783
1.1253,2276
1.126967,2288
1.128633,2220
1.1303,2176
1.131967,1748
1.133633,1609
1.1353,1878
1.136967,1574
1.138633,1540
1.1403,1560
1.141967,1548
1.143633,1536
1.1453,1509
1.146967,1421
1.148633,1417
1.1503,1217
1.151967,1433
1.153633,1300
1.1553,1209
1.156967,1018
1.158633,1168
1.1603,1051
1.161967,1066
1.163633,1082
1.1653,899
1.166967,1109
1.168633,1168
1.1703,965
1.171967,1271
1.173633,1176
1.1753,1132
1.176967,977
1.178633,1058
1.1803,1009
1.181967,1112
1.183633,1092
1.1853,1163
1.186967,998
1.188633,833
1.1903,1103
1.191967,1001
1.193633,954
1.1953,957
1.196967,1012
1.198633,833
