"SampleName","A2Rd2_01-63"
"Target Mass 1",
"Column Name","IA-3 (3um, 4.6X100)"
"Channel","QDa 1: SIR Ch2"
0.00195,526
0.003616667,589
0.005283333,638
0.00695,676
0.008616666,799
0.01028333,922
0.01195,1068
0.01361667,1040
0.01528333,1000
0.01695,839
0.01861667,996
0.02028333,1005
0.02195,996
0.02361667,988
0.02528333,1027
0.02695,1049
0.02861667,1013
0.03028333,977
0.03195,891
0.03361667,1037
0.03528333,997
0.03695,930
0.03861667,863
0.04028333,1036
0.04195,1033
0.04361667,1030
0.04528333,1050
0.04695,1033
0.04861667,1015
0.05028334,1043
0.05195,1019
0.05361667,1050
0.05528333,912
0.05695,985
0.05861667,1019
0.06028333,1038
0.06195,1058
0.06361666,939
0.06528334,768
0.06695,1166
0.06861667,1347
0.07028333,1084
0.07195,1119
0.07361667,917
0.07528333,1246
0.07695,704
0.07861666,1110
0.08028334,1027
0.08195,1032
0.08361667,769
0.08528333,980
0.08695,1021
0.08861667,1175
0.09028333,1134
0.09195,985
0.09361666,901
0.09528334,691
0.09695,871
0.09861667,934
0.1002833,981
0.10195,1134
0.1036167,1107
0.1053,942
0.10695,960
0.1086167,991
0.1102833,968
0.11195,944
0.1136167,865
0.1152833,969
0.11695,935
0.1186167,892
0.1202833,1020
0.12195,1014
0.1236333,1034
0.1252833,770
0.12695,885
0.1286167,1005
0.1302833,798
0.13195,949
0.1336167,939
0.1352833,977
0.13695,957
0.1386167,1072
0.1403,1067
0.14195,931
0.1436167,841
0.1452833,940
0.14695,899
0.1486167,932
0.1502833,908
0.1519667,885
0.1536167,891
0.1552833,897
0.15695,855
0.1586333,813
0.1602833,1085
0.16195,1068
0.1636167,868
0.1653,873
0.16695,860
0.1686167,907
0.1702833,954
0.1719667,1042
0.1736167,1030
0.1753,1041
0.17695,739
0.1786333,994
0.1802833,769
0.18195,1016
0.1836167,862
0.1852833,1064
0.18695,915
0.1886167,889
0.1903,862
0.19195,857
0.1936333,851
0.1952833,912
0.1969667,974
0.1986167,962
0.2003,1033
0.20195,1034
0.2036333,960
0.2053,895
0.2069667,953
0.2086167,1042
0.2103,1119
0.2119667,1019
0.2136333,957
0.2153,933
0.2169667,1015
0.2186333,1016
0.2203,1100
0.2219667,1128
0.2236333,835
0.2253,1151
0.2269667,929
0.2286333,1082
0.2303,1154
0.2319667,1114
0.2336333,1074
0.2353,1130
0.2369667,1137
0.2386333,1144
0.2403,1158
0.2419667,1172
0.2436333,1175
0.2453,1178
0.2469667,1368
0.2486333,1378
0.2503,1374
0.2519667,1144
0.2536333,982
0.2553,1117
0.2569667,1041
0.2586333,1170
0.2603,964
0.2619667,1014
0.2636333,936
0.2653,1131
0.2669667,1160
0.2686333,1158
0.2703,1042
0.2719667,1088
0.2736333,887
0.2753,936
0.2769667,1165
0.2786333,1145
0.2803,1119
0.2819667,1098
0.2836333,1078
0.2853,1157
0.2869667,1106
0.2886333,1055
0.2903,966
0.2919667,963
0.2936333,1282
0.2953,1204
0.2969667,1060
0.2986333,1209
0.3003,1137
0.3019667,1092
0.3036333,1048
0.3053,1097
0.3069667,1143
0.3086333,1131
0.3103,1118
0.3119667,1200
0.3136333,1324
0.3153,1295
0.3169667,1324
0.3186333,1353
0.3203,1373
0.3219667,1113
0.3236333,1121
0.3253,1362
0.3269667,1342
0.3286333,1031
0.3303,1251
0.3319667,1297
0.3336333,1477
0.3353,1541
0.3369667,1329
0.3386333,1473
0.3403,1218
0.3419667,1274
0.3436333,1329
0.3453,1363
0.3469667,1397
0.3486333,1432
0.3503,1348
0.3519667,1263
0.3536333,1302
0.3553,1147
0.3569667,1265
0.3586333,1497
0.3603,1390
0.3619667,1283
0.3636333,1666
0.3653,2895
0.3669667,3759
0.3686333,4071
0.3703,4247
0.3719667,4233
0.3736333,4218
0.3753,3753
0.3769667,3173
0.3786333,2764
0.3803,1890
0.3819667,1503
0.3836333,998
0.3853,1060
0.3869667,632
0.3886333,608
0.3903,340
0.3919667,553
0.3936333,475
0.3953,372
0.3969667,390
0.3986333,409
0.4003,455
0.4019667,535
0.4036333,518
0.4053,502
0.4069667,675
0.4086333,813
0.4103,779
0.4119667,966
0.4136333,1037
0.4153,1000
0.4169667,963
0.4186333,888
0.4203,1005
0.4219667,1019
0.4236333,935
0.4253,969
0.4269667,1004
0.4286333,981
0.4303,959
0.4319667,1018
0.4336333,1102
0.4353,1141
0.4369667,1180
0.4386333,1182
0.4403,1183
0.4419667,1339
0.4436333,1260
0.4453,1181
0.4469667,1245
0.4486333,1273
0.4503,1300
0.4519667,1637
0.4536333,1735
0.4553,1571
0.4569667,1740
0.4586333,1576
0.4603,1708
0.4619667,1782
0.4636333,1586
0.4653,1746
0.4669667,1569
0.4686333,1742
0.4703,1622
0.4719667,1563
0.4736333,1671
0.4753,1589
0.4769667,1629
0.4786333,1669
0.4803,1736
0.4819667,1423
0.4836333,1443
0.4853,1408
0.4869667,1469
0.4886333,1348
0.4903,1312
0.4919667,1426
0.4936333,1250
0.4953,1324
0.4969667,1172
0.4986333,1323
0.5003,1298
0.5019667,1238
0.5036333,1137
0.5053,1241
0.5069667,1271
0.5086333,885
0.5103,913
0.5119666,1070
0.5136333,980
0.5153,891
0.5169666,1048
0.5186333,1053
0.5203,895
0.5219667,865
0.5236334,835
0.5253,907
0.5269667,884
0.5286334,977
0.5303,1051
0.5319667,1124
0.5336334,1078
0.5353,1032
0.5369667,983
0.5386333,1087
0.5403,891
0.5419667,1015
0.5436333,1148
0.5453,1147
0.5469667,1096
0.5486333,1046
0.5503,1020
0.5519667,1113
0.5536333,1108
0.5553,1109
0.5569667,1048
0.5586333,987
0.5603,993
0.5619667,947
0.5636333,907
0.5653,868
0.5669667,998
0.5686333,972
0.5703,947
0.5719666,1166
0.5736333,1178
0.5753,1175
0.5769666,1097
0.5786333,1113
0.5803,1129
0.5819666,1043
0.5836333,905
0.5853,992
0.5869667,884
0.5886334,930
0.5903,976
0.5919667,1163
0.5936334,1152
0.5953,1127
0.5969667,1102
0.5986333,1018
0.6003,840
0.6019667,895
0.6036333,951
0.6053,882
0.6069667,925
0.6086333,969
0.6103,1267
0.6119667,1182
0.6136333,984
0.6153,835
0.6169667,1357
0.6186333,1221
0.6203,1182
0.6219667,1148
0.6236333,1168
0.6253,1162
0.6269667,1155
0.6286333,1208
0.6303,1262
0.6319667,1218
0.6336333,1175
0.6353,1383
0.6369666,1283
0.6386333,1183
0.6403,1279
0.6419666,1334
0.6436333,1478
0.6453,1406
0.6469667,1046
0.6486334,1298
0.6503,1265
0.6519667,1275
0.6536334,1317
0.6553,1182
0.6569667,1369
0.6586334,1076
0.6603,900
0.6619667,1116
0.6636333,1066
0.6653,1003
0.6669667,895
0.6686333,973
0.6703,1066
0.6719667,1017
0.6736333,1103
0.6753,1079
0.6769667,938
0.6786333,998
0.6803,1058
0.6819667,1535
0.6836333,1744
0.6853,1550
0.6869667,1741
0.6886333,2155
0.6903,2272
0.6919667,2861
0.6936333,3197
0.6953,3212
0.6969666,3760
0.6986333,4584
0.7003,5003
0.7019666,5314
0.7036333,5722
0.7053,6324
0.7069666,6798
0.7086333,6480
0.7103,7608
0.7119667,7885
0.7136334,7317
0.7153,7915
0.7169667,8600
0.7186334,8656
0.7203,7993
0.7219667,8304
0.7236333,8147
0.7253,6913
0.7269667,6918
0.7286333,6152
0.7303,5871
0.7319667,5106
0.7336333,4577
0.7353,3700
0.7369667,3632
0.7386333,3189
0.7403,2804
0.7419667,2593
0.7436333,2423
0.7453,2138
0.7469667,1812
0.7486333,1925
0.7503,1629
0.7519667,1650
0.7536333,1564
0.7553,1085
0.7569667,1374
0.7586333,1230
0.7603,1315
0.7619666,1210
0.7636333,1301
0.7653,1273
0.7669666,1244
0.7686333,900
0.7703,1293
0.7719667,1189
0.7736334,1163
0.7753,1265
0.7769667,1047
0.7786334,1322
0.7803,1444
0.7819667,1491
0.7836334,1538
0.7853,1823
0.7869667,2244
0.7886333,2578
0.7903,2658
0.7919667,3483
0.7936333,3533
0.7953,4123
0.7969667,5344
0.7986333,5295
0.8003,6589
0.8019667,6296
0.8036333,8592
0.8053,8169
0.8069667,9012
0.8086333,9880
0.8103,10052
0.8119667,10828
0.8136333,11140
0.8153,11932
0.8169667,12748
0.8186333,12816
0.8203,12676
0.8219666,12652
0.8236333,12628
0.8253,12656
0.8269666,12684
0.8286333,11956
0.8303,10856
0.8319666,9868
0.8336333,9260
0.8353,8424
0.8369667,7656
0.8386334,6927
0.8403,5551
0.8419667,5422
0.8436334,4770
0.8453,4503
0.8469667,3457
0.8486333,3464
0.8503,2798
0.8519667,2346
0.8536333,2461
0.8553,2160
0.8569667,2348
0.8586333,1846
0.8603,1958
0.8619667,1780
0.8636333,2054
0.8653,1932
0.8669667,2197
0.8686333,2391
0.8703,2842
0.8719667,2713
0.8736333,2836
0.8753,2640
0.8769667,2513
0.8786333,2492
0.8803,2591
0.8819667,2457
0.8836333,2508
0.8853,2605
0.8869666,2256
0.8886333,2216
0.8903,2248
0.8919666,2288
0.8936333,2382
0.8953,2082
0.8969667,2080
0.8986334,2160
0.9003,1758
0.9019667,1887
0.9036334,1837
0.9053,1994
0.9069667,2108
0.9086334,2155
0.9103,2074
0.9119667,1919
0.9136333,1893
0.9153,2088
0.9169667,1937
0.9186333,1899
0.9203,2278
0.9219667,2371
0.9236333,1754
0.9253,2060
0.9269667,1903
0.9286333,1890
0.9303,1704
0.9319667,1734
0.9336333,1839
0.9353,1806
0.9369667,1773
0.9386333,1791
0.9403,1808
0.9419667,1742
0.9436333,1477
0.9453,1723
0.9469666,1787
0.9486333,1817
0.9503,1447
0.9519666,1697
0.9536333,1932
0.9553,1666
0.9569666,1946
0.9586333,2221
0.9603,2355
0.9619667,2896
0.9636334,2854
0.9653,3444
0.9669667,4013
0.9686334,4942
0.9703,5752
0.9719667,6339
0.9736333,7196
0.9753,8404
0.9769667,9508
0.9786333,10320
0.9803,11856
0.9819667,13768
0.9836333,15136
0.9853,16868
0.9869667,17664
0.9886333,20196
0.9903,21696
0.9919667,23320
0.9936333,24308
0.9953,27180
0.9969667,28424
0.9986333,29708
1.0003,32356
1.001967,31128
1.003633,34080
1.0053,33680
1.006967,35888
1.008633,34752
1.0103,36016
1.011967,35936
1.013633,34592
1.0153,35344
1.016967,34816
1.018633,31216
1.0203,31572
1.021967,27332
1.023633,25740
1.0253,24744
1.026967,23148
1.028633,19976
1.0303,19380
1.031967,16988
1.033633,15332
1.0353,14108
1.036967,13064
1.038633,11132
1.0403,10468
1.041967,8896
1.043633,8400
1.0453,7535
1.046967,7273
1.048633,6393
1.0503,6591
1.051967,6042
1.053633,5836
1.0553,5191
1.056967,5330
1.058633,5493
1.0603,5133
1.061967,4647
1.063633,4603
1.0653,4093
1.066967,4494
1.068633,4653
1.0703,4707
1.071967,4782
1.073633,4297
1.0753,4390
1.076967,4427
1.078633,4464
1.0803,4333
1.081967,4445
1.083633,4556
1.0853,4895
1.086967,5064
1.088633,5058
1.0903,5052
1.091967,4786
1.093633,5299
1.0953,5779
1.096967,6126
1.098633,5299
1.1003,5928
1.101967,5995
1.103633,6218
1.1053,5643
1.106967,6272
1.108633,6494
1.1103,6538
1.111967,5681
1.113633,5588
1.1153,5740
1.116967,5128
1.118633,5373
1.1203,5626
1.121967,5267
1.123633,4734
1.1253,4899
1.126967,4362
1.128633,4181
1.1303,3698
1.131967,3686
1.133633,3312
1.1353,3091
1.136967,2936
1.138633,2624
1.1403,2722
1.141967,2446
1.143633,2211
1.1453,2390
1.146967,2200
1.148633,2013
1.1503,2062
1.151967,1781
1.153633,1876
1.1553,1922
1.156967,1554
1.158633,1688
1.1603,1488
1.161967,1704
1.163633,1648
1.1653,1411
1.166967,1454
1.168633,1438
1.1703,1414
1.171967,1389
1.173633,1370
1.1753,1385
1.176967,1373
1.178633,1361
1.1803,1385
1.181967,1362
1.183633,1341
1.1853,1255
1.186967,1260
1.188633,1306
1.1903,1298
1.191967,1290
1.193633,1342
1.1953,1238
1.196967,1407
1.198633,1561
