"SampleName","A2Rd2_01-29"
"Target Mass 1",
"Column Name","IA-3 (3um, 4.6X100)"
"Channel","QDa 1: SIR Ch1"
0.00195,302
0.003616667,577
0.005283333,592
0.00695,557
0.008616666,585
0.01028333,469
0.01195,499
0.01361667,475
0.01528333,585
0.01695,702
0.01861667,629
0.02028333,566
0.02195,693
0.02361667,517
0.02528333,482
0.02695,573
0.02861667,558
0.03028333,544
0.03195,350
0.03361667,612
0.03528333,568
0.03695,602
0.03861667,618
0.04028333,634
0.04195,609
0.04361667,556
0.04528333,571
0.04695,587
0.04861667,554
0.05028334,507
0.05195,529
0.05361667,411
0.05528333,558
0.05695,636
0.05861667,656
0.06028333,564
0.06195,531
0.06361666,536
0.06528334,540
0.06695,464
0.06861667,593
0.07028333,444
0.07195,649
0.07361667,610
0.07528333,585
0.07695,582
0.07861666,579
0.08028334,492
0.08195,457
0.08361667,497
0.08528333,537
0.08695,636
0.08861667,586
0.09028333,568
0.09195,550
0.09361666,615
0.09528334,487
0.09695,501
0.09861667,595
0.1002833,605
0.10195,497
0.1036167,613
0.1052833,701
0.10695,687
0.1086167,717
0.1102833,497
0.11195,599
0.1136167,479
0.1152833,540
0.11695,563
0.1186167,632
0.1202833,643
0.12195,677
0.1236167,652
0.1252833,653
0.12695,587
0.1286167,546
0.1302833,440
0.13195,458
0.1336167,477
0.1352833,397
0.13695,413
0.1386167,428
0.1402833,680
0.14195,691
0.1436167,539
0.1452833,464
0.14695,587
0.1486167,505
0.1502833,506
0.15195,507
0.1536167,485
0.1552833,632
0.15695,613
0.1586167,514
0.1602833,608
0.16195,561
0.1636167,574
0.1652833,586
0.16695,597
0.1686167,549
0.1702833,541
0.17195,522
0.1736167,560
0.1752833,598
0.17695,578
0.1786167,581
0.1802833,567
0.18195,448
0.1836167,565
0.1852833,534
0.18695,524
0.1886167,600
0.1902833,575
0.19195,549
0.1936167,529
0.1952833,508
0.19695,536
0.1986167,564
0.2003,426
0.20195,544
0.2036167,597
0.2052833,442
0.20695,579
0.2086167,606
0.2102833,571
0.21195,492
0.2136167,508
0.2152833,404
0.21695,507
0.2186167,433
0.2202833,473
0.22195,494
0.2236167,514
0.2252833,576
0.22695,567
0.2286167,556
0.2302833,546
0.23195,557
0.2336167,546
0.2352833,475
0.23695,486
0.2386167,497
0.2402833,501
0.24195,504
0.2436167,464
0.2452833,464
0.24695,463
0.2486167,623
0.2502833,612
0.25195,516
0.2536167,601
0.2552833,522
0.25695,538
0.2586167,495
0.2602833,501
0.26195,440
0.2636333,520
0.2652833,473
0.26695,488
0.2686167,542
0.2702833,492
0.27195,442
0.2736167,612
0.2752833,566
0.27695,625
0.2786167,667
0.2803,589
0.28195,512
0.2836167,551
0.2852833,480
0.28695,596
0.2886167,578
0.2902833,537
0.29195,593
0.2936167,587
0.2952833,631
0.29695,515
0.2986333,475
0.3003,477
0.30195,503
0.3036167,528
0.3052833,545
0.30695,547
0.3086167,582
0.3102833,555
0.31195,529
0.3136333,522
0.3153,514
0.3169667,540
0.3186167,565
0.3202833,442
0.3219667,693
0.3236167,658
0.3252833,600
0.32695,755
0.3286333,461
0.3303,512
0.3319667,515
0.3336333,492
0.3352833,491
0.33695,537
0.3386333,578
0.3402833,413
0.34195,583
0.3436167,588
0.3452833,563
0.3469667,525
0.3486333,483
0.3503,588
0.3519667,401
0.3536167,641
0.3553,626
0.35695,534
0.3586167,518
0.3602833,624
0.3619667,815
0.3636333,1339
0.3653,2275
0.36695,4760
0.3686333,6642
0.3702833,7509
0.3719667,6923
0.3736167,5953
0.3753,5458
0.37695,4555
0.3786333,3667
0.3803,3350
0.3819667,2929
0.3836167,2186
0.3853,1978
0.38695,1432
0.3886333,1384
0.3902833,1499
0.3919667,1512
0.3936167,1588
0.3953,1184
0.3969667,1246
0.3986333,1487
0.4003,1364
0.4019667,1458
0.4036333,1978
0.4053,1915
0.4069667,1925
0.4086333,1945
0.4103,1966
0.4119667,2095
0.4136333,2225
0.4153,2183
0.4169667,2174
0.4186333,2260
0.4203,2189
0.4219667,2118
0.4236333,2250
0.4253,2173
0.4269667,2096
0.4286333,1846
0.4303,2139
0.4319667,1901
0.4336333,2336
0.4353,2487
0.4369667,3086
0.4386333,3560
0.4403,5133
0.4419667,6630
0.4436333,9016
0.4453,11952
0.4469667,15356
0.4486333,21132
0.4503,29584
0.4519667,39088
0.4536333,55184
0.4553,71872
0.4569667,97232
0.4586333,128016
0.4603,169664
0.4619667,214336
0.4636333,269120
0.4653,320128
0.4669667,368704
0.4686333,410752
0.4703,442432
0.4719667,454016
0.4736333,441344
0.4753,413568
0.4769667,373824
0.4786333,325440
0.4803,279104
0.4819667,221824
0.4836333,180992
0.4853,141952
0.4869667,110288
0.4886333,86752
0.4903,67168
0.4919667,50976
0.4936333,40896
0.4953,32500
0.4969667,25788
0.4986333,22444
0.5003,17996
0.5019667,15560
0.5036333,13368
0.5053,11432
0.5069667,9904
0.5086333,9188
0.5103,7535
0.5119666,7320
0.5136333,6452
0.5153,5783
0.5169666,6080
0.5186333,4826
0.5203,4953
0.5219667,4738
0.5236334,4721
0.5253,4364
0.5269667,4810
0.5286334,3705
0.5303,3847
0.5319667,3896
0.5336334,3928
0.5353,3649
0.5369667,3267
0.5386333,3256
0.5403,3066
0.5419667,3109
0.5436333,3044
0.5453,3210
0.5469667,2643
0.5486333,2780
0.5503,2440
0.5519667,2574
0.5536333,2310
0.5553,2214
0.5569667,2730
0.5586333,2007
0.5603,1830
0.5619667,2129
0.5636333,2221
0.5653,2145
0.5669667,1827
0.5686333,1756
0.5703,1816
0.5719666,1879
0.5736333,1829
0.5753,1818
0.5769666,1856
0.5786333,1817
0.5803,1779
0.5819666,1867
0.5836333,1825
0.5853,1783
0.5869667,1737
0.5886334,1658
0.5903,1579
0.5919667,1700
0.5936334,1769
0.5953,1820
0.5969667,1910
0.5986333,1876
0.6003,1901
0.6019667,1926
0.6036333,1696
0.6053,1591
0.6069667,1930
0.6086333,1714
0.6103,1704
0.6119667,1694
0.6136333,1744
0.6153,1794
0.6169667,1807
0.6186333,1819
0.6203,1538
0.6219667,1704
0.6236333,1736
0.6253,1567
0.6269667,1715
0.6286333,1755
0.6303,1527
0.6319667,1503
0.6336333,1306
0.6353,1716
0.6369666,1222
0.6386333,1371
0.6403,1170
0.6419666,1321
0.6436333,1148
0.6453,1330
0.6469667,1175
0.6486334,1261
0.6503,1260
0.6519667,1194
0.6536334,1259
0.6553,1487
0.6569667,1489
0.6586334,1118
0.6603,1190
0.6619667,1413
0.6636333,1179
0.6653,1123
0.6669667,1094
0.6686333,1225
0.6703,963
0.6719667,1125
0.6736333,949
0.6753,1005
0.6769667,1180
0.6786333,1291
0.6803,1312
0.6819667,1196
0.6836333,1131
0.6853,1137
0.6869667,1214
0.6886333,1244
0.6903,1094
0.6919667,1300
0.6936333,1095
0.6953,1078
0.6969666,1119
0.6986333,1210
0.7003,1153
0.7019666,1096
0.7036333,1145
0.7053,991
0.7069666,943
0.7086333,1102
0.7103,1017
0.7119667,931
0.7136334,1004
0.7153,1101
0.7169667,1196
0.7186334,1135
0.7203,1015
0.7219667,1248
0.7236333,907
0.7253,999
0.7269667,971
0.7286333,969
0.7303,1022
0.7319667,980
0.7336333,938
0.7353,952
0.7369667,1073
0.7386333,1099
0.7403,1235
0.7419667,1277
0.7436333,1132
0.7453,1042
0.7469667,1058
0.7486333,1044
0.7503,957
0.7519667,1156
0.7536333,1217
0.7553,1123
0.7569667,1014
0.7586333,1013
0.7603,1161
0.7619666,1058
0.7636333,956
0.7653,1020
0.7669666,1045
0.7686333,1047
0.7703,1050
0.7719667,931
0.7736334,1054
0.7753,1020
0.7769667,1104
0.7786334,1060
0.7803,1016
0.7819667,937
0.7836334,1163
0.7853,1111
0.7869667,1032
0.7886333,1084
0.7903,1088
0.7919667,959
0.7936333,1146
0.7953,1046
0.7969667,1033
0.7986333,1107
0.8003,998
0.8019667,955
0.8036333,950
0.8053,975
0.8069667,1071
0.8086333,1080
0.8103,1089
0.8119667,1000
0.8136333,910
0.8153,944
0.8169667,977
0.8186333,945
0.8203,956
0.8219666,907
0.8236333,898
0.8253,1081
0.8269666,1134
0.8286333,908
0.8303,901
0.8319666,867
0.8336333,949
0.8353,900
0.8369667,851
0.8386334,952
0.8403,986
0.8419667,998
0.8436334,970
0.8453,992
0.8469667,908
0.8486333,900
0.8503,934
0.8519667,968
0.8536333,994
0.8553,839
0.8569667,960
0.8586333,804
0.8603,910
0.8619667,1097
0.8636333,1277
0.8653,1551
0.8669667,1835
0.8686333,2231
0.8703,2730
0.8719667,3051
0.8736333,3945
0.8753,4598
0.8769667,5457
0.8786333,5231
0.8803,5281
0.8819667,4800
0.8836333,4691
0.8853,5214
0.8869666,4602
0.8886333,4559
0.8903,4531
0.8919666,4977
0.8936333,4874
0.8953,4813
0.8969667,4498
0.8986334,4630
0.9003,4752
0.9019667,4718
0.9036334,4641
0.9053,5038
0.9069667,4985
0.9086334,4932
0.9103,4651
0.9119667,4656
0.9136333,4661
0.9153,4672
0.9169667,4684
0.9186333,4548
0.9203,4626
0.9219667,4892
0.9236333,4030
0.9253,4279
0.9269667,4423
0.9286333,4193
0.9303,3704
0.9319667,4047
0.9336333,3360
0.9353,3696
0.9369667,3422
0.9386333,3324
0.9403,3250
0.9419667,2553
0.9436333,3014
0.9453,3044
0.9469666,2377
0.9486333,2748
0.9503,2378
0.9519666,2147
0.9536333,1994
0.9553,2217
0.9569666,1872
0.9586333,1617
0.9603,1740
0.9619667,1791
0.9636334,1472
0.9653,1299
0.9669667,1454
0.9686334,1239
0.9703,1242
0.9719667,1047
0.9736333,1079
0.9753,855
0.9769667,797
0.9786333,862
0.9803,792
0.9819667,873
0.9836333,890
0.9853,746
0.9869667,840
0.9886333,809
0.9903,694
0.9919667,725
0.9936333,755
0.9953,649
0.9969667,673
0.9986333,617
1.0003,650
1.001967,701
1.003633,847
1.0053,902
1.006967,846
1.008633,804
1.0103,828
1.011967,852
1.013633,761
1.0153,829
1.016967,611
1.018633,955
1.0203,787
1.021967,787
1.023633,818
1.0253,800
1.026967,811
1.028633,821
1.0303,834
1.031967,735
1.033633,673
1.0353,730
1.036967,773
1.038633,779
1.0403,786
1.041967,547
1.043633,819
1.0453,825
1.046967,774
1.048633,688
1.0503,818
1.051967,815
1.053633,790
1.0553,766
1.056967,649
1.058633,791
1.0603,811
1.061967,849
1.063633,661
1.0653,785
1.066967,666
1.068633,650
1.0703,716
1.071967,751
1.073633,739
1.0753,735
1.076967,731
1.078633,648
1.0803,819
1.081967,772
1.083633,816
1.0853,831
1.086967,798
1.088633,765
1.0903,698
1.091967,838
1.093633,668
1.0953,785
1.096967,715
1.098633,776
1.1003,798
1.101967,896
1.103633,953
1.1053,939
1.106967,797
1.108633,855
1.1103,812
1.111967,929
1.113633,933
1.1153,870
1.116967,744
1.118633,785
1.1203,749
1.121967,593
1.123633,968
1.1253,953
1.126967,600
1.128633,881
1.1303,731
1.131967,654
1.133633,892
1.1353,685
1.136967,724
1.138633,880
1.1403,776
1.141967,829
1.143633,670
1.1453,725
1.146967,686
1.148633,694
1.1503,701
1.151967,747
1.153633,797
1.1553,783
1.156967,769
1.158633,735
1.1603,847
1.161967,657
1.163633,845
1.1653,813
1.166967,675
1.168633,762
1.1703,850
1.171967,787
1.173633,723
1.1753,916
1.176967,827
1.178633,850
1.1803,827
1.181967,851
1.183633,888
1.1853,885
1.186967,883
1.188633,849
1.1903,816
1.191967,726
1.193633,798
1.1953,814
1.196967,810
1.198633,805
