"SampleName","A2Rd2_01-13"
"Target Mass 1",
"Column Name","IA-3 (3um, 4.6X100)"
"Channel","QDa 1: SIR Ch1"
0.00195,426
0.003616667,499
0.005283333,565
0.00695,566
0.008616666,543
0.01028333,519
0.01195,540
0.01361667,521
0.01528333,505
0.01695,438
0.01861667,510
0.02028333,470
0.02195,534
0.02361667,543
0.02528333,545
0.02695,547
0.02861667,532
0.03028333,517
0.03195,489
0.03361667,461
0.03528333,505
0.03695,549
0.03861667,518
0.04028333,486
0.04195,452
0.04361667,418
0.04528333,510
0.04695,520
0.04861667,469
0.05028334,536
0.05195,617
0.05361667,577
0.05528333,664
0.05695,479
0.05861667,545
0.06028333,526
0.06195,398
0.06361666,509
0.06528334,531
0.06695,567
0.06861667,494
0.07028333,584
0.07195,529
0.07361667,538
0.07528333,548
0.07695,563
0.07861666,610
0.08028334,618
0.08195,409
0.08361667,492
0.08528333,449
0.08695,438
0.08861667,427
0.09028333,498
0.09195,491
0.09361666,487
0.09528334,542
0.09695,583
0.09861667,636
0.1002833,592
0.10195,471
0.1036167,551
0.1052833,527
0.10695,503
0.1086167,571
0.1102833,555
0.11195,538
0.1136167,560
0.1152833,534
0.11695,508
0.1186167,414
0.1202833,567
0.12195,569
0.1236167,495
0.1252833,527
0.12695,491
0.1286167,420
0.1302833,454
0.13195,591
0.1336167,626
0.1352833,480
0.13695,483
0.1386167,513
0.1402833,451
0.14195,486
0.1436167,491
0.1452833,496
0.14695,515
0.1486167,471
0.1502833,427
0.15195,480
0.1536167,532
0.1552833,498
0.15695,585
0.1586167,560
0.1602833,537
0.16195,545
0.1636167,582
0.1652833,492
0.16695,480
0.1686167,450
0.1702833,496
0.17195,407
0.1736167,472
0.1752833,518
0.17695,570
0.1786167,543
0.1802833,568
0.18195,416
0.1836167,593
0.1852833,493
0.18695,597
0.1886167,601
0.1902833,431
0.19195,600
0.1936167,647
0.1952833,494
0.19695,517
0.1986167,411
0.2002833,426
0.20195,450
0.2036167,473
0.2052833,478
0.20695,484
0.2086167,364
0.2102833,486
0.21195,475
0.2136167,468
0.2152833,465
0.21695,462
0.2186167,587
0.2202833,622
0.22195,606
0.2236167,512
0.2252833,482
0.22695,396
0.2286167,480
0.2302833,530
0.23195,517
0.2336167,405
0.2352833,384
0.23695,484
0.2386167,397
0.2402833,414
0.24195,573
0.2436167,518
0.2452833,464
0.24695,482
0.2486167,501
0.2502833,624
0.25195,600
0.2536167,652
0.2552833,562
0.25695,432
0.2586167,590
0.2602833,582
0.26195,548
0.2636333,542
0.2652833,532
0.26695,500
0.2686167,490
0.2702833,566
0.27195,583
0.2736167,426
0.2752833,474
0.27695,537
0.2786167,437
0.2803,489
0.28195,504
0.2836167,414
0.2852833,501
0.28695,532
0.2886167,594
0.2902833,509
0.29195,579
0.2936167,630
0.2952833,586
0.29695,555
0.2986333,523
0.3002833,595
0.3019667,604
0.3036333,599
0.3052833,604
0.30695,547
0.3086167,551
0.3102833,556
0.31195,561
0.3136333,566
0.3153,571
0.31695,567
0.3186167,564
0.3202833,593
0.32195,593
0.3236167,592
0.3252833,642
0.32695,604
0.3286167,566
0.3303,666
0.33195,602
0.3336333,473
0.3352833,514
0.33695,476
0.3386167,459
0.3402833,443
0.34195,475
0.3436167,507
0.3452833,500
0.3469667,512
0.3486167,414
0.3503,676
0.3519667,670
0.3536167,530
0.3552833,511
0.35695,499
0.3586167,615
0.3602833,841
0.36195,835
0.3636333,1662
0.3652833,4244
0.36695,7426
0.3686333,8548
0.3702833,9804
0.3719667,8796
0.3736167,7036
0.3753,6155
0.37695,4868
0.3786333,4322
0.3803,3674
0.3819667,2794
0.3836167,2338
0.3853,1922
0.3869667,1649
0.3886333,1510
0.3902833,1333
0.3919667,1732
0.3936167,1515
0.3953,1254
0.3969667,1458
0.3986167,1473
0.4002833,1354
0.4019667,1409
0.4036333,1450
0.4053,1491
0.4069667,1580
0.4086167,1838
0.4103,2003
0.4119667,2044
0.4136333,2098
0.4153,2063
0.4169667,1928
0.4186333,2082
0.4203,2108
0.4219667,1967
0.4236333,1846
0.4253,1616
0.4269667,1964
0.4286333,1819
0.4303,1826
0.4319667,1832
0.4336333,1944
0.4353,2192
0.4369667,2883
0.4386333,3656
0.4403,4478
0.4419667,5309
0.4436333,6752
0.4453,9096
0.4469667,11720
0.4486333,14804
0.4503,20932
0.4519667,27176
0.4536333,41376
0.4553,54976
0.4569667,78640
0.4586333,106192
0.4603,144000
0.4619667,185856
0.4636333,230016
0.4653,271616
0.4669667,316800
0.4686333,334016
0.4703,343872
0.4719667,345344
0.4736333,321984
0.4753,293312
0.4769667,258944
0.4786333,223552
0.4803,181888
0.4819667,149952
0.4836333,121136
0.4853,95376
0.4869667,77888
0.4886333,58384
0.4903,48816
0.4919667,39440
0.4936333,30804
0.4953,26008
0.4969667,22300
0.4986333,17296
0.5003,15092
0.5019667,12744
0.5036333,11492
0.5053,9468
0.5069667,8808
0.5086333,7531
0.5103,7267
0.5119666,5937
0.5136333,5254
0.5153,5334
0.5169666,5268
0.5186333,4572
0.5203,4259
0.5219667,5105
0.5236334,3945
0.5253,4134
0.5269667,3489
0.5286334,3485
0.5303,3265
0.5319667,2918
0.5336334,3038
0.5353,2812
0.5369667,3052
0.5386333,2398
0.5403,2749
0.5419667,2442
0.5436333,2294
0.5453,2515
0.5469667,2399
0.5486333,2147
0.5503,2444
0.5519667,2314
0.5536333,2129
0.5553,2037
0.5569667,1941
0.5586333,1866
0.5603,1721
0.5619667,2005
0.5636333,1818
0.5653,1707
0.5669667,1505
0.5686333,1579
0.5703,1548
0.5719666,1591
0.5736333,1634
0.5753,1404
0.5769666,1448
0.5786333,1468
0.5803,1407
0.5819666,1442
0.5836333,1240
0.5853,1542
0.5869667,1208
0.5886334,1543
0.5903,1340
0.5919667,1384
0.5936334,1387
0.5953,1361
0.5969667,1335
0.5986333,1424
0.6003,1395
0.6019667,1366
0.6036333,1362
0.6053,1358
0.6069667,1633
0.6086333,1706
0.6103,1525
0.6119667,1384
0.6136333,1410
0.6153,1424
0.6169667,1265
0.6186333,1270
0.6203,1275
0.6219667,1315
0.6236333,1356
0.6253,1185
0.6269667,1097
0.6286333,1210
0.6303,1164
0.6319667,1041
0.6336333,936
0.6353,1074
0.6369666,977
0.6386333,1110
0.6403,1068
0.6419666,937
0.6436333,1135
0.6453,1165
0.6469667,1046
0.6486334,755
0.6503,1140
0.6519667,1066
0.6536334,999
0.6553,954
0.6569667,887
0.6586334,987
0.6603,897
0.6619667,889
0.6636333,882
0.6653,852
0.6669667,825
0.6686333,912
0.6703,841
0.6719667,770
0.6736333,917
0.6753,879
0.6769667,1086
0.6786333,1052
0.6803,801
0.6819667,891
0.6836333,886
0.6853,668
0.6869667,898
0.6886333,624
0.6903,758
0.6919667,737
0.6936333,831
0.6953,771
0.6969666,822
0.6986333,780
0.7003,739
0.7019666,724
0.7036333,675
0.7053,671
0.7069666,667
0.7086333,576
0.7103,672
0.7119667,714
0.7136334,649
0.7153,650
0.7169667,679
0.7186334,681
0.7203,683
0.7219667,736
0.7236333,779
0.7253,827
0.7269667,584
0.7286333,818
0.7303,697
0.7319667,863
0.7336333,685
0.7353,721
0.7369667,565
0.7386333,820
0.7403,821
0.7419667,663
0.7436333,720
0.7453,576
0.7469667,657
0.7486333,778
0.7503,793
0.7519667,744
0.7536333,928
0.7553,536
0.7569667,672
0.7586333,689
0.7603,649
0.7619666,688
0.7636333,533
0.7653,651
0.7669666,718
0.7686333,746
0.7703,716
0.7719667,505
0.7736334,685
0.7753,645
0.7769667,640
0.7786334,619
0.7803,599
0.7819667,616
0.7836334,654
0.7853,649
0.7869667,643
0.7886333,643
0.7903,483
0.7919667,600
0.7936333,808
0.7953,748
0.7969667,494
0.7986333,526
0.8003,606
0.8019667,568
0.8036333,550
0.8053,567
0.8069667,583
0.8086333,526
0.8103,678
0.8119667,750
0.8136333,683
0.8153,451
0.8169667,486
0.8186333,606
0.8203,616
0.8219666,607
0.8236333,598
0.8253,680
0.8269666,750
0.8286333,501
0.8303,599
0.8319666,647
0.8336333,672
0.8353,698
0.8369667,678
0.8386334,583
0.8403,623
0.8419667,521
0.8436334,528
0.8453,701
0.8469667,666
0.8486333,549
0.8503,666
0.8519667,749
0.8536333,533
0.8553,726
0.8569667,636
0.8586333,411
0.8603,545
0.8619667,614
0.8636333,701
0.8653,624
0.8669667,649
0.8686333,556
0.8703,495
0.8719667,615
0.8736333,527
0.8753,776
0.8769667,832
0.8786333,840
0.8803,961
0.8819667,1320
0.8836333,1317
0.8853,1551
0.8869666,2002
0.8886333,1905
0.8903,2080
0.8919666,2078
0.8936333,1907
0.8953,1931
0.8969667,1785
0.8986334,1970
0.9003,1951
0.9019667,1932
0.9036334,1895
0.9053,2088
0.9069667,2345
0.9086334,2323
0.9103,2149
0.9119667,2216
0.9136333,1868
0.9153,2099
0.9169667,2044
0.9186333,2137
0.9203,2157
0.9219667,2042
0.9236333,1758
0.9253,1763
0.9269667,1896
0.9286333,1869
0.9303,1827
0.9319667,1784
0.9336333,1744
0.9353,1704
0.9369667,1756
0.9386333,1808
0.9403,1826
0.9419667,1458
0.9436333,1767
0.9453,1570
0.9469666,1272
0.9486333,1940
0.9503,1380
0.9519666,1228
0.9536333,1184
0.9553,1109
0.9569666,1156
0.9586333,1192
0.9603,1201
0.9619667,1210
0.9636334,900
0.9653,1065
0.9669667,850
0.9686334,900
0.9703,802
0.9719667,762
0.9736333,688
0.9753,711
0.9769667,688
0.9786333,630
0.9803,740
0.9819667,493
0.9836333,773
0.9853,571
0.9869667,507
0.9886333,366
0.9903,534
0.9919667,444
0.9936333,487
0.9953,453
0.9969667,507
0.9986333,497
1.0003,487
1.001967,456
1.003633,424
1.0053,453
1.006967,375
1.008633,507
1.0103,459
1.011967,497
1.013633,524
1.0153,463
1.016967,586
1.018633,339
1.0203,399
1.021967,616
1.023633,538
1.0253,510
1.026967,491
1.028633,531
1.0303,458
1.031967,465
1.033633,455
1.0353,446
1.036967,471
1.038633,467
1.0403,464
1.041967,338
1.043633,578
1.0453,611
1.046967,429
1.048633,436
1.0503,470
1.051967,488
1.053633,507
1.0553,486
1.056967,466
1.058633,461
1.0603,504
1.061967,500
1.063633,495
1.0653,527
1.066967,559
1.068633,441
1.0703,430
1.071967,420
1.073633,436
1.0753,589
1.076967,597
1.078633,568
1.0803,440
1.081967,415
1.083633,357
1.0853,403
1.086967,448
1.088633,426
1.0903,482
1.091967,367
1.093633,566
1.0953,510
1.096967,554
1.098633,455
1.1003,509
1.101967,564
1.103633,567
1.1053,480
1.106967,497
1.108633,513
1.1103,441
1.111967,396
1.113633,406
1.1153,400
1.116967,394
1.118633,426
1.1203,430
1.121967,435
1.123633,494
1.1253,568
1.126967,575
1.128633,535
1.1303,526
1.131967,472
1.133633,514
1.1353,556
1.136967,586
1.138633,510
1.1403,554
1.141967,511
1.143633,484
1.1453,382
1.146967,552
1.148633,607
1.1503,525
1.151967,465
1.153633,444
1.1553,458
1.156967,455
1.158633,469
1.1603,558
1.161967,517
1.163633,477
1.1653,504
1.166967,530
1.168633,529
1.1703,487
1.171967,473
1.173633,458
1.1753,339
1.176967,423
1.178633,546
1.1803,621
1.181967,568
1.183633,639
1.1853,576
1.186967,560
1.188633,572
1.1903,584
1.191967,555
1.193633,525
1.1953,703
1.196967,692
1.198633,432
