"SampleName","A2Rd2_01-40"
"Target Mass 1",
"Column Name","IA-3 (3um, 4.6X100)"
"Channel","QDa 1: SIR Ch2"
0.00195,536
0.003616667,697
0.005283333,628
0.00695,753
0.008616666,1020
0.01028333,986
0.01195,1008
0.01361667,843
0.01528333,885
0.01695,783
0.01861667,845
0.02028333,801
0.02195,845
0.02361667,836
0.02528333,871
0.02695,697
0.02861667,997
0.03028333,983
0.03195,882
0.03361667,1012
0.03528333,934
0.03695,934
0.03861667,781
0.04028333,1141
0.04195,1043
0.04361667,941
0.04528333,994
0.04695,1018
0.04861667,710
0.05028334,807
0.05195,1000
0.05361667,725
0.05528333,818
0.05695,785
0.05861667,808
0.06028333,800
0.06195,793
0.06361666,986
0.06528334,1079
0.06695,1018
0.06861667,770
0.07028333,1044
0.07195,1018
0.07361667,1044
0.07528333,901
0.07695,993
0.07861666,930
0.08028334,666
0.08195,827
0.08361667,802
0.08528333,835
0.08695,869
0.08861667,887
0.09028333,904
0.09195,837
0.09361666,982
0.09528334,1006
0.09695,839
0.09861667,1014
0.1002833,971
0.10195,928
0.1036167,634
0.1052833,943
0.10695,869
0.1086167,843
0.1102833,906
0.11195,824
0.1136167,896
0.1152833,852
0.11695,807
0.1186167,743
0.1202833,845
0.12195,827
0.1236167,813
0.1252833,798
0.12695,837
0.1286167,811
0.1302833,785
0.13195,735
0.1336167,754
0.1352833,772
0.13695,672
0.1386167,1003
0.1402833,980
0.14195,724
0.1436167,924
0.1452833,714
0.14695,747
0.1486167,878
0.1502833,875
0.15195,749
0.1536167,811
0.1552833,847
0.15695,803
0.1586167,804
0.1602833,804
0.16195,804
0.1636167,803
0.1652833,768
0.16695,732
0.1686167,925
0.1702833,923
0.17195,958
0.1736167,745
0.1752833,791
0.17695,852
0.1786167,796
0.1802833,844
0.18195,893
0.1836167,861
0.1852833,828
0.18695,794
0.1886167,788
0.1902833,782
0.19195,785
0.1936167,808
0.1952833,832
0.19695,821
0.1986167,810
0.2002833,813
0.20195,816
0.2036167,811
0.2052833,805
0.20695,903
0.2086167,913
0.2102833,1038
0.21195,1159
0.2136167,1104
0.2152833,945
0.21695,905
0.2186167,1112
0.2202833,821
0.22195,981
0.2236167,1083
0.2252833,1083
0.22695,927
0.2286167,938
0.2302833,998
0.23195,960
0.2336167,1081
0.2352833,1066
0.23695,1033
0.2386167,877
0.2402833,1175
0.24195,1156
0.2436167,1214
0.2452833,1258
0.24695,1303
0.2486167,1079
0.2502833,1106
0.25195,1093
0.2536167,1035
0.2552833,977
0.25695,997
0.2586167,1016
0.2602833,984
0.26195,1070
0.2636333,991
0.2652833,912
0.26695,1041
0.2686167,1028
0.2702833,1016
0.27195,980
0.2736167,1257
0.2752833,1244
0.2769667,942
0.2786167,1158
0.2803,1229
0.28195,1026
0.2836167,1071
0.2852833,893
0.28695,1001
0.2886167,954
0.2902833,1009
0.29195,911
0.2936167,1053
0.2952833,1109
0.29695,1095
0.2986333,1033
0.3002833,972
0.30195,996
0.3036167,1019
0.3052833,1024
0.30695,1029
0.3086167,1284
0.3102833,1198
0.31195,1112
0.3136167,1186
0.3153,1145
0.31695,1104
0.3186167,1034
0.3202833,1153
0.32195,1273
0.3236167,1357
0.3253,1137
0.3269667,1292
0.3286167,1181
0.3302833,1197
0.33195,1279
0.3336333,1226
0.3352833,1474
0.3369667,1454
0.3386167,1372
0.3403,1467
0.3419667,1263
0.3436167,1436
0.3452833,1238
0.34695,1272
0.3486167,1307
0.3503,1110
0.35195,1235
0.3536333,1573
0.3552833,1502
0.35695,1523
0.3586333,1505
0.3602833,1644
0.36195,1707
0.3636167,2671
0.3652833,4588
0.36695,5287
0.3686333,5113
0.3703,5430
0.3719667,4741
0.3736333,4363
0.3753,3536
0.3769667,2525
0.3786333,1943
0.3803,1446
0.3819667,1295
0.3836333,917
0.3853,748
0.3869667,864
0.3886333,597
0.3903,686
0.3919667,540
0.3936333,403
0.3953,565
0.3969667,535
0.3986333,694
0.4003,693
0.4019667,795
0.4036333,895
0.4053,895
0.4069667,1126
0.4086333,1161
0.4103,1175
0.4119667,1221
0.4136333,975
0.4153,1210
0.4169667,1092
0.4186333,1017
0.4203,929
0.4219667,890
0.4236333,1119
0.4253,1034
0.4269667,1170
0.4286333,1123
0.4303,1234
0.4319667,1146
0.4336333,1180
0.4353,1213
0.4369667,1200
0.4386333,1262
0.4403,1278
0.4419667,1295
0.4436333,1536
0.4453,1439
0.4469667,1343
0.4486333,1513
0.4503,1684
0.4519667,1656
0.4536333,1627
0.4553,1595
0.4569667,1607
0.4586333,1618
0.4603,1931
0.4619667,2006
0.4636333,2012
0.4653,1921
0.4669667,1835
0.4686333,1716
0.4703,1855
0.4719667,1672
0.4736333,1667
0.4753,1842
0.4769667,1840
0.4786333,1782
0.4803,1562
0.4819667,1294
0.4836333,1636
0.4853,1340
0.4869667,1374
0.4886333,1488
0.4903,1468
0.4919667,1447
0.4936333,1249
0.4953,1344
0.4969667,1227
0.4986333,1211
0.5003,1195
0.5019667,1266
0.5036333,1270
0.5053,1273
0.5069667,1225
0.5086333,1213
0.5103,1193
0.5119666,1075
0.5136333,1227
0.5153,1039
0.5169666,1019
0.5186333,1119
0.5203,1139
0.5219667,1159
0.5236334,1043
0.5253,1150
0.5269667,1256
0.5286334,1278
0.5303,1073
0.5319667,1332
0.5336334,1106
0.5353,1155
0.5369667,1175
0.5386333,1224
0.5403,982
0.5419667,1196
0.5436333,1044
0.5453,1105
0.5469667,1166
0.5486333,1191
0.5503,1231
0.5519667,1124
0.5536333,976
0.5553,1001
0.5569667,1144
0.5586333,1067
0.5603,961
0.5619667,1000
0.5636333,1013
0.5653,921
0.5669667,905
0.5686333,889
0.5703,1007
0.5719666,1125
0.5736333,1249
0.5753,1186
0.5769666,955
0.5786333,1189
0.5803,1116
0.5819666,1177
0.5836333,1025
0.5853,1008
0.5869667,1215
0.5886334,1087
0.5903,1229
0.5919667,1229
0.5936334,1186
0.5953,1143
0.5969667,1102
0.5986333,1062
0.6003,1239
0.6019667,1323
0.6036333,1189
0.6053,1193
0.6069667,1373
0.6086333,1112
0.6103,1271
0.6119667,1081
0.6136333,1084
0.6153,1284
0.6169667,977
0.6186333,910
0.6203,893
0.6219667,1098
0.6236333,1073
0.6253,1049
0.6269667,1029
0.6286333,891
0.6303,1051
0.6319667,1057
0.6336333,1187
0.6353,1106
0.6369666,911
0.6386333,1070
0.6403,1096
0.6419666,1077
0.6436333,1058
0.6453,1039
0.6469667,1116
0.6486334,1192
0.6503,1181
0.6519667,1196
0.6536334,1212
0.6553,1263
0.6569667,922
0.6586334,955
0.6603,1089
0.6619667,1075
0.6636333,1058
0.6653,1042
0.6669667,1004
0.6686333,951
0.6703,898
0.6719667,903
0.6736333,896
0.6753,931
0.6769667,945
0.6786333,960
0.6803,832
0.6819667,1011
0.6836333,1035
0.6853,903
0.6869667,1127
0.6886333,871
0.6903,1128
0.6919667,865
0.6936333,1131
0.6953,884
0.6969666,1080
0.6986333,1039
0.7003,1035
0.7019666,1068
0.7036333,1016
0.7053,963
0.7069666,1103
0.7086333,941
0.7103,1178
0.7119667,1129
0.7136334,1117
0.7153,981
0.7169667,932
0.7186334,875
0.7203,942
0.7219667,890
0.7236333,916
0.7253,942
0.7269667,888
0.7286333,833
0.7303,1030
0.7319667,1109
0.7336333,1109
0.7353,872
0.7369667,881
0.7386333,911
0.7403,1140
0.7419667,1082
0.7436333,1104
0.7453,1040
0.7469667,993
0.7486333,1030
0.7503,802
0.7519667,895
0.7536333,990
0.7553,1053
0.7569667,893
0.7586333,941
0.7603,1055
0.7619666,895
0.7636333,884
0.7653,1019
0.7669666,942
0.7686333,834
0.7703,888
0.7719667,797
0.7736334,859
0.7753,978
0.7769667,939
0.7786334,901
0.7803,896
0.7819667,787
0.7836334,793
0.7853,1032
0.7869667,1122
0.7886333,911
0.7903,886
0.7919667,1002
0.7936333,865
0.7953,985
0.7969667,866
0.7986333,748
0.8003,871
0.8019667,753
0.8036333,959
0.8053,881
0.8069667,893
0.8086333,840
0.8103,931
0.8119667,935
0.8136333,938
0.8153,812
0.8169667,941
0.8186333,814
0.8203,1127
0.8219666,1052
0.8236333,812
0.8253,1012
0.8269666,1011
0.8286333,948
0.8303,884
0.8319666,992
0.8336333,904
0.8353,816
0.8369667,962
0.8386334,895
0.8403,952
0.8419667,971
0.8436334,867
0.8453,914
0.8469667,855
0.8486333,876
0.8503,956
0.8519667,980
0.8536333,1005
0.8553,1030
0.8569667,900
0.8586333,894
0.8603,938
0.8619667,970
0.8636333,1003
0.8653,1251
0.8669667,1338
0.8686333,1248
0.8703,1275
0.8719667,1302
0.8736333,1549
0.8753,1508
0.8769667,1467
0.8786333,1504
0.8803,1402
0.8819667,1343
0.8836333,1547
0.8853,1242
0.8869666,1267
0.8886333,1242
0.8903,1112
0.8919666,1329
0.8936333,1322
0.8953,1315
0.8969667,1467
0.8986334,1476
0.9003,1539
0.9019667,1495
0.9036334,1451
0.9053,1444
0.9069667,1411
0.9086334,1462
0.9103,1513
0.9119667,1559
0.9136333,1609
0.9153,1550
0.9169667,1499
0.9186333,1358
0.9203,1602
0.9219667,1648
0.9236333,1503
0.9253,1371
0.9269667,1208
0.9286333,1670
0.9303,1708
0.9319667,1354
0.9336333,1360
0.9353,1440
0.9369667,1330
0.9386333,1220
0.9403,1500
0.9419667,1491
0.9436333,1474
0.9453,1261
0.9469666,1169
0.9486333,1112
0.9503,1206
0.9519666,1300
0.9536333,1329
0.9553,1016
0.9569666,1111
0.9586333,1065
0.9603,1088
0.9619667,1028
0.9636334,964
0.9653,924
0.9669667,883
0.9686334,904
0.9703,908
0.9719667,911
0.9736333,830
0.9753,945
0.9769667,836
0.9786333,828
0.9803,949
0.9819667,857
0.9836333,732
0.9853,959
0.9869667,886
0.9886333,903
0.9903,833
0.9919667,895
0.9936333,804
0.9953,945
0.9969667,949
0.9986333,802
1.0003,895
1.001967,955
1.003633,1160
1.0053,1101
1.006967,891
1.008633,1024
1.0103,1047
1.011967,889
1.013633,1039
1.0153,1095
1.016967,919
1.018633,938
1.0203,945
1.021967,894
1.023633,971
1.0253,770
1.026967,905
1.028633,790
1.0303,927
1.031967,832
1.033633,847
1.0353,956
1.036967,1037
1.038633,1060
1.0403,973
1.041967,986
1.043633,1000
1.0453,976
1.046967,939
1.048633,991
1.0503,858
1.051967,991
1.053633,859
1.0553,888
1.056967,988
1.058633,843
1.0603,852
1.061967,897
1.063633,852
1.0653,806
1.066967,848
1.068633,833
1.0703,817
1.071967,809
1.073633,801
1.0753,790
1.076967,779
1.078633,846
1.0803,813
1.081967,781
1.083633,947
1.0853,961
1.086967,860
1.088633,937
1.0903,953
1.091967,970
1.093633,844
1.0953,886
1.096967,896
1.098633,811
1.1003,836
1.101967,762
1.103633,872
1.1053,864
1.106967,916
1.108633,976
1.1103,985
1.111967,889
1.113633,831
1.1153,1039
1.116967,753
1.118633,798
1.1203,907
1.121967,891
1.123633,770
1.1253,839
1.126967,742
1.128633,808
1.1303,874
1.131967,802
1.133633,734
1.1353,896
1.136967,826
1.138633,858
1.1403,810
1.141967,762
1.143633,871
1.1453,963
1.146967,957
1.148633,868
1.1503,845
1.151967,694
1.153633,756
1.1553,817
1.156967,930
1.158633,854
1.1603,957
1.161967,930
1.163633,903
1.1653,819
1.166967,839
1.168633,1029
1.1703,975
1.171967,811
1.173633,773
1.1753,657
1.176967,795
1.178633,933
1.1803,1013
1.181967,810
1.183633,922
1.1853,1024
1.186967,806
1.188633,1090
1.1903,999
1.191967,686
1.193633,913
1.1953,975
1.196967,886
1.198633,996
