"SampleName","A2Rd2_01-33"
"Target Mass 1",
"Column Name","IA-3 (3um, 4.6X100)"
"Channel","QDa 1: SIR Ch2"
0.00195,476
0.003616667,622
0.005283333,695
0.00695,483
0.008616666,648
0.01028333,814
0.01195,817
0.01361667,820
0.01528333,767
0.01695,969
0.01861667,989
0.02028333,1155
0.02195,1001
0.02361667,976
0.02528333,1057
0.02695,813
0.02861667,785
0.03028333,749
0.03195,790
0.03361667,831
0.03528333,671
0.03695,909
0.03861667,806
0.04028333,929
0.04195,895
0.04361667,946
0.04528333,965
0.04695,983
0.04861667,878
0.05028334,774
0.05195,890
0.05361667,980
0.05528333,954
0.05695,927
0.05861667,874
0.06028333,922
0.06195,871
0.06361666,823
0.06528334,775
0.06695,814
0.06861667,853
0.07028333,969
0.07195,1020
0.07361667,830
0.07528333,929
0.07695,947
0.07861666,834
0.08028334,796
0.08195,752
0.08361667,798
0.08528333,765
0.08695,732
0.08861667,762
0.09028333,792
0.09195,933
0.09361666,967
0.09528334,1014
0.09695,854
0.09861667,628
0.1002833,998
0.10195,867
0.1036167,860
0.1052833,864
0.10695,817
0.1086167,758
0.1102833,761
0.11195,764
0.1136167,851
0.1152833,926
0.11695,940
0.1186167,667
0.1202833,968
0.12195,939
0.1236167,973
0.1252833,834
0.12695,858
0.1286167,880
0.1302833,902
0.13195,770
0.1336167,814
0.1352833,766
0.13695,739
0.1386167,786
0.1402833,741
0.14195,697
0.1436167,900
0.1452833,947
0.14695,706
0.1486167,919
0.1502833,809
0.15195,920
0.1536167,685
0.1552833,832
0.15695,937
0.1586167,682
0.1602833,894
0.16195,901
0.1636167,875
0.1652833,842
0.16695,721
0.1686167,823
0.1702833,678
0.17195,901
0.1736167,875
0.1752833,955
0.17695,1014
0.1786167,751
0.1802833,808
0.18195,845
0.1836167,850
0.1852833,730
0.18695,730
0.1886167,680
0.1902833,855
0.19195,925
0.1936167,1001
0.1952833,827
0.19695,922
0.1986167,967
0.2002833,989
0.20195,999
0.2036167,997
0.2052833,809
0.20695,886
0.2086167,883
0.2102833,967
0.21195,967
0.2136167,967
0.2152833,951
0.21695,936
0.2186167,868
0.2202833,976
0.22195,955
0.2236167,934
0.2252833,876
0.22695,946
0.2286167,1017
0.2302833,1054
0.23195,1091
0.2336167,1038
0.2352833,894
0.23695,1187
0.2386167,1211
0.2402833,1181
0.24195,1173
0.2436167,1165
0.2452833,1232
0.24695,945
0.2486167,1092
0.2502833,1132
0.25195,1169
0.2536167,1278
0.2552833,893
0.25695,1345
0.2586167,1076
0.2602833,1128
0.26195,1221
0.2636333,992
0.2652833,1309
0.26695,1192
0.2686167,1141
0.2702833,952
0.27195,1120
0.2736333,1126
0.2752833,937
0.27695,1083
0.2786167,1102
0.2803,1019
0.28195,1061
0.2836167,1107
0.2852833,1197
0.28695,1199
0.2886167,1090
0.2902833,1080
0.29195,1203
0.2936167,1125
0.2952833,927
0.29695,1171
0.2986333,1253
0.3002833,1150
0.30195,1152
0.3036167,1191
0.3052833,1130
0.3069667,1070
0.3086167,1138
0.3102833,1205
0.31195,1271
0.3136167,1256
0.3153,1241
0.31695,1245
0.3186167,1161
0.3203,1187
0.32195,1264
0.3236333,1178
0.3252833,1174
0.32695,1122
0.3286167,1249
0.3302833,1222
0.3319667,1195
0.3336333,1404
0.3352833,1492
0.33695,1395
0.3386167,1197
0.3403,1257
0.34195,1305
0.3436167,1354
0.3452833,1301
0.34695,1248
0.3486333,1103
0.3503,1172
0.3519667,1223
0.3536333,1273
0.3553,1419
0.3569667,1472
0.3586333,1431
0.3602833,1547
0.3619667,1785
0.3636167,2658
0.3653,4856
0.36695,5524
0.3686333,5741
0.3702833,6021
0.3719667,5866
0.3736333,4525
0.3753,3275
0.37695,2374
0.3786333,1868
0.3802833,1691
0.3819667,1035
0.3836167,887
0.3853,862
0.3869667,565
0.3886333,563
0.3903,705
0.3919667,581
0.3936333,517
0.3953,577
0.3969667,683
0.3986333,685
0.4003,767
0.4019667,849
0.4036333,1038
0.4053,1086
0.4069667,1135
0.4086333,1202
0.4103,1270
0.4119667,1290
0.4136333,1168
0.4153,1041
0.4169667,1062
0.4186333,1086
0.4203,934
0.4219667,905
0.4236333,986
0.4253,945
0.4269667,904
0.4286333,1207
0.4303,1160
0.4319667,1105
0.4336333,1039
0.4353,1348
0.4369667,1456
0.4386333,1449
0.4403,1270
0.4419667,1278
0.4436333,1484
0.4453,1384
0.4469667,1515
0.4486333,1645
0.4503,1655
0.4519667,1633
0.4536333,1686
0.4553,1640
0.4569667,1594
0.4586333,1931
0.4603,2053
0.4619667,1740
0.4636333,1764
0.4653,1879
0.4669667,1924
0.4686333,1939
0.4703,1809
0.4719667,1721
0.4736333,1677
0.4753,1659
0.4769667,1534
0.4786333,1528
0.4803,1592
0.4819667,1631
0.4836333,1218
0.4853,1597
0.4869667,1355
0.4886333,1605
0.4903,1330
0.4919667,1315
0.4936333,1404
0.4953,1401
0.4969667,1469
0.4986333,1201
0.5003,1174
0.5019667,1174
0.5036333,1099
0.5053,1226
0.5069667,989
0.5086333,1050
0.5103,1079
0.5119666,1025
0.5136333,993
0.5153,1091
0.5169666,1016
0.5186333,1090
0.5203,1264
0.5219667,1240
0.5236334,1209
0.5253,1244
0.5269667,1010
0.5286334,1107
0.5303,1100
0.5319667,1146
0.5336334,1355
0.5353,1328
0.5369667,1211
0.5386333,874
0.5403,1306
0.5419667,1373
0.5436333,1109
0.5453,1210
0.5469667,1311
0.5486333,1196
0.5503,1063
0.5519667,984
0.5536333,1081
0.5553,1199
0.5569667,840
0.5586333,1018
0.5603,1080
0.5619667,1193
0.5636333,899
0.5653,1087
0.5669667,1096
0.5686333,1116
0.5703,971
0.5719666,958
0.5736333,970
0.5753,1176
0.5769666,1172
0.5786333,1154
0.5803,1158
0.5819666,1148
0.5836333,1115
0.5853,1083
0.5869667,1134
0.5886334,1101
0.5903,1058
0.5919667,1054
0.5936334,1110
0.5953,1076
0.5969667,1099
0.5986333,1155
0.6003,1119
0.6019667,1084
0.6036333,1134
0.6053,1184
0.6069667,1215
0.6086333,1212
0.6103,1210
0.6119667,1139
0.6136333,1069
0.6153,1262
0.6169667,1163
0.6186333,1289
0.6203,1175
0.6219667,1055
0.6236333,1215
0.6253,1290
0.6269667,1477
0.6286333,1335
0.6303,1142
0.6319667,1211
0.6336333,1286
0.6353,1082
0.6369666,1375
0.6386333,1376
0.6403,1398
0.6419666,1295
0.6436333,1310
0.6453,1324
0.6469667,1142
0.6486334,1150
0.6503,1198
0.6519667,1189
0.6536334,1179
0.6553,1127
0.6569667,1142
0.6586334,1075
0.6603,1243
0.6619667,1217
0.6636333,1327
0.6653,973
0.6669667,979
0.6686333,1145
0.6703,1024
0.6719667,904
0.6736333,890
0.6753,843
0.6769667,1000
0.6786333,959
0.6803,1212
0.6819667,1173
0.6836333,1110
0.6853,1165
0.6869667,1059
0.6886333,1130
0.6903,949
0.6919667,1041
0.6936333,943
0.6953,932
0.6969666,1030
0.6986333,1009
0.7003,888
0.7019666,1044
0.7036333,1120
0.7053,1212
0.7069666,961
0.7086333,1011
0.7103,1070
0.7119667,989
0.7136334,1043
0.7153,979
0.7169667,914
0.7186334,982
0.7203,1081
0.7219667,1049
0.7236333,1065
0.7253,1006
0.7269667,1011
0.7286333,903
0.7303,1047
0.7319667,1215
0.7336333,1223
0.7353,881
0.7369667,1021
0.7386333,1197
0.7403,834
0.7419667,941
0.7436333,961
0.7453,924
0.7469667,887
0.7486333,874
0.7503,843
0.7519667,813
0.7536333,851
0.7553,889
0.7569667,916
0.7586333,873
0.7603,942
0.7619666,1049
0.7636333,1095
0.7653,1140
0.7669666,969
0.7686333,887
0.7703,1019
0.7719667,908
0.7736334,1059
0.7753,1060
0.7769667,876
0.7786334,1014
0.7803,915
0.7819667,878
0.7836334,941
0.7853,971
0.7869667,920
0.7886333,869
0.7903,982
0.7919667,971
0.7936333,959
0.7953,969
0.7969667,945
0.7986333,922
0.8003,944
0.8019667,900
0.8036333,1113
0.8053,1102
0.8069667,881
0.8086333,924
0.8103,1110
0.8119667,967
0.8136333,1036
0.8153,1037
0.8169667,1075
0.8186333,993
0.8203,1072
0.8219666,889
0.8236333,1153
0.8253,1238
0.8269666,978
0.8286333,1074
0.8303,998
0.8319666,986
0.8336333,974
0.8353,1067
0.8369667,959
0.8386334,851
0.8403,1042
0.8419667,996
0.8436334,1120
0.8453,1073
0.8469667,932
0.8486333,1066
0.8503,876
0.8519667,1142
0.8536333,987
0.8553,1035
0.8569667,1054
0.8586333,1025
0.8603,952
0.8619667,1021
0.8636333,1291
0.8653,1408
0.8669667,1341
0.8686333,1519
0.8703,1667
0.8719667,1794
0.8736333,1592
0.8753,1641
0.8769667,1639
0.8786333,1646
0.8803,1920
0.8819667,1924
0.8836333,1308
0.8853,1619
0.8869666,1630
0.8886333,1635
0.8903,1707
0.8919666,1695
0.8936333,1684
0.8953,1775
0.8969667,1447
0.8986334,1568
0.9003,1513
0.9019667,1643
0.9036334,1699
0.9053,1679
0.9069667,1595
0.9086334,1718
0.9103,1528
0.9119667,1565
0.9136333,1595
0.9153,1518
0.9169667,1500
0.9186333,1542
0.9203,1583
0.9219667,1431
0.9236333,1510
0.9253,1467
0.9269667,1424
0.9286333,1648
0.9303,1178
0.9319667,1446
0.9336333,1705
0.9353,1658
0.9369667,1391
0.9386333,1669
0.9403,1698
0.9419667,1434
0.9436333,1253
0.9453,1415
0.9469666,1362
0.9486333,1193
0.9503,1172
0.9519666,1281
0.9536333,1142
0.9553,1353
0.9569666,1007
0.9586333,1143
0.9603,1223
0.9619667,1021
0.9636334,1196
0.9653,1047
0.9669667,930
0.9686334,1136
0.9703,1144
0.9719667,1081
0.9736333,788
0.9753,1180
0.9769667,880
0.9786333,1058
0.9803,987
0.9819667,942
0.9836333,748
0.9853,1014
0.9869667,810
0.9886333,801
0.9903,959
0.9919667,729
0.9936333,997
0.9953,882
0.9969667,890
0.9986333,1012
1.0003,963
1.001967,797
1.003633,1098
1.0053,978
1.006967,1104
1.008633,726
1.0103,1112
1.011967,1127
1.013633,1086
1.0153,1046
1.016967,865
1.018633,1144
1.0203,1011
1.021967,1149
1.023633,1069
1.0253,909
1.026967,893
1.028633,1081
1.0303,991
1.031967,942
1.033633,891
1.0353,962
1.036967,943
1.038633,963
1.0403,1015
1.041967,844
1.043633,903
1.0453,926
1.046967,846
1.048633,876
1.0503,1000
1.051967,971
1.053633,941
1.0553,844
1.056967,919
1.058633,872
1.0603,883
1.061967,938
1.063633,920
1.0653,985
1.066967,1012
1.068633,1008
1.0703,1004
1.071967,943
1.073633,965
1.0753,1054
1.076967,749
1.078633,868
1.0803,962
1.081967,932
1.083633,809
1.0853,876
1.086967,894
1.088633,912
1.0903,898
1.091967,883
1.093633,860
1.0953,873
1.096967,887
1.098633,884
1.1003,818
1.101967,908
1.103633,825
1.1053,1019
1.106967,944
1.108633,868
1.1103,858
1.111967,904
1.113633,951
1.1153,936
1.116967,921
1.118633,845
1.1203,918
1.121967,990
1.123633,964
1.1253,937
1.126967,796
1.128633,767
1.1303,781
1.131967,1098
1.133633,1019
1.1353,699
1.136967,846
1.138633,789
1.1403,813
1.141967,838
1.143633,807
1.1453,731
1.146967,887
1.148633,985
1.1503,945
1.151967,914
1.153633,947
1.1553,942
1.156967,1071
1.158633,773
1.1603,867
1.161967,892
1.163633,832
1.1653,762
1.166967,863
1.168633,881
1.1703,898
1.171967,852
1.173633,765
1.1753,743
1.176967,811
1.178633,812
1.1803,814
1.181967,839
1.183633,669
1.1853,768
1.186967,867
1.188633,937
1.1903,884
1.191967,842
1.193633,787
1.1953,696
1.196967,871
1.198633,822
