"SampleName","A2Rd2_01-54"
"Target Mass 1",
"Column Name","IA-3 (3um, 4.6X100)"
"Channel","QDa 1: SIR Ch1"
0.00195,288
0.003616667,646
0.005283333,605
0.00695,623
0.008616666,584
0.01028333,454
0.01195,673
0.01361667,575
0.01528333,705
0.01695,576
0.01861667,654
0.02028333,494
0.02195,636
0.02361667,652
0.02528333,619
0.02695,643
0.02861667,667
0.03028333,683
0.03195,699
0.03361667,610
0.03528333,680
0.03695,643
0.03861667,605
0.04028333,620
0.04195,553
0.04361667,520
0.04528333,487
0.04695,625
0.04861667,686
0.05028334,742
0.05195,616
0.05361667,796
0.05528333,608
0.05695,581
0.05861667,579
0.06028333,678
0.06195,688
0.06361666,634
0.06528334,637
0.06695,567
0.06861667,360
0.07028333,684
0.07195,832
0.07361667,730
0.07528333,579
0.07695,545
0.07861666,715
0.08028334,531
0.08195,682
0.08361667,645
0.0853,445
0.08695,509
0.08861667,634
0.09028333,644
0.09195,607
0.09361666,605
0.09528334,603
0.09695,392
0.09861667,596
0.1002833,590
0.10195,480
0.1036167,475
0.1052833,673
0.10695,659
0.1086167,588
0.1102833,470
0.11195,699
0.1136167,596
0.1152833,652
0.11695,534
0.1186167,459
0.1202833,576
0.12195,489
0.1236167,486
0.1252833,483
0.12695,510
0.1286167,537
0.1302833,506
0.13195,474
0.1336167,511
0.1352833,547
0.13695,497
0.1386167,447
0.1402833,519
0.14195,504
0.1436167,489
0.1452833,671
0.14695,716
0.1486167,576
0.1502833,578
0.15195,426
0.1536167,611
0.1552833,657
0.15695,637
0.1586167,601
0.1602833,598
0.16195,595
0.1636167,620
0.1652833,644
0.16695,605
0.1686167,567
0.1702833,547
0.17195,528
0.1736167,478
0.1752833,588
0.17695,612
0.1786167,601
0.1802833,657
0.18195,628
0.1836167,600
0.1852833,594
0.18695,588
0.1886167,581
0.1902833,610
0.19195,626
0.1936167,642
0.1952833,403
0.19695,588
0.1986167,530
0.2002833,600
0.20195,608
0.2036167,616
0.2052833,595
0.20695,574
0.2086167,652
0.2102833,481
0.21195,611
0.2136167,602
0.2152833,586
0.21695,571
0.2186167,594
0.2202833,534
0.22195,529
0.2236167,525
0.2252833,524
0.22695,537
0.2286167,558
0.2302833,553
0.23195,451
0.2336167,585
0.2352833,508
0.2369667,487
0.2386167,610
0.2402833,503
0.24195,496
0.2436167,658
0.2453,598
0.24695,620
0.2486333,710
0.2502833,436
0.25195,640
0.2536167,821
0.2552833,509
0.25695,578
0.2586167,483
0.2602833,510
0.26195,439
0.2636333,581
0.2653,671
0.26695,592
0.2686167,620
0.2702833,664
0.27195,562
0.2736167,567
0.2752833,572
0.27695,553
0.2786167,533
0.2803,543
0.28195,525
0.2836333,515
0.2853,504
0.2869667,503
0.2886167,501
0.2902833,514
0.29195,523
0.2936167,533
0.2952833,574
0.29695,615
0.2986333,630
0.3003,601
0.30195,572
0.3036333,600
0.3052833,739
0.30695,707
0.3086167,675
0.3102833,493
0.31195,724
0.3136167,675
0.3153,540
0.31695,610
0.3186167,643
0.3203,614
0.32195,559
0.3236167,450
0.3252833,529
0.32695,564
0.3286333,563
0.3302833,560
0.33195,557
0.3336333,490
0.3353,522
0.33695,547
0.3386333,530
0.3402833,514
0.34195,495
0.3436167,513
0.3452833,542
0.34695,571
0.3486333,525
0.3503,480
0.35195,507
0.3536333,478
0.3553,448
0.3569667,605
0.3586167,595
0.3602833,814
0.3619667,758
0.3636167,993
0.3653,1489
0.3669667,2670
0.3686333,4118
0.3703,5788
0.3719667,6073
0.3736333,6529
0.3753,6697
0.3769667,5807
0.3786333,5174
0.3803,4320
0.3819667,3354
0.3836333,2483
0.3853,2018
0.3869667,1711
0.3886333,1209
0.3903,1495
0.3919667,1216
0.3936333,1254
0.3953,1037
0.3969667,1177
0.3986333,1128
0.4003,1369
0.4019667,1279
0.4036333,1337
0.4053,1679
0.4069667,1714
0.4086333,1950
0.4103,1956
0.4119667,2412
0.4136333,2336
0.4153,2222
0.4169667,2329
0.4186333,2502
0.4203,2485
0.4219667,2319
0.4236333,2355
0.4253,3007
0.4269667,2922
0.4286333,2906
0.4303,3414
0.4319667,4110
0.4336333,4587
0.4353,5687
0.4369667,7339
0.4386333,9464
0.4403,11884
0.4419667,15864
0.4436333,20828
0.4453,27256
0.4469667,35296
0.4486333,46480
0.4503,56752
0.4519667,72496
0.4536333,86400
0.4553,104576
0.4569667,118512
0.4586333,142976
0.4603,163328
0.4619667,190144
0.4636333,217344
0.4653,255808
0.4669667,285184
0.4686333,317568
0.4703,342592
0.4719667,359360
0.4736333,364928
0.4753,353408
0.4769667,337600
0.4786333,318848
0.4803,276352
0.4819667,238080
0.4836333,203520
0.4853,164416
0.4869667,131776
0.4886333,103744
0.4903,80864
0.4919667,61616
0.4936333,47872
0.4953,36048
0.4969667,26044
0.4986333,21300
0.5003,17472
0.5019667,15092
0.5036333,12460
0.5053,10184
0.5069667,8932
0.5086333,8149
0.5103,7551
0.5119666,6503
0.5136333,6218
0.5153,6020
0.5169666,5384
0.5186333,4889
0.5203,5163
0.5219667,4854
0.5236334,4467
0.5253,4723
0.5269667,4194
0.5286334,3769
0.5303,3832
0.5319667,4319
0.5336334,3355
0.5353,3557
0.5369667,3391
0.5386333,3373
0.5403,2851
0.5419667,3032
0.5436333,3165
0.5453,3067
0.5469667,3003
0.5486333,2940
0.5503,3209
0.5519667,2495
0.5536333,2290
0.5553,2529
0.5569667,2276
0.5586333,1952
0.5603,2467
0.5619667,2233
0.5636333,2029
0.5653,2239
0.5669667,2056
0.5686333,2120
0.5703,2082
0.5719666,1900
0.5736333,2098
0.5753,1788
0.5769666,1807
0.5786333,1887
0.5803,1815
0.5819666,1742
0.5836333,1809
0.5853,1875
0.5869667,1887
0.5886334,1899
0.5903,2034
0.5919667,1902
0.5936334,1770
0.5953,1817
0.5969667,2014
0.5986333,1934
0.6003,1820
0.6019667,1959
0.6036333,1857
0.6053,2029
0.6069667,1934
0.6086333,1842
0.6103,2067
0.6119667,1971
0.6136333,1875
0.6153,1642
0.6169667,1693
0.6186333,1823
0.6203,1779
0.6219667,1856
0.6236333,1878
0.6253,1823
0.6269667,1769
0.6286333,1462
0.6303,1460
0.6319667,1687
0.6336333,1440
0.6353,1303
0.6369666,1133
0.6386333,1443
0.6403,1473
0.6419666,1455
0.6436333,1170
0.6453,1288
0.6469667,1225
0.6486334,1263
0.6503,1301
0.6519667,1250
0.6536334,1210
0.6553,1170
0.6569667,1153
0.6586334,1019
0.6603,1260
0.6619667,1011
0.6636333,1189
0.6653,1153
0.6669667,973
0.6686333,1152
0.6703,1280
0.6719667,1115
0.6736333,1189
0.6753,1056
0.6769667,917
0.6786333,1015
0.6803,1113
0.6819667,982
0.6836333,1010
0.6853,1101
0.6869667,1106
0.6886333,1156
0.6903,1055
0.6919667,1083
0.6936333,1112
0.6953,1080
0.6969666,1027
0.6986333,1112
0.7003,886
0.7019666,1051
0.7036333,1042
0.7053,991
0.7069666,1109
0.7086333,946
0.7103,1159
0.7119667,1132
0.7136334,1020
0.7153,1035
0.7169667,1044
0.7186334,890
0.7203,1127
0.7219667,840
0.7236333,938
0.7253,1031
0.7269667,1067
0.7286333,1058
0.7303,867
0.7319667,902
0.7336333,965
0.7353,957
0.7369667,949
0.7386333,1012
0.7403,1075
0.7419667,1138
0.7436333,893
0.7453,1017
0.7469667,1055
0.7486333,974
0.7503,1027
0.7519667,986
0.7536333,973
0.7553,926
0.7569667,879
0.7586333,949
0.7603,951
0.7619666,980
0.7636333,1050
0.7653,978
0.7669666,905
0.7686333,824
0.7703,883
0.7719667,834
0.7736334,769
0.7753,904
0.7769667,937
0.7786334,861
0.7803,824
0.7819667,830
0.7836334,832
0.7853,835
0.7869667,816
0.7886333,797
0.7903,827
0.7919667,857
0.7936333,842
0.7953,828
0.7969667,892
0.7986333,898
0.8003,871
0.8019667,844
0.8036333,779
0.8053,1012
0.8069667,1022
0.8086333,942
0.8103,859
0.8119667,907
0.8136333,770
0.8153,824
0.8169667,852
0.8186333,880
0.8203,829
0.8219666,988
0.8236333,973
0.8253,889
0.8269666,818
0.8286333,770
0.8303,824
0.8319666,821
0.8336333,818
0.8353,849
0.8369667,880
0.8386334,875
0.8403,938
0.8419667,732
0.8436334,943
0.8453,779
0.8469667,841
0.8486333,782
0.8503,783
0.8519667,892
0.8536333,866
0.8553,801
0.8569667,754
0.8586333,922
0.8603,593
0.8619667,1029
0.8636333,844
0.8653,1162
0.8669667,1546
0.8686333,1668
0.8703,2232
0.8719667,2227
0.8736333,2647
0.8753,3111
0.8769667,3205
0.8786333,3363
0.8803,3525
0.8819667,3388
0.8836333,3502
0.8853,3296
0.8869666,3370
0.8886333,3392
0.8903,3415
0.8919666,2981
0.8936333,3220
0.8953,3391
0.8969667,3146
0.8986334,2930
0.9003,3103
0.9019667,3509
0.9036334,3635
0.9053,3288
0.9069667,3352
0.9086334,3132
0.9103,3043
0.9119667,3423
0.9136333,2992
0.9153,3305
0.9169667,3268
0.9186333,3292
0.9203,3231
0.9219667,3323
0.9236333,3125
0.9253,2956
0.9269667,2970
0.9286333,2842
0.9303,3063
0.9319667,2591
0.9336333,2596
0.9353,2461
0.9369667,2573
0.9386333,2578
0.9403,2223
0.9419667,1927
0.9436333,2116
0.9453,2068
0.9469666,2044
0.9486333,1691
0.9503,1845
0.9519666,1821
0.9536333,1707
0.9553,1561
0.9569666,1696
0.9586333,1436
0.9603,1317
0.9619667,1303
0.9636334,1042
0.9653,1149
0.9669667,1177
0.9686334,985
0.9703,982
0.9719667,1089
0.9736333,984
0.9753,847
0.9769667,820
0.9786333,838
0.9803,868
0.9819667,637
0.9836333,799
0.9853,819
0.9869667,901
0.9886333,781
0.9903,596
0.9919667,610
0.9936333,623
0.9953,603
0.9969667,584
0.9986333,598
1.0003,613
1.001967,664
1.003633,696
1.0053,705
1.006967,664
1.008633,619
1.0103,687
1.011967,685
1.013633,683
1.0153,688
1.016967,721
1.018633,748
1.0203,556
1.021967,670
1.023633,741
1.0253,755
1.026967,750
1.028633,675
1.0303,556
1.031967,746
1.033633,584
1.0353,569
1.036967,708
1.038633,607
1.0403,743
1.041967,791
1.043633,487
1.0453,731
1.046967,676
1.048633,593
1.0503,612
1.051967,783
1.053633,747
1.0553,664
1.056967,668
1.058633,647
1.0603,644
1.061967,640
1.063633,575
1.0653,689
1.066967,534
1.068633,622
1.0703,535
1.071967,578
1.073633,620
1.0753,607
1.076967,674
1.078633,681
1.0803,429
1.081967,688
1.083633,573
1.0853,623
1.086967,663
1.088633,631
1.0903,623
1.091967,616
1.093633,588
1.0953,691
1.096967,644
1.098633,596
1.1003,705
1.101967,614
1.103633,715
1.1053,803
1.106967,731
1.108633,686
1.1103,648
1.111967,656
1.113633,664
1.1153,596
1.116967,527
1.118633,595
1.1203,511
1.121967,693
1.123633,639
1.1253,605
1.126967,534
1.128633,591
1.1303,583
1.131967,575
1.133633,529
1.1353,579
1.136967,551
1.138633,523
1.1403,564
1.141967,561
1.143633,558
1.1453,655
1.146967,620
1.148633,584
1.1503,663
1.151967,639
1.153633,615
1.1553,580
1.156967,546
1.158633,558
1.1603,570
1.161967,597
1.163633,503
1.1653,557
1.166967,611
1.168633,711
1.1703,684
1.171967,663
1.173633,690
1.1753,718
1.176967,705
1.178633,678
1.1803,536
1.181967,722
1.183633,831
1.1853,699
1.186967,525
1.188633,675
1.1903,679
1.191967,849
1.193633,784
1.1953,698
1.196967,586
1.198633,536
