"SampleName","A2Rd2_01-41"
"Target Mass 1",
"Column Name","IA-3 (3um, 4.6X100)"
"Channel","QDa 1: SIR Ch1"
0.00195,384
0.003616667,484
0.005283333,628
0.00695,754
0.008616666,837
0.01028333,570
0.01195,908
0.01361667,686
0.01528333,765
0.01695,548
0.01861667,704
0.02028333,777
0.02195,529
0.02361667,718
0.02528333,631
0.02695,788
0.02861667,696
0.03028333,604
0.03195,646
0.03361667,583
0.03528333,695
0.03695,685
0.03861667,591
0.04028333,758
0.04195,709
0.04361667,543
0.04528333,476
0.04695,709
0.04861667,529
0.05028334,461
0.05195,704
0.05361667,779
0.05528333,625
0.05695,596
0.05861667,739
0.06028333,651
0.06195,610
0.06361666,637
0.06528334,642
0.06695,646
0.06861667,744
0.07028333,709
0.07195,675
0.07361667,516
0.07528333,652
0.07695,653
0.07861666,633
0.08028334,613
0.08195,566
0.08361667,570
0.08528333,489
0.08695,642
0.08861667,636
0.09028333,557
0.09195,589
0.09361666,621
0.09528334,516
0.09695,682
0.09861667,658
0.1002833,545
0.10195,603
0.1036167,668
0.1052833,584
0.10695,490
0.1086167,553
0.1102833,624
0.11195,677
0.1136167,571
0.1152833,624
0.11695,600
0.1186167,599
0.1202833,598
0.12195,676
0.1236167,632
0.1252833,589
0.12695,507
0.1286167,589
0.1302833,704
0.13195,665
0.1336167,648
0.1352833,679
0.13695,619
0.1386167,674
0.1402833,672
0.14195,667
0.1436167,628
0.1452833,529
0.14695,623
0.1486167,572
0.1502833,521
0.15195,590
0.1536167,404
0.1552833,494
0.15695,583
0.1586167,633
0.1602833,540
0.16195,393
0.1636167,558
0.1652833,525
0.16695,492
0.1686167,525
0.1702833,559
0.17195,587
0.1736167,598
0.1752833,608
0.17695,607
0.1786167,615
0.1802833,623
0.18195,574
0.1836167,602
0.1852833,629
0.18695,542
0.1886167,662
0.1902833,566
0.19195,470
0.1936167,458
0.1952833,523
0.19695,570
0.1986167,551
0.2002833,548
0.20195,545
0.2036167,480
0.2052833,414
0.20695,597
0.2086167,622
0.2102833,575
0.21195,460
0.2136167,488
0.2152833,515
0.21695,541
0.2186167,525
0.2202833,508
0.22195,579
0.2236167,581
0.2252833,626
0.22695,472
0.2286167,624
0.2302833,637
0.23195,583
0.2336167,503
0.2352833,633
0.23695,571
0.2386167,509
0.2402833,640
0.24195,581
0.2436167,553
0.2452833,639
0.24695,627
0.2486167,615
0.2502833,539
0.25195,576
0.2536167,511
0.2552833,518
0.25695,580
0.2586167,550
0.2602833,485
0.26195,618
0.2636167,652
0.2652833,508
0.26695,553
0.2686167,517
0.2702833,548
0.27195,516
0.2736167,591
0.2752833,675
0.27695,662
0.2786167,585
0.2802833,557
0.28195,626
0.2836167,646
0.2852833,557
0.28695,598
0.2886167,641
0.2903,565
0.29195,677
0.2936167,639
0.2952833,689
0.29695,663
0.2986333,511
0.3002833,642
0.30195,658
0.3036167,649
0.3052833,657
0.30695,665
0.3086167,633
0.3102833,586
0.31195,693
0.3136167,599
0.3153,606
0.31695,625
0.3186167,645
0.3202833,643
0.32195,679
0.3236167,691
0.3252833,690
0.32695,689
0.3286167,447
0.3302833,633
0.33195,597
0.3336333,757
0.3352833,672
0.33695,756
0.3386167,622
0.3403,671
0.34195,804
0.3436167,580
0.3452833,553
0.34695,522
0.3486167,577
0.3503,642
0.35195,669
0.3536167,661
0.3553,690
0.3569667,548
0.3586167,575
0.3602833,745
0.36195,904
0.3636167,1187
0.3653,1996
0.36695,3985
0.3686333,5778
0.3702833,6920
0.3719667,6598
0.3736333,7394
0.3752833,6373
0.37695,5485
0.3786167,3832
0.3802833,3407
0.3819667,2855
0.3836167,2153
0.3853,1643
0.38695,1698
0.3886333,1489
0.3903,1322
0.39195,1255
0.3936167,1209
0.3952833,945
0.39695,1273
0.3986333,1210
0.4002833,1331
0.40195,1574
0.4036333,1505
0.4053,1786
0.4069667,1896
0.4086167,1884
0.4103,1955
0.41195,1859
0.4136167,1762
0.4153,2085
0.4169667,2074
0.4186167,1971
0.4203,1791
0.4219667,1883
0.4236333,1536
0.4252833,1695
0.4269667,1602
0.4286167,1685
0.4302833,2082
0.4319667,2069
0.4336167,2532
0.4352833,3171
0.4369667,4300
0.4386333,6047
0.4403,8428
0.4419667,11540
0.4436333,15340
0.4453,22048
0.4469667,28884
0.4486333,38208
0.4503,49168
0.4519667,62688
0.4536333,77968
0.4553,98032
0.4569667,123040
0.4586333,147584
0.4603,178816
0.4619667,215232
0.4636333,262016
0.4653,302592
0.4669667,335488
0.4686333,375168
0.4703,401152
0.4719667,408704
0.4736333,407680
0.4753,385728
0.4769667,358912
0.4786333,322880
0.4803,274496
0.4819667,232576
0.4836333,187904
0.4853,153408
0.4869667,118256
0.4886333,92352
0.4903,69792
0.4919667,55392
0.4936333,44080
0.4953,34864
0.4969667,28012
0.4986333,22340
0.5003,19536
0.5019667,15860
0.5036333,14004
0.5053,11276
0.5069667,10464
0.5086333,9848
0.5103,8940
0.5119666,8208
0.5136333,6596
0.5153,5921
0.5169666,5755
0.5186333,5293
0.5203,4999
0.5219667,5062
0.5236334,4956
0.5253,4342
0.5269667,4194
0.5286334,3906
0.5303,4160
0.5319667,3602
0.5336334,3882
0.5353,3553
0.5369667,3533
0.5386333,3497
0.5403,3413
0.5419667,3104
0.5436333,3352
0.5453,3318
0.5469667,3041
0.5486333,2861
0.5503,3091
0.5519667,2554
0.5536333,2524
0.5553,2504
0.5569667,2088
0.5586333,2265
0.5603,1975
0.5619667,2015
0.5636333,2056
0.5653,2160
0.5669667,2378
0.5686333,2283
0.5703,1812
0.5719666,1956
0.5736333,1962
0.5753,1781
0.5769666,1858
0.5786333,1860
0.5803,1849
0.5819666,1838
0.5836333,1825
0.5853,1813
0.5869667,1904
0.5886334,1924
0.5903,1883
0.5919667,1842
0.5936334,1949
0.5953,1941
0.5969667,1932
0.5986333,1693
0.6003,1804
0.6019667,1663
0.6036333,1521
0.6053,1712
0.6069667,1738
0.6086333,1764
0.6103,1662
0.6119667,1649
0.6136333,1603
0.6153,1464
0.6169667,1691
0.6186333,1668
0.6203,1371
0.6219667,1381
0.6236333,1570
0.6253,1504
0.6269667,1555
0.6286333,1520
0.6303,1346
0.6319667,1528
0.6336333,1346
0.6353,1231
0.6369666,1381
0.6386333,1382
0.6403,1381
0.6419666,1305
0.6436333,1320
0.6453,1256
0.6469667,1321
0.6486334,1386
0.6503,1204
0.6519667,1418
0.6536334,1430
0.6553,1523
0.6569667,1425
0.6586334,1064
0.6603,1295
0.6619667,1343
0.6636333,1451
0.6653,1353
0.6669667,1091
0.6686333,1361
0.6703,1167
0.6719667,1016
0.6736333,953
0.6753,1301
0.6769667,1195
0.6786333,1102
0.6803,1343
0.6819667,1122
0.6836333,1258
0.6853,1123
0.6869667,1256
0.6886333,1144
0.6903,1111
0.6919667,1296
0.6936333,1082
0.6953,1315
0.6969666,1174
0.6986333,1203
0.7003,1357
0.7019666,825
0.7036333,1340
0.7053,1369
0.7069666,1119
0.7086333,1310
0.7103,1232
0.7119667,1104
0.7136334,1462
0.7153,969
0.7169667,1095
0.7186334,1154
0.7203,1282
0.7219667,1266
0.7236333,1078
0.7253,1109
0.7269667,1114
0.7286333,989
0.7303,1123
0.7319667,1092
0.7336333,898
0.7353,1287
0.7369667,1117
0.7386333,1158
0.7403,1096
0.7419667,1133
0.7436333,1169
0.7453,1162
0.7469667,1156
0.7486333,1279
0.7503,1317
0.7519667,1261
0.7536333,1104
0.7553,1032
0.7569667,1035
0.7586333,1063
0.7603,1090
0.7619666,1107
0.7636333,1124
0.7653,998
0.7669666,1382
0.7686333,1304
0.7703,1189
0.7719667,1196
0.7736334,1186
0.7753,1140
0.7769667,1057
0.7786334,1114
0.7803,1171
0.7819667,1099
0.7836334,1039
0.7853,1043
0.7869667,963
0.7886333,1169
0.7903,1260
0.7919667,1229
0.7936333,1192
0.7953,1139
0.7969667,1129
0.7986333,1219
0.8003,1236
0.8019667,1212
0.8036333,1101
0.8053,1140
0.8069667,1194
0.8086333,1137
0.8103,1001
0.8119667,1046
0.8136333,1299
0.8153,1359
0.8169667,1056
0.8186333,1255
0.8203,1235
0.8219666,1254
0.8236333,1273
0.8253,1340
0.8269666,1330
0.8286333,1301
0.8303,1230
0.8319666,1286
0.8336333,1281
0.8353,1183
0.8369667,1230
0.8386334,1275
0.8403,1239
0.8419667,1204
0.8436334,1156
0.8453,1207
0.8469667,1155
0.8486333,1129
0.8503,1212
0.8519667,1173
0.8536333,1035
0.8553,968
0.8569667,1077
0.8586333,954
0.8603,950
0.8619667,1189
0.8636333,1250
0.8653,1544
0.8669667,1964
0.8686333,2572
0.8703,3155
0.8719667,4223
0.8736333,4438
0.8753,4994
0.8769667,5024
0.8786333,5284
0.8803,4838
0.8819667,4846
0.8836333,4981
0.8853,4575
0.8869666,5033
0.8886333,4147
0.8903,4934
0.8919666,4498
0.8936333,4635
0.8953,4627
0.8969667,4469
0.8986334,4602
0.9003,4614
0.9019667,4695
0.9036334,4821
0.9053,4848
0.9069667,4875
0.9086334,4793
0.9103,4834
0.9119667,4875
0.9136333,4588
0.9153,4964
0.9169667,4784
0.9186333,4665
0.9203,4485
0.9219667,4927
0.9236333,4797
0.9253,4806
0.9269667,4099
0.9286333,3966
0.9303,3571
0.9319667,3908
0.9336333,3341
0.9353,3625
0.9369667,3621
0.9386333,3662
0.9403,3702
0.9419667,3206
0.9436333,2992
0.9453,3070
0.9469666,2687
0.9486333,2713
0.9503,2299
0.9519666,2507
0.9536333,2371
0.9553,2320
0.9569666,2124
0.9586333,2013
0.9603,1884
0.9619667,1518
0.9636334,1681
0.9653,1359
0.9669667,1491
0.9686334,1333
0.9703,1384
0.9719667,1073
0.9736333,1164
0.9753,1235
0.9769667,1289
0.9786333,1126
0.9803,859
0.9819667,1077
0.9836333,933
0.9853,852
0.9869667,918
0.9886333,919
0.9903,679
0.9919667,837
0.9936333,840
0.9953,939
0.9969667,754
0.9986333,668
1.0003,893
1.001967,770
1.003633,952
1.0053,731
1.006967,779
1.008633,879
1.0103,882
1.011967,729
1.013633,864
1.0153,645
1.016967,794
1.018633,909
1.0203,819
1.021967,871
1.023633,750
1.0253,772
1.026967,860
1.028633,710
1.0303,694
1.031967,845
1.033633,813
1.0353,836
1.036967,818
1.038633,800
1.0403,937
1.041967,937
1.043633,837
1.0453,707
1.046967,756
1.048633,738
1.0503,580
1.051967,797
1.053633,646
1.0553,758
1.056967,680
1.058633,781
1.0603,779
1.061967,862
1.063633,854
1.0653,846
1.066967,834
1.068633,821
1.0703,882
1.071967,763
1.073633,775
1.0753,650
1.076967,921
1.078633,859
1.0803,899
1.081967,919
1.083633,775
1.0853,799
1.086967,853
1.088633,799
1.0903,645
1.091967,979
1.093633,920
1.0953,894
1.096967,924
1.098633,740
1.1003,764
1.101967,882
1.103633,805
1.1053,852
1.106967,785
1.108633,748
1.1103,748
1.111967,761
1.113633,773
1.1153,652
1.116967,802
1.118633,820
1.1203,745
1.121967,670
1.123633,848
1.1253,557
1.126967,791
1.128633,862
1.1303,786
1.131967,648
1.133633,923
1.1353,891
1.136967,845
1.138633,780
1.1403,795
1.141967,688
1.143633,687
1.1453,940
1.146967,1011
1.148633,709
1.1503,854
1.151967,876
1.153633,805
1.1553,804
1.156967,773
1.158633,840
1.1603,880
1.161967,919
1.163633,863
1.1653,864
1.166967,866
1.168633,965
1.1703,1039
1.171967,1088
1.173633,807
1.1753,1002
1.176967,938
1.178633,1063
1.1803,853
1.181967,1024
1.183633,910
1.1853,927
1.186967,1020
1.188633,1042
1.1903,983
1.191967,1042
1.193633,999
1.1953,894
1.196967,1064
1.198633,1125
