"SampleName","A2Rd2_01-59"
"Target Mass 1",
"Column Name","IA-3 (3um, 4.6X100)"
"Channel","QDa 1: SIR Ch1"
0.00195,428
0.003616667,474
0.005283333,453
0.00695,515
0.008616666,562
0.01028333,541
0.01195,521
0.01361667,548
0.01528333,577
0.01695,606
0.01861667,503
0.02028333,672
0.02195,463
0.02361667,587
0.02528333,613
0.02695,534
0.02861667,456
0.03028333,434
0.03195,414
0.03361667,418
0.03528333,543
0.03695,546
0.03861667,549
0.04028333,519
0.04195,511
0.04361667,474
0.04528333,438
0.04695,478
0.04861667,519
0.05028334,556
0.05195,544
0.05361667,549
0.05528333,555
0.05695,487
0.05861667,499
0.06028333,587
0.06195,421
0.06361666,598
0.06528334,695
0.06695,477
0.06861667,616
0.07028333,794
0.07195,417
0.07361667,525
0.07528333,494
0.07695,527
0.07861666,397
0.08028334,560
0.08195,526
0.08361667,492
0.08528333,487
0.08695,476
0.08861667,465
0.09028333,477
0.09195,488
0.09361666,548
0.09528334,326
0.09695,661
0.09861667,612
0.1002833,619
0.10195,654
0.1036167,501
0.1052833,420
0.10695,537
0.1086167,531
0.1102833,526
0.11195,521
0.1136167,516
0.1152833,484
0.11695,494
0.1186167,454
0.1202833,414
0.12195,506
0.1236167,557
0.1252833,671
0.12695,657
0.1286167,556
0.1302833,489
0.13195,555
0.1336167,572
0.1352833,573
0.13695,541
0.1386167,658
0.1402833,441
0.14195,570
0.1436167,522
0.1452833,609
0.14695,504
0.1486167,392
0.1502833,511
0.15195,429
0.1536167,558
0.1552833,585
0.15695,532
0.1586167,406
0.1602833,670
0.16195,679
0.1636167,593
0.1652833,541
0.16695,555
0.1686167,608
0.1702833,514
0.17195,463
0.1736167,588
0.1752833,504
0.17695,498
0.1786167,500
0.1802833,516
0.18195,531
0.1836167,456
0.1852833,649
0.18695,648
0.1886167,744
0.1902833,531
0.19195,486
0.1936167,529
0.1952833,540
0.19695,372
0.1986167,403
0.2002833,435
0.20195,562
0.2036167,587
0.2052833,589
0.20695,575
0.2086167,461
0.2102833,610
0.21195,536
0.2136167,442
0.2152833,435
0.21695,427
0.2186167,418
0.2202833,455
0.22195,491
0.2236167,477
0.2252833,463
0.22695,466
0.2286167,503
0.2302833,481
0.23195,460
0.2336167,469
0.2352833,428
0.23695,386
0.2386167,444
0.2402833,501
0.24195,534
0.2436167,516
0.2452833,498
0.24695,490
0.2486167,424
0.2502833,467
0.25195,511
0.2536167,471
0.2552833,431
0.25695,531
0.2586167,470
0.2602833,395
0.26195,490
0.2636333,355
0.2652833,488
0.26695,387
0.2686167,463
0.2702833,539
0.27195,551
0.2736167,367
0.2752833,443
0.27695,422
0.2786167,434
0.2803,463
0.28195,493
0.2836167,573
0.2852833,561
0.28695,571
0.2886167,547
0.2902833,524
0.29195,595
0.2936167,488
0.2952833,550
0.29695,461
0.2986333,467
0.3002833,473
0.30195,481
0.3036167,543
0.3052833,686
0.30695,658
0.3086167,583
0.3102833,469
0.31195,610
0.3136333,541
0.3153,540
0.31695,498
0.3186333,574
0.3202833,650
0.3219667,419
0.3236167,569
0.3252833,612
0.32695,715
0.3286167,441
0.3303,573
0.3319667,544
0.3336333,459
0.3353,477
0.33695,498
0.3386333,520
0.3402833,505
0.3419667,456
0.3436167,541
0.3452833,575
0.3469667,575
0.3486333,497
0.3503,646
0.3519667,605
0.3536333,627
0.3553,541
0.3569667,516
0.3586333,491
0.3602833,572
0.3619667,693
0.3636333,738
0.3653,1516
0.36695,2746
0.3686333,4605
0.3703,6712
0.3719667,6313
0.3736333,7057
0.3753,7631
0.3769667,7362
0.3786333,6676
0.3803,4902
0.3819667,4183
0.3836333,3372
0.3853,2675
0.3869667,1966
0.3886333,1413
0.3903,1171
0.3919667,1056
0.3936333,1172
0.3953,717
0.3969667,955
0.3986333,884
0.4003,971
0.4019667,844
0.4036333,1009
0.4053,1082
0.4069667,1192
0.4086333,1230
0.4103,1376
0.4119667,1312
0.4136333,1265
0.4153,1218
0.4169667,1430
0.4186333,1419
0.4203,1407
0.4219667,1290
0.4236333,1297
0.4253,1289
0.4269667,1321
0.4286333,1719
0.4303,2396
0.4319667,2878
0.4336333,4283
0.4353,6034
0.4369667,8364
0.4386333,10960
0.4403,13904
0.4419667,20384
0.4436333,26856
0.4453,35776
0.4469667,44704
0.4486333,58416
0.4503,71488
0.4519667,92288
0.4536333,103904
0.4553,127376
0.4569667,148864
0.4586333,169856
0.4603,191424
0.4619667,215552
0.4636333,246528
0.4653,276992
0.4669667,311744
0.4686333,343040
0.4703,367744
0.4719667,391488
0.4736333,402816
0.4753,401152
0.4769667,391680
0.4786333,364480
0.4803,333184
0.4819667,295424
0.4836333,252992
0.4853,211264
0.4869667,174656
0.4886333,140224
0.4903,113168
0.4919667,89056
0.4936333,68352
0.4953,52816
0.4969667,39376
0.4986333,31044
0.5003,25444
0.5019667,20552
0.5036333,17060
0.5053,14296
0.5069667,11980
0.5086333,10660
0.5103,9820
0.5119666,8908
0.5136333,7783
0.5153,7226
0.5169666,6830
0.5186333,6481
0.5203,5991
0.5219667,5135
0.5236334,5276
0.5253,4786
0.5269667,4686
0.5286334,3936
0.5303,4370
0.5319667,4100
0.5336334,4254
0.5353,3392
0.5369667,3572
0.5386333,3651
0.5403,3035
0.5419667,2994
0.5436333,3270
0.5453,2762
0.5469667,2850
0.5486333,3150
0.5503,2572
0.5519667,2603
0.5536333,2246
0.5553,2396
0.5569667,2410
0.5586333,2197
0.5603,1948
0.5619667,2248
0.5636333,1847
0.5653,1853
0.5669667,2032
0.5686333,1992
0.5703,1313
0.5719666,1732
0.5736333,2222
0.5753,1826
0.5769666,1911
0.5786333,1741
0.5803,1737
0.5819666,1732
0.5836333,1553
0.5853,1720
0.5869667,1436
0.5886334,1479
0.5903,1399
0.5919667,1449
0.5936334,1567
0.5953,1285
0.5969667,1399
0.5986333,1542
0.6003,1501
0.6019667,1339
0.6036333,1440
0.6053,1295
0.6069667,1302
0.6086333,1308
0.6103,1326
0.6119667,1345
0.6136333,1481
0.6153,1481
0.6169667,1188
0.6186333,1123
0.6203,1290
0.6219667,1130
0.6236333,1296
0.6253,1030
0.6269667,1068
0.6286333,1147
0.6303,1123
0.6319667,985
0.6336333,1005
0.6353,1076
0.6369666,938
0.6386333,908
0.6403,672
0.6419666,950
0.6436333,859
0.6453,1028
0.6469667,1109
0.6486334,1073
0.6503,779
0.6519667,775
0.6536334,853
0.6553,824
0.6569667,817
0.6586334,870
0.6603,863
0.6619667,857
0.6636333,864
0.6653,785
0.6669667,823
0.6686333,860
0.6703,731
0.6719667,721
0.6736333,712
0.6753,797
0.6769667,883
0.6786333,813
0.6803,743
0.6819667,863
0.6836333,717
0.6853,697
0.6869667,677
0.6886333,718
0.6903,759
0.6919667,752
0.6936333,761
0.6953,769
0.6969666,740
0.6986333,661
0.7003,740
0.7019666,720
0.7036333,701
0.7053,697
0.7069666,694
0.7086333,657
0.7103,734
0.7119667,836
0.7136334,794
0.7153,836
0.7169667,684
0.7186334,768
0.7203,803
0.7219667,860
0.7236333,593
0.7253,809
0.7269667,811
0.7286333,810
0.7303,843
0.7319667,571
0.7336333,790
0.7353,723
0.7369667,622
0.7386333,709
0.7403,798
0.7419667,829
0.7436333,899
0.7453,845
0.7469667,639
0.7486333,1004
0.7503,641
0.7519667,669
0.7536333,710
0.7553,740
0.7569667,688
0.7586333,679
0.7603,675
0.7619666,646
0.7636333,617
0.7653,611
0.7669666,546
0.7686333,584
0.7703,623
0.7719667,696
0.7736334,728
0.7753,759
0.7769667,733
0.7786334,531
0.7803,679
0.7819667,729
0.7836334,707
0.7853,677
0.7869667,628
0.7886333,664
0.7903,689
0.7919667,547
0.7936333,686
0.7953,658
0.7969667,742
0.7986333,718
0.8003,715
0.8019667,519
0.8036333,748
0.8053,696
0.8069667,683
0.8086333,608
0.8103,697
0.8119667,545
0.8136333,579
0.8153,612
0.8169667,621
0.8186333,631
0.8203,614
0.8219666,598
0.8236333,515
0.8253,544
0.8269666,573
0.8286333,544
0.8303,515
0.8319666,612
0.8336333,664
0.8353,637
0.8369667,659
0.8386334,586
0.8403,643
0.8419667,640
0.8436334,638
0.8453,470
0.8469667,536
0.8486333,601
0.8503,607
0.8519667,599
0.8536333,588
0.8553,561
0.8569667,585
0.8586333,609
0.8603,504
0.8619667,656
0.8636333,635
0.8653,956
0.8669667,920
0.8686333,1286
0.8703,1112
0.8719667,1173
0.8736333,1203
0.8753,1034
0.8769667,1264
0.8786333,1332
0.8803,1055
0.8819667,1147
0.8836333,995
0.8853,1122
0.8869666,1248
0.8886333,1161
0.8903,1290
0.8919666,1072
0.8936333,1086
0.8953,1249
0.8969667,977
0.8986334,1266
0.9003,1238
0.9019667,1283
0.9036334,1255
0.9053,962
0.9069667,1042
0.9086334,1337
0.9103,1098
0.9119667,1130
0.9136333,1162
0.9153,1163
0.9169667,1165
0.9186333,1143
0.9203,1121
0.9219667,1172
0.9236333,1178
0.9253,1294
0.9269667,1271
0.9286333,1106
0.9303,1103
0.9319667,1278
0.9336333,1312
0.9353,1234
0.9369667,1196
0.9386333,1082
0.9403,1154
0.9419667,1239
0.9436333,1039
0.9453,1238
0.9469666,1029
0.9486333,891
0.9503,936
0.9519666,991
0.9536333,742
0.9553,1099
0.9569666,859
0.9586333,812
0.9603,777
0.9619667,720
0.9636334,730
0.9653,697
0.9669667,790
0.9686334,801
0.9703,591
0.9719667,804
0.9736333,615
0.9753,498
0.9769667,600
0.9786333,643
0.9803,520
0.9819667,690
0.9836333,586
0.9853,536
0.9869667,508
0.9886333,579
0.9903,421
0.9919667,410
0.9936333,564
0.9953,435
0.9969667,570
0.9986333,331
1.0003,580
1.001967,474
1.003633,507
1.0053,479
1.006967,483
1.008633,435
1.0103,438
1.011967,441
1.013633,497
1.0153,554
1.016967,576
1.018633,408
1.0203,498
1.021967,434
1.023633,531
1.0253,503
1.026967,530
1.028633,547
1.0303,515
1.031967,482
1.033633,575
1.0353,442
1.036967,377
1.038633,696
1.0403,593
1.041967,539
1.043633,505
1.0453,453
1.046967,470
1.048633,607
1.0503,599
1.051967,401
1.053633,524
1.0553,516
1.056967,489
1.058633,529
1.0603,568
1.061967,422
1.063633,327
1.0653,641
1.066967,433
1.068633,529
1.0703,519
1.071967,434
1.073633,580
1.0753,495
1.076967,548
1.078633,437
1.0803,580
1.081967,626
1.083633,585
1.0853,628
1.086967,548
1.088633,499
1.0903,488
1.091967,511
1.093633,422
1.0953,570
1.096967,584
1.098633,469
1.1003,487
1.101967,458
1.103633,466
1.1053,474
1.106967,520
1.108633,515
1.1103,511
1.111967,605
1.113633,377
1.1153,479
1.116967,509
1.118633,491
1.1203,511
1.121967,526
1.123633,399
1.1253,416
1.126967,615
1.128633,541
1.1303,648
1.131967,661
1.133633,446
1.1353,600
1.136967,494
1.138633,528
1.1403,652
1.141967,602
1.143633,683
1.1453,403
1.146967,523
1.148633,460
1.1503,452
1.151967,420
1.153633,478
1.1553,537
1.156967,535
1.158633,432
1.1603,419
1.161967,576
1.163633,551
1.1653,628
1.166967,653
1.168633,501
1.1703,631
1.171967,554
1.173633,511
1.1753,636
1.176967,473
1.178633,451
1.1803,389
1.181967,502
1.183633,502
1.1853,502
1.186967,498
1.188633,495
1.1903,401
1.191967,514
1.193633,572
1.1953,590
1.196967,547
1.198633,529
