"SampleName","A2Rd2_01-61"
"Target Mass 1",
"Column Name","IA-3 (3um, 4.6X100)"
"Channel","QDa 1: SIR Ch2"
0.00195,901
0.003616667,575
0.005283333,793
0.00695,700
0.008616666,773
0.01028333,883
0.01195,969
0.01361667,917
0.01528333,865
0.01695,990
0.01861667,1084
0.02028333,1039
0.02195,959
0.02361667,939
0.02528333,952
0.02695,952
0.02861667,974
0.03028333,977
0.03195,990
0.03361667,899
0.03528333,931
0.03695,942
0.03861667,942
0.04028333,942
0.04195,1144
0.04361667,1192
0.04528333,1092
0.04695,933
0.04861667,937
0.05028334,1107
0.05195,1073
0.05363333,997
0.05528333,1142
0.05695,851
0.05861667,806
0.06028333,1059
0.06195,968
0.06361666,991
0.06528334,948
0.06696667,989
0.06861667,1031
0.0703,874
0.07195,874
0.07361667,1145
0.07528333,1130
0.07695,1106
0.07863333,1018
0.08028334,992
0.08196667,834
0.08363333,1086
0.0853,1082
0.08696666,849
0.08863334,991
0.0903,900
0.09196667,1043
0.09363333,1103
0.0953,951
0.09696667,870
0.09863333,955
0.1003,850
0.1019667,860
0.1036333,870
0.1053,785
0.1069667,906
0.1086333,993
0.1103,959
0.1119667,905
0.1136333,918
0.1153,899
0.1169667,881
0.1186333,911
0.1203,908
0.1219667,917
0.1236333,926
0.1253,1012
0.1269667,761
0.1286333,987
0.1303,953
0.1319667,904
0.1336333,879
0.1353,855
0.1369667,845
0.1386333,835
0.1403,806
0.1419667,926
0.1436333,928
0.1453,974
0.1469667,941
0.1486333,908
0.1503,857
0.1519667,798
0.1536333,905
0.1553,912
0.1569667,910
0.1586333,928
0.1603,947
0.1619667,766
0.1636333,1053
0.1653,1161
0.1669667,944
0.1686333,886
0.1703,851
0.1719667,984
0.1736333,818
0.1753,1000
0.1769667,797
0.1786333,969
0.1803,724
0.1819667,775
0.1836333,959
0.1853,839
0.1869667,1017
0.1886333,917
0.1903,968
0.1919667,1027
0.1936333,887
0.1953,768
0.1969667,1008
0.1986333,803
0.2003,965
0.2019667,894
0.2036333,1155
0.2053,1140
0.2069667,855
0.2086333,832
0.2103,1052
0.2119667,1041
0.2136333,1030
0.2153,1120
0.2169667,938
0.2186333,1164
0.2203,1068
0.2219667,944
0.2236333,1064
0.2253,1005
0.2269667,919
0.2286333,958
0.2303,997
0.2319667,1075
0.2336333,1154
0.2353,1163
0.2369667,1217
0.2386333,1244
0.2403,1249
0.2419667,1111
0.2436333,1124
0.2453,1144
0.2469667,1227
0.2486333,1224
0.2503,1128
0.2519667,1165
0.2536333,1112
0.2553,1103
0.2569667,1077
0.2586333,1100
0.2603,1082
0.2619667,1064
0.2636333,1074
0.2653,1110
0.2669667,1256
0.2686333,1243
0.2703,1060
0.2719667,1072
0.2736333,901
0.2753,1226
0.2769667,1143
0.2786333,1009
0.2803,1178
0.2819667,1131
0.2836333,1124
0.2853,1038
0.2869667,998
0.2886333,1099
0.2903,1009
0.2919667,998
0.2936333,987
0.2953,1005
0.2969667,952
0.2986333,899
0.3003,1015
0.3019667,1005
0.3036333,995
0.3053,993
0.3069667,1043
0.3086333,1093
0.3103,907
0.3119667,1220
0.3136333,1314
0.3153,1217
0.3169667,1224
0.3186333,1204
0.3203,1202
0.3219667,927
0.3236333,1032
0.3253,1136
0.3269667,1263
0.3286333,1222
0.3303,1302
0.3319667,1192
0.3336333,1170
0.3353,1369
0.3369667,1364
0.3386333,1197
0.3403,1471
0.3419667,1282
0.3436333,1100
0.3453,1253
0.3469667,1165
0.3486333,1077
0.3503,1400
0.3519667,1439
0.3536333,1465
0.3553,1138
0.3569667,1298
0.3586333,1242
0.3603,1226
0.3619667,1209
0.3636333,1641
0.3653,2936
0.3669667,3691
0.3686333,5176
0.3703,5102
0.3719667,4715
0.3736333,4591
0.3753,4370
0.3769667,4083
0.3786333,3249
0.3803,2374
0.3819667,1819
0.3836333,1251
0.3853,823
0.3869667,806
0.3886333,670
0.3903,492
0.3919667,504
0.3936333,401
0.3953,526
0.3969667,457
0.3986333,532
0.4003,532
0.4019667,469
0.4036333,511
0.4053,581
0.4069667,620
0.4086333,681
0.4103,756
0.4119667,893
0.4136333,971
0.4153,1107
0.4169667,1025
0.4186333,862
0.4203,1086
0.4219667,1009
0.4236333,914
0.4253,944
0.4269667,1097
0.4286333,1129
0.4303,1047
0.4319667,1154
0.4336333,1046
0.4353,1111
0.4369667,1363
0.4386333,1287
0.4403,1479
0.4419667,1311
0.4436333,1431
0.4453,1551
0.4469667,1619
0.4486333,1664
0.4503,1607
0.4519667,1549
0.4536333,1491
0.4553,1727
0.4569667,1739
0.4586333,1743
0.4603,1628
0.4619667,1730
0.4636333,2012
0.4653,1929
0.4669667,1725
0.4686333,1883
0.4703,1735
0.4719667,1598
0.4736333,1443
0.4753,1680
0.4769667,1504
0.4786333,1540
0.4803,1576
0.4819667,1543
0.4836333,1509
0.4853,1478
0.4869667,1672
0.4886333,1050
0.4903,1266
0.4919667,1516
0.4936333,1567
0.4953,1083
0.4969667,1364
0.4986333,1133
0.5003,1247
0.5019667,1164
0.5036333,929
0.5053,1063
0.5069667,1021
0.5086333,1033
0.5103,1057
0.5119666,1137
0.5136333,1202
0.5153,872
0.5169666,1186
0.5186333,1195
0.5203,1120
0.5219667,892
0.5236334,1186
0.5253,998
0.5269667,1082
0.5286334,1202
0.5303,1017
0.5319667,1082
0.5336334,1064
0.5353,1125
0.5369667,1186
0.5386333,1169
0.5403,1095
0.5419667,1202
0.5436333,1309
0.5453,1241
0.5469667,1169
0.5486333,1218
0.5503,1253
0.5519667,1320
0.5536333,1073
0.5553,884
0.5569667,1252
0.5586333,982
0.5603,1036
0.5619667,1186
0.5636333,1219
0.5653,1049
0.5669667,1008
0.5686333,1168
0.5703,806
0.5719666,1045
0.5736333,968
0.5753,872
0.5769666,775
0.5786333,800
0.5803,825
0.5819666,1000
0.5836333,958
0.5853,915
0.5869667,979
0.5886334,1042
0.5903,1144
0.5919667,1110
0.5936334,962
0.5953,783
0.5969667,1150
0.5986333,1020
0.6003,1168
0.6019667,1009
0.6036333,815
0.6053,1031
0.6069667,990
0.6086333,1112
0.6103,988
0.6119667,1146
0.6136333,1023
0.6153,985
0.6169667,984
0.6186333,989
0.6203,994
0.6219667,1005
0.6236333,1235
0.6253,1191
0.6269667,1146
0.6286333,941
0.6303,1015
0.6319667,1010
0.6336333,959
0.6353,909
0.6369666,869
0.6386333,830
0.6403,912
0.6419666,995
0.6436333,1043
0.6453,1070
0.6469667,878
0.6486334,1081
0.6503,1025
0.6519667,1216
0.6536334,1292
0.6553,865
0.6569667,893
0.6586334,1027
0.6603,810
0.6619667,1051
0.6636333,944
0.6653,1076
0.6669667,1006
0.6686333,1081
0.6703,891
0.6719667,1054
0.6736333,801
0.6753,959
0.6769667,1026
0.6786333,834
0.6803,856
0.6819667,1141
0.6836333,1099
0.6853,1144
0.6869667,1268
0.6886333,1234
0.6903,1518
0.6919667,1749
0.6936333,1612
0.6953,1633
0.6969666,1872
0.6986333,1995
0.7003,2234
0.7019666,2544
0.7036333,2447
0.7053,2722
0.7069666,2542
0.7086333,2761
0.7103,2812
0.7119667,2889
0.7136334,2966
0.7153,3078
0.7169667,3040
0.7186334,3003
0.7203,3058
0.7219667,3093
0.7236333,3252
0.7253,2675
0.7269667,2504
0.7286333,2418
0.7303,1908
0.7319667,2024
0.7336333,1913
0.7353,1905
0.7369667,1518
0.7386333,1742
0.7403,1451
0.7419667,1281
0.7436333,1248
0.7453,1308
0.7469667,1086
0.7486333,1076
0.7503,1080
0.7519667,1078
0.7536333,1075
0.7553,1037
0.7569667,1000
0.7586333,1022
0.7603,1150
0.7619666,824
0.7636333,1098
0.7653,818
0.7669666,922
0.7686333,855
0.7703,753
0.7719667,1093
0.7736334,994
0.7753,1159
0.7769667,1053
0.7786334,1052
0.7803,1354
0.7819667,1299
0.7836334,1285
0.7853,1437
0.7869667,1424
0.7886333,1483
0.7903,2142
0.7919667,2241
0.7936333,2479
0.7953,2324
0.7969667,2919
0.7986333,3111
0.8003,3308
0.8019667,4053
0.8036333,4037
0.8053,4268
0.8069667,4758
0.8086333,5585
0.8103,5241
0.8119667,5942
0.8136333,5609
0.8153,6398
0.8169667,6198
0.8186333,6406
0.8203,6365
0.8219666,6349
0.8236333,6333
0.8253,6489
0.8269666,6560
0.8286333,5871
0.8303,5525
0.8319666,5758
0.8336333,4571
0.8353,4307
0.8369667,3741
0.8386334,3526
0.8403,2896
0.8419667,3238
0.8436334,2672
0.8453,2072
0.8469667,2294
0.8486333,2016
0.8503,1992
0.8519667,1619
0.8536333,1703
0.8553,1407
0.8569667,1560
0.8586333,1318
0.8603,1182
0.8619667,1501
0.8636333,1575
0.8653,1638
0.8669667,1861
0.8686333,2022
0.8703,1843
0.8719667,1754
0.8736333,1566
0.8753,1756
0.8769667,1750
0.8786333,1745
0.8803,1911
0.8819667,1832
0.8836333,1752
0.8853,2002
0.8869666,1457
0.8886333,1741
0.8903,1763
0.8919666,1678
0.8936333,1709
0.8953,1768
0.8969667,1828
0.8986334,1422
0.9003,1751
0.9019667,1562
0.9036334,1552
0.9053,1636
0.9069667,1627
0.9086334,1455
0.9103,1246
0.9119667,1718
0.9136333,1475
0.9153,1555
0.9169667,1635
0.9186333,1375
0.9203,1655
0.9219667,1498
0.9236333,1369
0.9253,1463
0.9269667,1455
0.9286333,1472
0.9303,1477
0.9319667,1482
0.9336333,1529
0.9353,1373
0.9369667,1480
0.9386333,1482
0.9403,1312
0.9419667,1345
0.9436333,996
0.9453,1445
0.9469666,1421
0.9486333,1263
0.9503,1320
0.9519666,1348
0.9536333,1268
0.9553,1341
0.9569666,1354
0.9586333,1367
0.9603,1419
0.9619667,1281
0.9636334,1204
0.9653,1638
0.9669667,1622
0.9686334,1709
0.9703,1674
0.9719667,1731
0.9736333,1788
0.9753,1984
0.9769667,2362
0.9786333,2723
0.9803,3153
0.9819667,3020
0.9836333,3373
0.9853,3633
0.9869667,4004
0.9886333,4227
0.9903,4092
0.9919667,5171
0.9936333,5337
0.9953,5240
0.9969667,5581
0.9986333,5641
1.0003,5897
1.001967,6581
1.003633,6888
1.0053,6753
1.006967,6176
1.008633,6770
1.0103,7201
1.011967,7087
1.013633,6650
1.0153,6575
1.016967,6688
1.018633,6133
1.0203,5838
1.021967,5552
1.023633,5570
1.0253,5173
1.026967,4579
1.028633,4365
1.0303,4050
1.031967,3594
1.033633,3026
1.0353,3032
1.036967,2567
1.038633,2848
1.0403,2561
1.041967,2454
1.043633,2044
1.0453,2107
1.046967,2152
1.048633,2150
1.0503,1907
1.051967,1807
1.053633,1453
1.0553,1650
1.056967,1641
1.058633,1617
1.0603,1592
1.061967,1582
1.063633,1572
1.0653,1563
1.066967,1548
1.068633,1878
1.0703,1892
1.071967,1344
1.073633,1803
1.0753,1933
1.076967,1833
1.078633,1992
1.0803,2103
1.081967,2099
1.083633,2095
1.0853,2183
1.086967,2380
1.088633,2374
1.0903,2369
1.091967,2108
1.093633,2263
1.0953,2782
1.096967,2908
1.098633,2439
1.1003,2512
1.101967,2550
1.10365,2554
1.1053,2684
1.106967,3045
1.108633,3128
1.1103,2859
1.111967,2568
1.113633,2813
1.1153,2571
1.116967,2709
1.118633,1990
1.120317,2549
1.121967,2121
1.123633,2435
1.1253,2359
1.126967,2163
1.128633,2157
1.1303,2197
1.131983,1561
1.133633,1646
1.1353,1780
1.136967,1527
1.13865,1439
1.1403,1639
1.141967,1450
1.143633,1554
1.1453,1345
1.146967,1237
1.148633,1325
1.1503,1044
1.151967,1234
1.153633,1375
1.155317,1261
1.156967,1185
1.158633,1006
1.1603,993
1.161967,979
1.16365,1032
1.1653,1086
1.166967,1172
1.168633,1132
1.1703,1002
1.171983,926
1.17365,1019
1.1753,989
1.176983,959
1.178633,1007
1.180317,1056
1.181967,1067
1.18365,994
1.1853,921
1.186967,819
1.18865,846
1.190317,922
1.191983,999
1.193633,1038
1.1953,1020
1.196983,1093
1.19865,1178
