"SampleName","A2Rd2_01-36"
"Target Mass 1",
"Column Name","IA-3 (3um, 4.6X100)"
"Channel","QDa 1: SIR Ch2"
0.00195,704
0.003616667,516
0.005283333,670
0.00695,684
0.008616666,831
0.01028333,793
0.01195,965
0.01361667,940
0.01528333,732
0.01695,967
0.01861667,960
0.02028333,828
0.02195,832
0.02361667,657
0.02528333,887
0.02695,644
0.02861667,742
0.03028333,841
0.03195,780
0.03361667,719
0.03528333,804
0.03695,767
0.03861667,791
0.04028333,815
0.04195,1035
0.04361667,1277
0.04528333,1105
0.04695,782
0.04861667,785
0.05028334,922
0.05195,740
0.05361667,791
0.05528333,971
0.05695,890
0.05861667,808
0.06028333,784
0.06195,925
0.06361666,751
0.06528334,848
0.06695,793
0.06861667,895
0.07028333,684
0.07195,861
0.07361667,953
0.07528333,881
0.07695,793
0.07861666,665
0.08028334,822
0.08195,843
0.08361667,848
0.08528333,838
0.08695,722
0.08861667,679
0.09028333,734
0.09195,729
0.09361666,723
0.09528334,719
0.09695,796
0.09861667,781
0.1002833,840
0.10195,898
0.1036167,795
0.1052833,692
0.10695,631
0.1086167,763
0.1102833,731
0.11195,699
0.1136167,766
0.1152833,759
0.11695,751
0.1186167,665
0.1202833,855
0.12195,882
0.1236167,805
0.1252833,880
0.12695,858
0.1286167,836
0.1302833,859
0.13195,911
0.1336167,902
0.1352833,816
0.13695,935
0.1386167,895
0.1402833,660
0.14195,791
0.1436167,831
0.1452833,720
0.14695,685
0.1486167,650
0.1502833,830
0.15195,927
0.1536167,911
0.1552833,922
0.15695,877
0.1586167,957
0.1602833,937
0.16195,847
0.1636167,1002
0.1652833,835
0.16695,1057
0.1686167,887
0.1702833,890
0.17195,892
0.1736167,624
0.1752833,764
0.17695,875
0.1786167,588
0.1802833,784
0.18195,956
0.1836167,758
0.1852833,778
0.18695,822
0.1886167,858
0.1902833,877
0.19195,730
0.1936333,844
0.1952833,770
0.19695,696
0.1986167,811
0.2002833,980
0.20195,1053
0.2036167,957
0.2052833,873
0.20695,879
0.2086167,901
0.2103,822
0.21195,747
0.2136167,908
0.2152833,752
0.21695,922
0.2186167,832
0.2202833,743
0.22195,994
0.2236167,871
0.2252833,749
0.2269667,952
0.2286333,1163
0.2302833,1227
0.23195,1118
0.2336167,991
0.2352833,1299
0.23695,984
0.2386167,1109
0.2402833,1206
0.24195,1441
0.2436167,1301
0.2453,1050
0.24695,1149
0.2486167,1166
0.2502833,1170
0.25195,1206
0.2536333,1296
0.2552833,837
0.25695,959
0.2586167,1295
0.2602833,1050
0.26195,1168
0.2636333,1074
0.2652833,1186
0.26695,990
0.2686167,966
0.2703,1241
0.2719667,931
0.2736167,1083
0.2752833,1094
0.2769667,1125
0.2786333,1010
0.2803,924
0.28195,1101
0.2836167,969
0.2852833,810
0.2869667,1158
0.2886167,927
0.2903,785
0.29195,1005
0.2936167,934
0.2953,862
0.29695,1046
0.2986333,1142
0.3003,1020
0.30195,1000
0.3036333,1037
0.3053,1053
0.3069667,1068
0.3086167,1050
0.3103,1033
0.3119667,1067
0.3136333,1144
0.3153,1231
0.3169667,1235
0.3186333,1070
0.3203,1018
0.3219667,1220
0.3236333,1152
0.3252833,1070
0.3269667,1169
0.3286333,1248
0.3303,1184
0.3319667,1203
0.3336333,1222
0.3353,1338
0.3369667,1031
0.3386333,1228
0.3403,1334
0.3419667,1444
0.3436333,1383
0.3453,1287
0.3469667,1483
0.3486333,1414
0.3503,1313
0.3519667,1348
0.3536333,1402
0.3553,1238
0.3569667,1397
0.3586333,1391
0.3603,1585
0.3619667,1591
0.3636333,1547
0.3653,2707
0.3669667,4114
0.3686333,4962
0.3703,5770
0.3719667,5538
0.3736333,5527
0.3753,5531
0.3769667,4415
0.3786333,3284
0.3803,2775
0.3819667,2137
0.3836333,1636
0.3853,1677
0.3869667,1547
0.3886333,1167
0.3903,1016
0.3919667,801
0.3936333,708
0.3953,602
0.3969667,678
0.3986333,739
0.4003,658
0.4019667,721
0.4036333,642
0.4053,708
0.4069667,673
0.4086333,639
0.4103,688
0.4119667,730
0.4136333,771
0.4153,694
0.4169667,617
0.4186333,735
0.4203,792
0.4219667,913
0.4236333,796
0.4253,784
0.4269667,891
0.4286333,756
0.4303,875
0.4319667,996
0.4336333,1054
0.4353,1024
0.4369667,972
0.4386333,1028
0.4403,1113
0.4419667,1321
0.4436333,1226
0.4453,1218
0.4469667,1308
0.4486333,1188
0.4503,958
0.4519667,1352
0.4536333,1459
0.4553,1178
0.4569667,1261
0.4586333,1316
0.4603,1262
0.4619667,1208
0.4636333,1293
0.4653,1369
0.4669667,1359
0.4686333,1254
0.4703,1397
0.4719667,1347
0.4736333,1298
0.4753,1191
0.4769667,1084
0.4786333,1122
0.4803,1160
0.4819667,1515
0.4836333,1444
0.4853,1329
0.4869667,1177
0.4886333,1318
0.4903,1081
0.4919667,1054
0.4936333,1397
0.4953,1127
0.4969667,1139
0.4986333,1204
0.5003,885
0.5019667,1032
0.5036333,1003
0.5053,998
0.5069667,994
0.5086333,795
0.5103,991
0.5119666,935
0.5136333,1044
0.5153,1002
0.5169666,979
0.5186333,859
0.5203,1069
0.5219667,890
0.5236334,1034
0.5253,943
0.5269667,849
0.5286334,984
0.5303,1045
0.5319667,859
0.5336334,989
0.5353,920
0.5369667,941
0.5386333,955
0.5403,969
0.5419667,917
0.5436333,937
0.5453,977
0.5469667,853
0.5486333,1014
0.5503,917
0.5519667,844
0.5536333,855
0.5553,897
0.5569667,749
0.5586333,917
0.5603,744
0.5619667,985
0.5636333,901
0.5653,895
0.5669667,763
0.5686333,974
0.5703,918
0.5719666,928
0.5736333,874
0.5753,908
0.5769666,873
0.5786333,838
0.5803,820
0.5819666,842
0.5836333,760
0.5853,820
0.5869667,880
0.5886334,876
0.5903,1080
0.5919667,1025
0.5936334,971
0.5953,983
0.5969667,1008
0.5986333,985
0.6003,963
0.6019667,945
0.6036333,1021
0.6053,976
0.6069667,930
0.6086333,926
0.6103,940
0.6119667,1033
0.6136333,1007
0.6153,998
0.6169667,988
0.6186333,932
0.6203,955
0.6219667,880
0.6236333,918
0.6253,936
0.6269667,954
0.6286333,853
0.6303,878
0.6319667,890
0.6336333,801
0.6353,771
0.6369666,741
0.6386333,882
0.6403,873
0.6419666,856
0.6436333,838
0.6453,820
0.6469667,907
0.6486334,926
0.6503,944
0.6519667,901
0.6536334,858
0.6553,889
0.6569667,897
0.6586334,681
0.6603,939
0.6619667,1053
0.6636333,1012
0.6653,855
0.6669667,773
0.6686333,978
0.6703,718
0.6719667,1060
0.6736333,804
0.6753,846
0.6769667,724
0.6786333,709
0.6803,695
0.6819667,633
0.6836333,680
0.6853,792
0.6869667,845
0.6886333,772
0.6903,699
0.6919667,707
0.6936333,771
0.6953,836
0.6969666,850
0.6986333,806
0.7003,763
0.7019666,862
0.7036333,914
0.7053,621
0.7069666,1063
0.7086333,794
0.7103,777
0.7119667,739
0.7136334,827
0.7153,702
0.7169667,749
0.7186334,797
0.7203,791
0.7219667,785
0.7236333,769
0.7253,753
0.7269667,742
0.7286333,731
0.7303,855
0.7319667,784
0.7336333,712
0.7353,739
0.7369667,742
0.7386333,905
0.7403,889
0.7419667,741
0.7436333,910
0.7453,739
0.7469667,852
0.7486333,667
0.7503,830
0.7519667,849
0.7536333,760
0.7553,806
0.7569667,688
0.7586333,720
0.7603,753
0.7619666,732
0.7636333,711
0.7653,735
0.7669666,758
0.7686333,860
0.7703,846
0.7719667,851
0.7736334,856
0.7753,847
0.7769667,837
0.7786334,924
0.7803,920
0.7819667,866
0.7836334,809
0.7853,673
0.7869667,827
0.7886333,876
0.7903,918
0.7919667,787
0.7936333,919
0.7953,805
0.7969667,843
0.7986333,616
0.8003,987
0.8019667,892
0.8036333,946
0.8053,787
0.8069667,831
0.8086333,930
0.8103,768
0.8119667,979
0.8136333,854
0.8153,807
0.8169667,889
0.8186333,930
0.8203,971
0.8219666,972
0.8236333,903
0.8253,946
0.8269666,684
0.8286333,1020
0.8303,982
0.8319666,891
0.8336333,974
0.8353,857
0.8369667,892
0.8386334,789
0.8403,843
0.8419667,653
0.8436334,837
0.8453,828
0.8469667,830
0.8486333,839
0.8503,762
0.8519667,695
0.8536333,764
0.8553,609
0.8569667,902
0.8586333,925
0.8603,892
0.8619667,783
0.8636333,821
0.8653,767
0.8669667,774
0.8686333,793
0.8703,656
0.8719667,809
0.8736333,826
0.8753,819
0.8769667,821
0.8786333,824
0.8803,737
0.8819667,782
0.8836333,855
0.8853,1060
0.8869666,1108
0.8886333,1276
0.8903,1180
0.8919666,1225
0.8936333,1275
0.8953,1161
0.8969667,1046
0.8986334,1045
0.9003,1116
0.9019667,1047
0.9036334,1100
0.9053,1075
0.9069667,1050
0.9086334,1102
0.9103,1108
0.9119667,942
0.9136333,1120
0.9153,1072
0.9169667,1236
0.9186333,1113
0.9203,1242
0.9219667,1185
0.9236333,1181
0.9253,1178
0.9269667,1149
0.9286333,1120
0.9303,1239
0.9319667,1212
0.9336333,1185
0.9353,977
0.9369667,1191
0.9386333,1014
0.9403,1089
0.9419667,1026
0.9436333,1162
0.9453,1122
0.9469666,1078
0.9486333,1075
0.9503,1103
0.9519666,1105
0.9536333,1106
0.9553,1055
0.9569666,1052
0.9586333,945
0.9603,909
0.9619667,937
0.9636334,932
0.9653,928
0.9669667,862
0.9686334,829
0.9703,802
0.9719667,894
0.9736333,918
0.9753,878
0.9769667,980
0.9786333,761
0.9803,761
0.9819667,807
0.9836333,826
0.9853,812
0.9869667,797
0.9886333,726
0.9903,786
0.9919667,767
0.9936333,771
0.9953,726
0.9969667,903
0.9986333,814
1.0003,725
1.001967,794
1.003633,863
1.0053,787
1.006967,766
1.008633,702
1.0103,909
1.011967,950
1.013633,927
1.0153,948
1.016967,838
1.018633,923
1.0203,818
1.021967,960
1.023633,1006
1.0253,782
1.026967,889
1.028633,877
1.0303,800
1.031967,906
1.033633,870
1.0353,1136
1.036967,1054
1.038633,962
1.0403,932
1.041967,891
1.043633,984
1.0453,710
1.046967,833
1.048633,994
1.0503,892
1.051967,840
1.053633,770
1.0553,816
1.056967,842
1.058633,869
1.0603,862
1.061967,951
1.063633,952
1.0653,709
1.066967,873
1.068633,852
1.0703,831
1.071967,855
1.073633,839
1.0753,824
1.076967,715
1.078633,941
1.0803,1039
1.081967,660
1.083633,754
1.0853,788
1.086967,773
1.088633,755
1.0903,721
1.091967,688
1.093633,1017
1.0953,978
1.096967,1063
1.098633,1068
1.1003,851
1.101967,1005
1.103633,749
1.1053,904
1.106967,1092
1.108633,884
1.1103,873
1.111967,913
1.113633,889
1.1153,836
1.116967,964
1.118633,767
1.1203,680
1.121967,949
1.123633,805
1.1253,801
1.126967,964
1.128633,901
1.1303,898
1.131967,767
1.133633,986
1.1353,700
1.136967,873
1.138633,935
1.1403,727
1.141967,996
1.143633,804
1.1453,868
1.146967,756
1.148633,914
1.1503,891
1.151967,809
1.153633,803
1.1553,966
1.156967,680
1.158633,731
1.1603,873
1.161967,868
1.163633,927
1.1653,715
1.166967,913
1.168633,678
1.1703,702
1.171967,918
1.173633,623
1.1753,766
1.176967,939
1.178633,823
1.1803,722
1.181967,911
1.183633,960
1.1853,758
1.186967,722
1.188633,1001
1.1903,858
1.191967,822
1.193633,918
1.1953,809
1.196967,710
1.198633,804
