"SampleName","A2Rd2_01-81"
"Target Mass 1",
"Column Name","IA-3 (3um, 4.6X100)"
"Channel","QDa 1: SIR Ch2"
0.00195,521
0.003616667,707
0.005283333,666
0.00695,634
0.008616666,721
0.01028333,735
0.01195,749
0.01361667,906
0.01528333,865
0.01695,975
0.01861667,712
0.02028333,939
0.02195,792
0.02361667,802
0.02528333,813
0.02695,971
0.02861667,1075
0.03028333,1055
0.03195,870
0.03361667,967
0.03528333,1064
0.03695,764
0.03861667,973
0.04028333,893
0.04195,1028
0.04361667,1027
0.04528333,808
0.04695,755
0.04861667,879
0.05028334,878
0.05195,747
0.05361667,851
0.05528333,994
0.05695,943
0.05861667,920
0.06028333,930
0.06195,687
0.06361666,874
0.06528334,904
0.06695,795
0.06861667,867
0.07028333,872
0.07195,843
0.07361667,908
0.07528333,890
0.07695,872
0.07861666,715
0.08028334,981
0.08195,800
0.08361667,789
0.08528333,966
0.08695,1029
0.08861667,946
0.09028333,707
0.09195,827
0.09361666,1008
0.09528334,840
0.09695,800
0.09861667,824
0.1002833,847
0.10195,676
0.1036167,709
0.1052833,846
0.10695,791
0.1086167,847
0.1102833,700
0.11195,762
0.1136167,644
0.1152833,670
0.11695,697
0.1186167,905
0.1202833,857
0.12195,976
0.1236167,748
0.1252833,790
0.12695,913
0.1286167,886
0.1302833,734
0.13195,864
0.1336167,654
0.1352833,930
0.13695,714
0.1386167,890
0.1402833,762
0.14195,828
0.1436167,856
0.1452833,728
0.14695,924
0.1486167,732
0.1502833,842
0.15195,957
0.1536167,916
0.1552833,777
0.15695,927
0.1586167,995
0.1602833,772
0.16195,952
0.1636167,735
0.1652833,827
0.16695,881
0.1686167,837
0.1702833,794
0.17195,718
0.1736167,731
0.1752833,684
0.17695,757
0.1786167,771
0.1802833,743
0.18195,716
0.1836167,697
0.1852833,678
0.18695,731
0.1886167,719
0.1902833,708
0.19195,759
0.1936167,729
0.1952833,700
0.19695,719
0.1986167,738
0.2002833,815
0.20195,893
0.2036167,945
0.2052833,931
0.20695,893
0.2086167,854
0.2103,810
0.21195,765
0.2136167,911
0.2152833,928
0.21695,946
0.2186167,846
0.2202833,897
0.22195,941
0.2236167,986
0.2252833,1026
0.22695,986
0.2286167,1019
0.2302833,1053
0.23195,1031
0.2336167,1010
0.2352833,1249
0.23695,1211
0.2386167,1182
0.2402833,1012
0.24195,1252
0.2436167,1089
0.2452833,1174
0.24695,1068
0.2486167,894
0.2502833,1147
0.25195,1085
0.2536167,1052
0.2552833,968
0.25695,1010
0.2586167,951
0.2602833,892
0.26195,1047
0.2636333,1203
0.2652833,709
0.26695,1062
0.2686333,1200
0.2702833,1128
0.27195,1022
0.2736167,934
0.2752833,1063
0.27695,916
0.2786167,1079
0.2803,1115
0.28195,1018
0.2836167,1044
0.2852833,1097
0.28695,946
0.2886167,897
0.2902833,1049
0.29195,658
0.2936333,1107
0.2952833,934
0.29695,974
0.2986333,984
0.3002833,995
0.30195,1032
0.3036167,1007
0.3052833,982
0.30695,1063
0.3086167,1045
0.3102833,1027
0.31195,1042
0.3136167,1056
0.3153,1182
0.31695,1078
0.3186333,975
0.3202833,1509
0.32195,1379
0.3236167,1369
0.3252833,1151
0.32695,1210
0.3286167,1352
0.3302833,1227
0.3319667,1210
0.3336333,1155
0.3352833,1187
0.3369667,1218
0.3386167,1239
0.3402833,1207
0.34195,1174
0.3436333,1008
0.3452833,1065
0.3469667,1121
0.3486333,1219
0.3503,1330
0.35195,1285
0.3536333,1489
0.3552833,1417
0.3569667,1432
0.3586167,1406
0.3603,1381
0.36195,1357
0.3636333,1303
0.3653,1800
0.3669667,2941
0.3686333,3672
0.3703,4348
0.3719667,3924
0.3736333,4186
0.3753,4459
0.3769667,4381
0.3786333,3643
0.3803,3663
0.3819667,3055
0.3836333,2459
0.3853,2160
0.3869667,1712
0.3886333,1579
0.3903,1214
0.3919667,955
0.3936333,767
0.3953,573
0.3969667,720
0.3986333,568
0.4003,533
0.4019667,557
0.4036333,565
0.4053,568
0.4069667,532
0.4086333,586
0.4103,640
0.4119667,671
0.4136333,598
0.4153,617
0.4169667,637
0.4186333,772
0.4203,656
0.4219667,539
0.4236333,727
0.4253,788
0.4269667,615
0.4286333,511
0.4303,848
0.4319667,766
0.4336333,943
0.4353,888
0.4369667,833
0.4386333,1086
0.4403,1057
0.4419667,935
0.4436333,1016
0.4453,1001
0.4469667,1046
0.4486333,1100
0.4503,1107
0.4519667,1109
0.4536333,1183
0.4553,1198
0.4569667,1213
0.4586333,1486
0.4603,1455
0.4619667,1530
0.4636333,1375
0.4653,1498
0.4669667,1452
0.4686333,1406
0.4703,1459
0.4719667,1512
0.4736333,1463
0.4753,1413
0.4769667,1373
0.4786333,1500
0.4803,1486
0.4819667,1418
0.4836333,1256
0.4853,1192
0.4869667,1350
0.4886333,1015
0.4903,1178
0.4919667,1194
0.4936333,1083
0.4953,945
0.4969667,860
0.4986333,1104
0.5003,1107
0.5019667,967
0.5036333,1128
0.5053,1001
0.5069667,925
0.5086333,931
0.5103,919
0.5119666,966
0.5136333,801
0.5153,740
0.5169666,1011
0.5186333,911
0.5203,1055
0.5219667,1016
0.5236334,757
0.5253,1093
0.5269667,936
0.5286334,1061
0.5303,1116
0.5319667,1119
0.5336334,1007
0.5353,998
0.5369667,1083
0.5386333,900
0.5403,1167
0.5419667,1122
0.5436333,1086
0.5453,1110
0.5469667,1107
0.5486333,1014
0.5503,830
0.5519667,1096
0.5536333,1056
0.5553,991
0.5569667,1055
0.5586333,1060
0.5603,893
0.5619667,951
0.5636333,943
0.5653,1023
0.5669667,737
0.5686333,818
0.5703,812
0.5719666,1010
0.5736333,943
0.5753,1014
0.5769666,904
0.5786333,1031
0.5803,1070
0.5819666,1062
0.5836333,957
0.5853,956
0.5869667,984
0.5886334,933
0.5903,1027
0.5919667,883
0.5936334,838
0.5953,978
0.5969667,801
0.5986333,936
0.6003,1018
0.6019667,901
0.6036333,780
0.6053,875
0.6069667,845
0.6086333,900
0.6103,914
0.6119667,929
0.6136333,892
0.6153,855
0.6169667,941
0.6186333,873
0.6203,804
0.6219667,881
0.6236333,866
0.6253,990
0.6269667,1119
0.6286333,1118
0.6303,1114
0.6319667,1149
0.6336333,1184
0.6353,738
0.6369666,1180
0.6386333,1256
0.6403,1165
0.6419666,922
0.6436333,1098
0.6453,1062
0.6469667,1107
0.6486334,1152
0.6503,885
0.6519667,977
0.6536334,1069
0.6553,929
0.6569667,1011
0.6586334,1071
0.6603,991
0.6619667,961
0.6636333,930
0.6653,1024
0.6669667,1043
0.6686333,953
0.6703,899
0.6719667,924
0.6736333,1040
0.6753,1330
0.6769667,1593
0.6786333,1742
0.6803,2088
0.6819667,2559
0.6836333,2948
0.6853,3456
0.6869667,4706
0.6886333,4717
0.6903,6027
0.6919667,7217
0.6936333,8856
0.6953,9780
0.6969666,10268
0.6986333,11048
0.7003,12520
0.7019666,12800
0.7036333,13696
0.7053,13788
0.7069666,15000
0.7086333,15860
0.7103,15980
0.7119667,16268
0.7136334,15968
0.7153,16248
0.7169667,15772
0.7186334,14924
0.7203,14568
0.7219667,12684
0.7236333,12568
0.7253,11192
0.7269667,11064
0.7286333,9160
0.7303,7690
0.7319667,6686
0.7336333,6403
0.7353,4866
0.7369667,4110
0.7386333,3913
0.7403,3271
0.7419667,3290
0.7436333,2718
0.7453,2375
0.7469667,2134
0.7486333,2187
0.7503,1866
0.7519667,1837
0.7536333,1515
0.7553,1427
0.7569667,1482
0.7586333,1469
0.7603,1307
0.7619666,1323
0.7636333,1403
0.7653,1372
0.7669666,1268
0.7686333,1113
0.7703,1254
0.7719667,1131
0.7736334,1281
0.7753,1195
0.7769667,1456
0.7786334,1600
0.7803,2263
0.7819667,2101
0.7836334,2674
0.7853,3476
0.7869667,4317
0.7886333,5975
0.7903,6786
0.7919667,7595
0.7936333,9396
0.7953,11832
0.7969667,13628
0.7986333,14788
0.8003,15908
0.8019667,18544
0.8036333,18724
0.8053,20108
0.8069667,21676
0.8086333,22788
0.8103,24396
0.8119667,24164
0.8136333,25148
0.8153,24712
0.8169667,27032
0.8186333,27164
0.8203,25168
0.8219666,25836
0.8236333,26088
0.8253,24188
0.8269666,23760
0.8286333,23096
0.8303,20792
0.8319666,19656
0.8336333,18780
0.8353,16044
0.8369667,14152
0.8386334,12404
0.8403,10824
0.8419667,9400
0.8436334,8560
0.8453,7159
0.8469667,5997
0.8486333,5338
0.8503,4824
0.8519667,4334
0.8536333,3640
0.8553,3439
0.8569667,3242
0.8586333,2825
0.8603,2823
0.8619667,2662
0.8636333,2357
0.8653,2371
0.8669667,1735
0.8686333,2120
0.8703,1795
0.8719667,2054
0.8736333,1555
0.8753,1456
0.8769667,1735
0.8786333,1647
0.8803,1360
0.8819667,1994
0.8836333,1842
0.8853,1841
0.8869666,1815
0.8886333,1813
0.8903,1794
0.8919666,1775
0.8936333,1734
0.8953,1693
0.8969667,1607
0.8986334,1493
0.9003,1461
0.9019667,1598
0.9036334,1282
0.9053,1407
0.9069667,1659
0.9086334,1516
0.9103,1465
0.9119667,1393
0.9136333,1302
0.9153,1349
0.9169667,1396
0.9186333,1392
0.9203,1389
0.9219667,1420
0.9236333,1313
0.9253,1523
0.9269667,1471
0.9286333,1399
0.9303,1372
0.9319667,1514
0.9336333,1285
0.9353,1363
0.9369667,1301
0.9386333,1364
0.9403,1427
0.9419667,1234
0.9436333,1380
0.9453,1514
0.9469666,1485
0.9486333,1414
0.9503,1436
0.9519666,1474
0.9536333,1512
0.9553,1516
0.9569666,1520
0.9586333,1875
0.9603,2285
0.9619667,2305
0.9636334,2657
0.9653,3220
0.9669667,3598
0.9686334,4208
0.9703,4748
0.9719667,5912
0.9736333,6499
0.9753,7395
0.9769667,8284
0.9786333,9704
0.9803,11520
0.9819667,12760
0.9836333,14184
0.9853,15860
0.9869667,17180
0.9886333,18040
0.9903,19716
0.9919667,20136
0.9936333,21972
0.9953,22636
0.9969667,23032
0.9986333,24856
1.0003,24936
1.001967,25216
1.003633,25748
1.0053,28388
1.006967,28224
1.008633,27932
1.0103,28216
1.011967,28092
1.013633,27968
1.0153,28676
1.016967,28196
1.018633,27716
1.0203,26384
1.021967,25000
1.023633,23824
1.0253,22788
1.026967,19444
1.028633,19636
1.0303,18380
1.031967,16360
1.033633,14144
1.0353,13720
1.036967,12548
1.038633,11340
1.0403,9240
1.041967,9124
1.043633,8936
1.0453,7761
1.046967,7683
1.048633,6941
1.0503,6365
1.051967,7123
1.053633,6274
1.0553,5936
1.056967,5844
1.058633,5862
1.0603,6129
1.061967,6796
1.063633,6758
1.0653,6511
1.066967,6902
1.068633,7422
1.0703,7829
1.071967,8464
1.073633,9096
1.0753,9280
1.076967,9684
1.078633,9792
1.0803,10956
1.081967,11348
1.083633,11568
1.0853,11688
1.086967,11832
1.088633,12324
1.0903,12500
1.091967,12384
1.093633,13156
1.0953,12968
1.096967,12780
1.098633,12540
1.1003,12912
1.101967,13284
1.103633,13068
1.1053,12704
1.106967,12584
1.108633,12704
1.1103,12828
1.111967,11720
1.113633,11536
1.1153,10644
1.116967,10580
1.118633,9676
1.1203,9388
1.121967,8820
1.123633,7620
1.1253,7606
1.126967,6461
1.128633,6805
1.1303,6037
1.131967,5686
1.133633,5580
1.1353,4370
1.136967,4867
1.138633,4066
1.1403,3630
1.141967,3592
1.143633,3550
1.1453,3480
1.146967,2998
1.148633,2790
1.1503,2665
1.151967,2538
1.153633,2426
1.1553,2282
1.156967,2178
1.158633,2081
1.1603,1929
1.161967,1988
1.163633,1935
1.1653,1800
1.166967,1689
1.168633,1728
1.1703,1781
1.171967,1544
1.173633,1715
1.1753,1403
1.176967,1554
1.178633,1315
1.1803,1588
1.181967,1577
1.183633,1640
1.1853,1624
1.186967,1487
1.188633,1408
1.1903,1389
1.191967,1369
1.193633,1416
1.1953,1462
1.196967,1506
1.198633,1550
