"SampleName","A2Rd2_01-58"
"Target Mass 1",
"Column Name","IA-3 (3um, 4.6X100)"
"Channel","QDa 1: SIR Ch2"
0.00195,513
0.003616667,837
0.005283333,691
0.00695,1013
0.008616666,881
0.01028333,904
0.01195,927
0.01361667,944
0.01528333,1057
0.01695,1071
0.01861667,862
0.02028333,853
0.02195,870
0.02361667,869
0.02528333,868
0.02695,1081
0.02861667,1111
0.03028333,887
0.03195,931
0.03361667,987
0.03528333,902
0.03695,1098
0.03861667,1173
0.04028333,1082
0.04195,990
0.04361667,924
0.04528333,900
0.04695,867
0.04861667,999
0.05028334,964
0.05195,1078
0.05361667,1032
0.05528333,963
0.05695,1080
0.05861667,1033
0.06028333,1106
0.06195,948
0.06361666,956
0.06528334,1157
0.06695,1053
0.06861667,1007
0.07028333,1088
0.07195,928
0.07361667,939
0.07528333,1024
0.07695,1017
0.07861666,1010
0.08028334,983
0.08195,1070
0.08361667,1046
0.08528333,1023
0.08695,974
0.08861667,937
0.09028333,901
0.09195,947
0.09361666,893
0.09528334,928
0.09695,963
0.09861667,1094
0.1002833,1057
0.10195,958
0.1036167,896
0.1052833,1036
0.10695,976
0.1086167,952
0.1102833,905
0.11195,1018
0.1136167,987
0.1152833,1015
0.11695,860
0.1186167,952
0.1202833,981
0.12195,878
0.1236167,1063
0.1252833,773
0.12695,989
0.1286167,1082
0.1302833,1012
0.13195,995
0.1336167,1049
0.1352833,972
0.13695,1036
0.1386167,782
0.1402833,1010
0.14195,866
0.1436167,816
0.1452833,947
0.14695,1061
0.1486167,1081
0.1502833,981
0.15195,993
0.1536167,914
0.1552833,812
0.15695,859
0.1586167,998
0.1602833,955
0.16195,826
0.1636167,860
0.1652833,912
0.16695,847
0.1686167,844
0.1702833,841
0.17195,852
0.1736167,835
0.1752833,908
0.17695,910
0.1786167,913
0.1802833,890
0.18195,868
0.1836167,962
0.1852833,1002
0.18695,972
0.1886167,998
0.1902833,982
0.19195,837
0.1936167,957
0.1952833,1023
0.19695,1078
0.1986167,1094
0.2002833,810
0.20195,1024
0.2036167,1105
0.2052833,1055
0.20695,994
0.2086167,1120
0.2102833,880
0.21195,785
0.2136167,1007
0.2152833,962
0.21695,916
0.2186167,1082
0.2202833,1040
0.22195,998
0.2236167,1026
0.2252833,1161
0.22695,1139
0.2286167,1232
0.2302833,1227
0.23195,1034
0.2336167,1169
0.2352833,1267
0.23695,1344
0.2386167,1343
0.2402833,1270
0.24195,1151
0.2436167,1160
0.2453,930
0.24695,1115
0.2486167,1117
0.2502833,1080
0.25195,1097
0.2536167,924
0.2552833,1270
0.25695,1276
0.2586167,1167
0.2602833,1236
0.26195,1201
0.2636167,1224
0.2652833,1107
0.26695,1365
0.2686167,1340
0.2702833,1259
0.27195,1282
0.2736167,1122
0.2752833,1155
0.27695,1164
0.2786167,989
0.2803,1221
0.28195,985
0.2836167,1063
0.2852833,1152
0.28695,994
0.2886167,1085
0.2902833,990
0.29195,1313
0.2936167,1239
0.2952833,1164
0.29695,1168
0.2986333,1172
0.3002833,1318
0.30195,1209
0.3036167,1099
0.3052833,1302
0.30695,1347
0.3086167,1500
0.3102833,1361
0.31195,1434
0.3136167,1441
0.3153,1345
0.31695,1462
0.3186167,1488
0.3202833,1193
0.32195,1507
0.3236167,1330
0.3252833,1275
0.32695,1301
0.3286167,1310
0.3302833,1318
0.33195,1228
0.3336333,1138
0.3352833,1300
0.33695,1294
0.3386167,1258
0.3402833,1313
0.34195,1329
0.3436167,1344
0.3452833,1330
0.34695,1240
0.3486167,1208
0.3503,1177
0.3519667,1220
0.3536333,1229
0.3553,1238
0.3569667,1174
0.3586333,1423
0.3602833,1396
0.36195,1369
0.3636167,2013
0.3652833,2836
0.36695,3533
0.3686333,4431
0.3703,4657
0.3719667,4722
0.3736167,4304
0.3753,4090
0.37695,3157
0.3786167,2494
0.3802833,2207
0.38195,1541
0.3836167,1214
0.3853,1083
0.38695,541
0.3886167,632
0.3902833,446
0.39195,642
0.3936333,557
0.3952833,493
0.39695,363
0.3986167,607
0.4002833,554
0.40195,464
0.4036333,374
0.4053,566
0.4069667,626
0.4086333,665
0.4103,888
0.41195,1009
0.4136167,994
0.4153,1028
0.41695,970
0.4186167,1021
0.4203,1089
0.4219667,830
0.4236333,1012
0.4253,985
0.4269667,1057
0.4286333,1027
0.4303,1050
0.4319667,906
0.4336333,1287
0.4353,1264
0.4369667,916
0.4386333,1437
0.4403,1469
0.4419667,1087
0.4436333,1103
0.4453,1392
0.4469667,1453
0.4486333,1534
0.4503,1533
0.4519667,1589
0.4536333,1613
0.4553,1601
0.4569667,1589
0.4586333,1571
0.4603,1577
0.4619667,1582
0.4636333,1667
0.4653,1339
0.4669667,1352
0.4686333,1806
0.4703,2006
0.4719667,1599
0.4736333,1778
0.4753,1486
0.4769667,1324
0.4786333,1533
0.4803,1464
0.4819667,1226
0.4836333,1529
0.4853,1176
0.4869667,1373
0.4886333,1270
0.4903,1284
0.4919667,1228
0.4936333,1212
0.4953,1195
0.4969667,1208
0.4986333,1191
0.5003,1174
0.5019667,1109
0.5036333,1210
0.5053,1187
0.5069667,1140
0.5086333,1201
0.5103,1111
0.5119666,1084
0.5136333,1057
0.5153,1137
0.5169666,1171
0.5186333,1027
0.5203,1113
0.5219667,915
0.5236334,1277
0.5253,1195
0.5269667,991
0.5286334,1140
0.5303,1142
0.5319667,1160
0.5336334,914
0.5353,1209
0.5369667,876
0.5386333,948
0.5403,1304
0.5419667,937
0.5436333,1163
0.5453,1242
0.5469667,1195
0.5486333,958
0.5503,1129
0.5519667,1215
0.5536333,999
0.5553,1111
0.5569667,1271
0.5586333,1062
0.5603,1226
0.5619667,1025
0.5636333,1189
0.5653,986
0.5669667,1115
0.5686333,1055
0.5703,969
0.5719666,1059
0.5736333,992
0.5753,871
0.5769666,862
0.5786333,871
0.5803,913
0.5819666,901
0.5836333,888
0.5853,872
0.5869667,856
0.5886334,937
0.5903,964
0.5919667,992
0.5936334,1080
0.5953,1160
0.5969667,1123
0.5986333,961
0.6003,963
0.6019667,948
0.6036333,1013
0.6053,1013
0.6069667,1012
0.6086333,894
0.6103,988
0.6119667,1135
0.6136333,1172
0.6153,1075
0.6169667,924
0.6186333,1155
0.6203,1086
0.6219667,1155
0.6236333,1016
0.6253,1073
0.6269667,1131
0.6286333,1089
0.6303,1328
0.6319667,1320
0.6336333,1144
0.6353,1359
0.6369666,1315
0.6386333,1230
0.6403,1264
0.6419666,1299
0.6436333,1137
0.6453,1091
0.6469667,967
0.6486334,1182
0.6503,1058
0.6519667,1143
0.6536334,1125
0.6553,1158
0.6569667,984
0.6586334,1061
0.6603,1152
0.6619667,1168
0.6636333,978
0.6653,1017
0.6669667,960
0.6686333,837
0.6703,900
0.6719667,940
0.6736333,980
0.6753,1046
0.6769667,1203
0.6786333,1190
0.6803,910
0.6819667,1346
0.6836333,1401
0.6853,1456
0.6869667,1639
0.6886333,1825
0.6903,2136
0.6919667,2387
0.6936333,2375
0.6953,2569
0.6969666,3215
0.6986333,3420
0.7003,3542
0.7019666,4136
0.7036333,4770
0.7053,4896
0.7069666,4897
0.7086333,5599
0.7103,5620
0.7119667,6061
0.7136334,5828
0.7153,5274
0.7169667,5788
0.7186334,5943
0.7203,5726
0.7219667,5338
0.7236333,5176
0.7253,5141
0.7269667,5012
0.7286333,3951
0.7303,3882
0.7319667,3508
0.7336333,3105
0.7353,2822
0.7369667,2509
0.7386333,2440
0.7403,1866
0.7419667,1672
0.7436333,1766
0.7453,1436
0.7469667,1296
0.7486333,1577
0.7503,1150
0.7519667,1256
0.7536333,1237
0.7553,1188
0.7569667,1139
0.7586333,1205
0.7603,1180
0.7619666,1156
0.7636333,1080
0.7653,1077
0.7669666,1041
0.7686333,1032
0.7703,1000
0.7719667,1023
0.7736334,1018
0.7753,1013
0.7769667,1090
0.7786334,1166
0.7803,1383
0.7819667,1478
0.7836334,1788
0.7853,2270
0.7869667,2227
0.7886333,2463
0.7903,3126
0.7919667,3554
0.7936333,3699
0.7953,4162
0.7969667,4642
0.7986333,5717
0.8003,6319
0.8019667,6728
0.8036333,7279
0.8053,8524
0.8069667,9004
0.8086333,9328
0.8103,10736
0.8119667,10256
0.8136333,11600
0.8153,12148
0.8169667,12552
0.8186333,12512
0.8203,12620
0.8219666,12552
0.8236333,12700
0.8253,12392
0.8269666,11512
0.8286333,10872
0.8303,9768
0.8319666,9096
0.8336333,7988
0.8353,7536
0.8369667,6502
0.8386334,5500
0.8403,5032
0.8419667,4895
0.8436334,3704
0.8453,3525
0.8469667,3170
0.8486333,2621
0.8503,2362
0.8519667,2467
0.8536333,2214
0.8553,1810
0.8569667,1954
0.8586333,1518
0.8603,1510
0.8619667,1651
0.8636333,1850
0.8653,2298
0.8669667,2203
0.8686333,2647
0.8703,2460
0.8719667,2923
0.8736333,2772
0.8753,2621
0.8769667,2477
0.8786333,2428
0.8803,2574
0.8819667,2540
0.8836333,2325
0.8853,2322
0.8869666,2385
0.8886333,2242
0.8903,2374
0.8919666,2230
0.8936333,2187
0.8953,1991
0.8969667,2264
0.8986334,2284
0.9003,2068
0.9019667,2271
0.9036334,1824
0.9053,1852
0.9069667,1958
0.9086334,2112
0.9103,2267
0.9119667,2319
0.9136333,2009
0.9153,2216
0.9169667,1897
0.9186333,2067
0.9203,2228
0.9219667,1900
0.9236333,1906
0.9253,1738
0.9269667,1806
0.9286333,1983
0.9303,1891
0.9319667,1800
0.9336333,2055
0.9353,2022
0.9369667,1650
0.9386333,1521
0.9403,1932
0.9419667,1678
0.9436333,1692
0.9453,1840
0.9469666,1567
0.9486333,1707
0.9503,1687
0.9519666,1576
0.9536333,1534
0.9553,1553
0.9569666,1572
0.9586333,1735
0.9603,1898
0.9619667,2132
0.9636334,2187
0.9653,2380
0.9669667,2548
0.9686334,2947
0.9703,3543
0.9719667,3675
0.9736333,4077
0.9753,5025
0.9769667,5255
0.9786333,5716
0.9803,6589
0.9819667,6691
0.9836333,8652
0.9853,9092
0.9869667,10016
0.9886333,10420
0.9903,10808
0.9919667,12440
0.9936333,12804
0.9953,12968
0.9969667,13400
0.9986333,14604
1.0003,14824
1.001967,16260
1.003633,16300
1.0053,16512
1.006967,16692
1.008633,16736
1.0103,16568
1.011967,16396
1.013633,17268
1.0153,14804
1.016967,15160
1.018633,13556
1.0203,13072
1.021967,12544
1.023633,11660
1.0253,11064
1.026967,9420
1.028633,8836
1.0303,7774
1.031967,7352
1.033633,5959
1.0353,5648
1.036967,5378
1.038633,5238
1.0403,4557
1.041967,4037
1.043633,3840
1.0453,3556
1.046967,3264
1.048633,2886
1.0503,2924
1.051967,2963
1.053633,2884
1.0553,2751
1.056967,2269
1.058633,2272
1.0603,2697
1.061967,2533
1.063633,2362
1.0653,2443
1.066967,2466
1.068633,2489
1.0703,2522
1.071967,2668
1.073633,2701
1.0753,2831
1.076967,2714
1.078633,2837
1.0803,3543
1.081967,3554
1.083633,3817
1.0853,3513
1.086967,3546
1.088633,3667
1.0903,3932
1.091967,4043
1.093633,4003
1.0953,4334
1.096967,4403
1.098633,3905
1.1003,4156
1.101967,4408
1.103633,5201
1.1053,4926
1.106967,4530
1.108633,5333
1.1103,5179
1.111967,4669
1.113633,4394
1.1153,4322
1.116967,4220
1.118633,4110
1.1203,3868
1.121967,3887
1.123633,4058
1.1253,3145
1.126967,3864
1.128633,3003
1.1303,3355
1.131967,2621
1.133633,2652
1.1353,2865
1.136967,2225
1.138633,2240
1.1403,2259
1.141967,2088
1.143633,2068
1.1453,1689
1.146967,1789
1.148633,1552
1.1503,1610
1.151967,1501
1.153633,1382
1.1553,1556
1.156967,1410
1.158633,1478
1.1603,1479
1.161967,1175
1.163633,1248
1.1653,1278
1.166967,1287
1.168633,1309
1.1703,1068
1.171967,1306
1.173633,1212
1.1753,1203
1.176967,978
1.178633,1153
1.1803,1051
1.181967,1087
1.183633,1242
1.1853,1179
1.186967,1016
1.188633,906
1.1903,1198
1.191967,1256
1.193633,1202
1.1953,1126
1.196967,1212
1.198633,1298
