"SampleName","A2Rd2_01-43"
"Target Mass 1",
"Column Name","IA-3 (3um, 4.6X100)"
"Channel","QDa 1: SIR Ch2"
0.00195,650
0.003616667,774
0.005283333,778
0.00695,778
0.008616666,778
0.01028333,911
0.01195,904
0.01361667,878
0.01528333,852
0.01695,844
0.01861667,873
0.02028333,894
0.02195,914
0.02361667,728
0.02528333,899
0.02695,718
0.02861667,906
0.03028333,1049
0.03195,900
0.03361667,753
0.03528333,951
0.03695,903
0.03861667,898
0.04028333,891
0.04195,883
0.04361667,933
0.04528333,897
0.04695,861
0.04861667,913
0.05028334,875
0.05195,945
0.05361667,977
0.05528333,987
0.05695,996
0.05861667,729
0.06028333,867
0.06195,1073
0.06361666,926
0.06528334,784
0.06695,867
0.06861667,895
0.07028333,894
0.07195,841
0.07361667,788
0.07528333,766
0.07695,744
0.07861666,748
0.08028334,849
0.08195,791
0.08361667,733
0.08528333,755
0.08695,811
0.08861667,794
0.09028333,777
0.09195,800
0.09361666,822
0.09528334,861
0.09695,1003
0.09861667,957
0.1002833,810
0.10195,1033
0.1036167,905
0.1052833,859
0.10695,699
0.1086167,847
0.1102833,812
0.11195,866
0.1136167,806
0.1152833,782
0.11695,758
0.1186167,766
0.1202833,774
0.12195,780
0.1236167,786
0.1252833,777
0.12695,769
0.1286167,791
0.1302833,814
0.13195,745
0.1336167,677
0.1352833,872
0.13695,870
0.1386167,867
0.1402833,820
0.14195,848
0.1436167,857
0.1452833,856
0.14695,801
0.1486167,822
0.1502833,679
0.15195,887
0.1536167,901
0.1552833,953
0.15695,821
0.1586167,833
0.1602833,845
0.16195,1037
0.1636167,1012
0.1652833,938
0.16695,934
0.1686167,877
0.1702833,815
0.17195,851
0.1736167,797
0.1752833,744
0.17695,744
0.1786167,707
0.1802833,687
0.18195,759
0.1836167,818
0.1852833,757
0.18695,696
0.1886167,693
0.1902833,689
0.19195,857
0.1936167,904
0.1952833,913
0.19695,722
0.1986167,939
0.2002833,785
0.20195,880
0.2036167,975
0.2052833,845
0.20695,832
0.2086167,913
0.2102833,860
0.21195,949
0.2136167,898
0.2152833,838
0.21695,895
0.2186167,952
0.2202833,735
0.22195,1078
0.2236167,1174
0.2252833,720
0.22695,1005
0.2286167,1090
0.2302833,1049
0.23195,1095
0.2336167,1101
0.2352833,1107
0.23695,1097
0.2386167,1087
0.2402833,872
0.24195,1147
0.2436167,1083
0.2452833,1032
0.24695,1144
0.2486167,1030
0.2502833,978
0.25195,997
0.2536167,947
0.2552833,1204
0.25695,1136
0.2586167,1069
0.2602833,1001
0.26195,1227
0.2636167,1166
0.2652833,1075
0.26695,1184
0.2686167,1128
0.2702833,1071
0.27195,1031
0.2736167,900
0.2752833,1044
0.27695,966
0.2786167,1087
0.2802833,1127
0.28195,1023
0.2836167,1045
0.2852833,1127
0.28695,990
0.2886167,1043
0.2902833,1096
0.29195,1019
0.2936167,941
0.2952833,793
0.29695,985
0.2986333,968
0.3002833,1234
0.30195,1269
0.3036167,1177
0.3052833,1168
0.30695,1274
0.3086167,1071
0.3102833,1113
0.31195,1199
0.3136167,1241
0.3153,1059
0.31695,1173
0.3186167,1220
0.3202833,1062
0.32195,1159
0.3236167,1256
0.3252833,1055
0.32695,1127
0.3286167,1132
0.3302833,1280
0.33195,1300
0.3336333,1411
0.3352833,1307
0.33695,1101
0.3386167,1283
0.3402833,1353
0.34195,1339
0.3436167,1384
0.3452833,1348
0.34695,1312
0.3486167,1342
0.3503,1363
0.35195,1537
0.3536333,1105
0.3552833,1424
0.3569667,1557
0.3586167,1634
0.3602833,1403
0.36195,1447
0.3636167,1729
0.3653,3372
0.3669667,4280
0.3686333,5112
0.3703,5402
0.3719667,5528
0.3736167,4653
0.3753,3766
0.37695,3564
0.3786167,2205
0.3802833,1495
0.38195,1208
0.3836167,1073
0.3853,735
0.3869667,782
0.3886333,494
0.3903,642
0.3919667,411
0.3936167,472
0.3953,566
0.39695,534
0.3986167,591
0.4002833,471
0.40195,714
0.4036333,635
0.4053,760
0.40695,1017
0.4086333,1162
0.4102833,973
0.4119667,1143
0.4136333,1175
0.4152833,1051
0.41695,1101
0.4186167,1045
0.4203,828
0.4219667,1158
0.4236333,1089
0.4253,790
0.4269667,1184
0.4286333,905
0.4303,966
0.4319667,1136
0.4336333,1103
0.4353,1070
0.4369667,1285
0.4386333,1366
0.4403,1500
0.4419667,1193
0.4436333,1562
0.4453,1597
0.4469667,1597
0.4486333,1574
0.4503,1551
0.4519667,1874
0.4536333,1823
0.4553,1896
0.4569667,2128
0.4586333,2131
0.4603,2096
0.4619667,2087
0.4636333,2078
0.4653,2107
0.4669667,2131
0.4686333,2155
0.4703,2023
0.4719667,1891
0.4736333,1764
0.4753,1960
0.4769667,1935
0.4786333,1869
0.4803,1614
0.4819667,1747
0.4836333,1742
0.4853,1716
0.4869667,1739
0.4886333,1558
0.4903,1382
0.4919667,1317
0.4936333,1330
0.4953,1360
0.4969667,1342
0.4986333,1141
0.5003,1296
0.5019667,1148
0.5036333,999
0.5053,1133
0.5069667,1099
0.5086333,929
0.5103,1068
0.5119666,1181
0.5136333,1147
0.5153,1259
0.5169666,1257
0.5186333,1027
0.5203,1063
0.5219667,1325
0.5236334,1019
0.5253,1071
0.5269667,939
0.5286334,1018
0.5303,1081
0.5319667,1129
0.5336334,1159
0.5353,1068
0.5369667,908
0.5386333,1173
0.5403,1207
0.5419667,1076
0.5436333,1108
0.5453,1201
0.5469667,1114
0.5486333,1105
0.5503,1115
0.5519667,856
0.5536333,889
0.5553,1178
0.5569667,1167
0.5586333,917
0.5603,1291
0.5619667,1071
0.5636333,848
0.5653,830
0.5669667,1030
0.5686333,869
0.5703,926
0.5719666,983
0.5736333,936
0.5753,970
0.5769666,1003
0.5786333,1048
0.5803,1053
0.5819666,1058
0.5836333,1020
0.5853,982
0.5869667,1091
0.5886334,1105
0.5903,930
0.5919667,949
0.5936334,1022
0.5953,1069
0.5969667,1036
0.5986333,926
0.6003,817
0.6019667,1053
0.6036333,1052
0.6053,1051
0.6069667,1053
0.6086333,1012
0.6103,962
0.6119667,929
0.6136333,897
0.6153,968
0.6169667,839
0.6186333,863
0.6203,887
0.6219667,926
0.6236333,1017
0.6253,1031
0.6269667,886
0.6286333,1069
0.6303,900
0.6319667,1034
0.6336333,1014
0.6353,1082
0.6369666,1066
0.6386333,1050
0.6403,918
0.6419666,984
0.6436333,828
0.6453,1002
0.6469667,895
0.6486334,891
0.6503,831
0.6519667,880
0.6536334,930
0.6553,977
0.6569667,940
0.6586334,949
0.6603,1044
0.6619667,1008
0.6636333,972
0.6653,1059
0.6669667,837
0.6686333,949
0.6703,912
0.6719667,874
0.6736333,818
0.6753,824
0.6769667,829
0.6786333,885
0.6803,897
0.6819667,930
0.6836333,917
0.6853,654
0.6869667,879
0.6886333,831
0.6903,901
0.6919667,843
0.6936333,843
0.6953,899
0.6969666,851
0.6986333,803
0.7003,963
0.7019666,928
0.7036333,698
0.7053,927
0.7069666,884
0.7086333,908
0.7103,903
0.7119667,1081
0.7136334,1036
0.7153,1145
0.7169667,1106
0.7186334,959
0.7203,925
0.7219667,867
0.7236333,725
0.7253,957
0.7269667,814
0.7286333,779
0.7303,790
0.7319667,801
0.7336333,811
0.7353,821
0.7369667,834
0.7386333,735
0.7403,848
0.7419667,661
0.7436333,697
0.7453,732
0.7469667,874
0.7486333,898
0.7503,851
0.7519667,846
0.7536333,752
0.7553,756
0.7569667,824
0.7586333,892
0.7603,772
0.7619666,652
0.7636333,724
0.7653,877
0.7669666,825
0.7686333,957
0.7703,935
0.7719667,793
0.7736334,779
0.7753,922
0.7769667,803
0.7786334,888
0.7803,884
0.7819667,950
0.7836334,881
0.7853,783
0.7869667,793
0.7886333,884
0.7903,786
0.7919667,1023
0.7936333,1025
0.7953,816
0.7969667,832
0.7986333,902
0.8003,872
0.8019667,915
0.8036333,859
0.8053,881
0.8069667,902
0.8086333,893
0.8103,884
0.8119667,934
0.8136333,888
0.8153,842
0.8169667,925
0.8186333,836
0.8203,746
0.8219666,807
0.8236333,874
0.8253,942
0.8269666,869
0.8286333,833
0.8303,868
0.8319666,903
0.8336333,900
0.8353,883
0.8369667,865
0.8386334,843
0.8403,868
0.8419667,839
0.8436334,810
0.8453,804
0.8469667,798
0.8486333,816
0.8503,835
0.8519667,868
0.8536333,901
0.8553,878
0.8569667,883
0.8586333,887
0.8603,845
0.8619667,893
0.8636333,786
0.8653,821
0.8669667,921
0.8686333,920
0.8703,1173
0.8719667,1426
0.8736333,1397
0.8753,1546
0.8769667,1382
0.8786333,1323
0.8803,1086
0.8819667,1467
0.8836333,1323
0.8853,1525
0.8869666,1158
0.8886333,1125
0.8903,1355
0.8919666,1248
0.8936333,1118
0.8953,1154
0.8969667,1191
0.8986334,1269
0.9003,1443
0.9019667,1395
0.9036334,1369
0.9053,1236
0.9069667,1508
0.9086334,1583
0.9103,1406
0.9119667,1334
0.9136333,1220
0.9153,1251
0.9169667,1280
0.9186333,1314
0.9203,1349
0.9219667,1374
0.9236333,1399
0.9253,1345
0.9269667,1291
0.9286333,1223
0.9303,1156
0.9319667,1147
0.9336333,1380
0.9353,1566
0.9369667,1494
0.9386333,1564
0.9403,1308
0.9419667,1414
0.9436333,1394
0.9453,1492
0.9469666,1238
0.9486333,1308
0.9503,1109
0.9519666,1219
0.9536333,1047
0.9553,1104
0.9569666,1268
0.9586333,1123
0.9603,997
0.9619667,1120
0.9636334,1114
0.9653,1009
0.9669667,874
0.9686334,896
0.9703,929
0.9719667,886
0.9736333,892
0.9753,898
0.9769667,807
0.9786333,717
0.9803,900
0.9819667,841
0.9836333,924
0.9853,930
0.9869667,872
0.9886333,726
0.9903,764
0.9919667,1012
0.9936333,953
0.9953,830
0.9969667,1021
0.9986333,846
1.0003,798
1.001967,725
1.003633,871
1.0053,809
1.006967,777
1.008633,816
1.0103,920
1.011967,905
1.013633,838
1.0153,912
1.016967,825
1.018633,702
1.0203,851
1.021967,882
1.023633,959
1.0253,945
1.026967,732
1.028633,745
1.0303,814
1.031967,894
1.033633,878
1.0353,811
1.036967,872
1.038633,904
1.0403,874
1.041967,601
1.043633,970
1.0453,781
1.046967,879
1.048633,825
1.0503,880
1.051967,844
1.053633,861
1.0553,817
1.056967,868
1.058633,855
1.0603,867
1.061967,867
1.063633,861
1.0653,867
1.066967,848
1.068633,830
1.0703,836
1.071967,749
1.073633,900
1.0753,831
1.076967,763
1.078633,779
1.0803,915
1.081967,892
1.083633,869
1.0853,897
1.086967,914
1.088633,819
1.0903,816
1.091967,747
1.093633,705
1.0953,771
1.096967,810
1.098633,683
1.1003,793
1.101967,941
1.103633,876
1.1053,882
1.106967,806
1.108633,837
1.1103,868
1.111967,822
1.113633,777
1.1153,1007
1.116967,974
1.118633,764
1.1203,734
1.121967,904
1.123633,902
1.1253,900
1.126967,827
1.128633,723
1.1303,945
1.131967,782
1.133633,1017
1.1353,922
1.136967,814
1.138633,906
1.1403,903
1.141967,864
1.143633,899
1.1453,916
1.146967,653
1.148633,718
1.1503,798
1.151967,873
1.153633,844
1.1553,925
1.156967,931
1.158633,712
1.1603,691
1.161967,973
1.163633,844
1.1653,950
1.166967,944
1.168633,937
1.1703,968
1.171967,968
1.173633,824
1.1753,1042
1.176967,862
1.178633,749
1.1803,823
1.181967,862
1.183633,735
1.1853,602
1.186967,884
1.188633,950
1.1903,727
1.191967,782
1.193633,804
1.1953,831
1.196967,762
1.198633,777
