"SampleName","A2Rd2_01-12"
"Target Mass 1",
"Column Name","IA-3 (3um, 4.6X100)"
"Channel","QDa 1: SIR Ch2"
0.00195,414
0.003616667,679
0.005283333,694
0.00695,802
0.008616666,830
0.01028333,876
0.01195,829
0.01361667,829
0.01528333,757
0.01695,810
0.01861667,858
0.02028333,906
0.02195,724
0.02361667,973
0.02528333,819
0.02695,901
0.02861667,871
0.03028333,880
0.03195,793
0.03361667,962
0.03528333,912
0.03695,862
0.03861667,1056
0.04028333,1086
0.04195,1086
0.04361667,991
0.04528333,962
0.04695,704
0.04861667,1048
0.05028334,963
0.05195,1045
0.05361667,943
0.05528333,898
0.05695,1025
0.05861667,924
0.06028333,884
0.06195,830
0.06361666,935
0.06528334,958
0.06695,980
0.06861667,893
0.07028333,892
0.07195,772
0.07361667,867
0.07528333,825
0.07695,882
0.07861666,962
0.08028334,1023
0.08195,1011
0.08361667,1017
0.08528333,860
0.08695,946
0.08861667,953
0.09028333,834
0.09195,827
0.09361666,819
0.09528334,843
0.09695,867
0.09861667,869
0.1002833,871
0.10195,875
0.1036167,882
0.1052833,890
0.10695,945
0.1086167,808
0.1102833,822
0.11195,836
0.1136167,864
0.1152833,893
0.11695,929
0.1186167,922
0.1202833,915
0.12195,1067
0.1236167,676
0.1252833,999
0.12695,786
0.1286167,1033
0.1302833,918
0.13195,918
0.1336167,820
0.1352833,969
0.13695,920
0.1386167,866
0.1402833,880
0.14195,894
0.1436167,786
0.1452833,921
0.14695,911
0.1486167,763
0.1502833,890
0.15195,908
0.1536167,893
0.1552833,878
0.15695,884
0.1586167,889
0.1602833,900
0.16195,896
0.1636167,891
0.1652833,887
0.16695,846
0.1686167,806
0.1702833,833
0.17195,860
0.1736167,828
0.1752833,797
0.17695,678
0.1786167,726
0.1802833,775
0.18195,810
0.1836167,783
0.1852833,755
0.18695,782
0.1886167,809
0.1902833,792
0.19195,776
0.1936167,770
0.1952833,765
0.19695,778
0.1986167,750
0.2002833,722
0.20195,738
0.2036167,755
0.2052833,754
0.20695,754
0.2086167,963
0.2102833,1028
0.21195,998
0.2136167,833
0.2152833,1069
0.21695,988
0.2186167,1046
0.2202833,938
0.22195,1040
0.2236167,1000
0.2252833,961
0.22695,1111
0.2286167,1062
0.2302833,1143
0.23195,1092
0.2336167,1041
0.2352833,1119
0.23695,1213
0.2386167,1219
0.2402833,1019
0.24195,1437
0.2436167,1445
0.2452833,1276
0.24695,1159
0.2486167,1144
0.2502833,1195
0.25195,1185
0.2536167,1175
0.2552833,1149
0.25695,1238
0.2586167,1045
0.2602833,1080
0.26195,1116
0.2636333,1040
0.2652833,1092
0.26695,1143
0.2686167,1128
0.2702833,1113
0.27195,810
0.2736167,1267
0.2752833,1029
0.27695,1133
0.2786167,1131
0.2803,1092
0.28195,911
0.2836167,1109
0.2853,1146
0.28695,1134
0.2886167,998
0.2902833,1235
0.2919667,1127
0.2936167,1170
0.2952833,1097
0.29695,1122
0.2986333,1073
0.3002833,1126
0.30195,1100
0.3036167,1074
0.3052833,932
0.30695,975
0.3086167,1031
0.3102833,1007
0.31195,982
0.3136167,1129
0.3153,1187
0.31695,1167
0.3186167,1142
0.3202833,1103
0.3219667,968
0.3236167,1226
0.3252833,1398
0.32695,1266
0.3286167,1288
0.3302833,1414
0.33195,1257
0.3336333,1474
0.3352833,1443
0.3369667,1436
0.3386333,1446
0.3402833,1456
0.3419667,1594
0.3436167,1733
0.3452833,1726
0.34695,1514
0.3486167,1500
0.3503,1425
0.35195,1543
0.3536333,1408
0.3553,1318
0.35695,1373
0.3586167,1519
0.3602833,1526
0.36195,1353
0.3636167,3493
0.3652833,4576
0.36695,5593
0.3686333,5603
0.3703,5662
0.3719667,4597
0.3736167,3764
0.3753,2944
0.37695,2357
0.3786167,2082
0.3802833,1664
0.38195,1001
0.3836167,1224
0.3853,1061
0.3869667,664
0.3886333,782
0.3903,865
0.3919667,774
0.3936333,740
0.3952833,940
0.3969667,881
0.3986333,949
0.4003,839
0.4019667,896
0.4036333,773
0.4053,910
0.4069667,858
0.4086333,785
0.4103,686
0.4119667,643
0.4136333,766
0.4153,787
0.4169667,768
0.4186333,822
0.4203,824
0.4219667,789
0.4236333,740
0.4253,793
0.4269667,845
0.4286333,954
0.4303,947
0.4319667,986
0.4336333,1063
0.4353,980
0.4369667,898
0.4386333,1084
0.4403,1060
0.4419667,1201
0.4436333,1099
0.4453,1198
0.4469667,1238
0.4486333,1291
0.4503,1088
0.4519667,1092
0.4536333,1144
0.4553,1170
0.4569667,1195
0.4586333,1252
0.4603,1586
0.4619667,1539
0.4636333,1307
0.4653,1496
0.4669667,1598
0.4686333,1444
0.4703,1449
0.4719667,1455
0.4736333,1526
0.4753,1598
0.4769667,1617
0.4786333,1196
0.4803,1402
0.4819667,1353
0.4836333,1166
0.4853,1176
0.4869667,1250
0.4886333,1061
0.4903,1126
0.4919667,1030
0.4936333,1042
0.4953,1053
0.4969667,1072
0.4986333,954
0.5003,949
0.5019667,1010
0.5036333,1004
0.5053,902
0.5069667,1077
0.5086333,1129
0.5103,967
0.5119666,909
0.5136333,933
0.5153,957
0.5169666,916
0.5186333,874
0.5203,924
0.5219667,766
0.5236334,934
0.5253,964
0.5269667,1002
0.5286334,962
0.5303,1060
0.5319667,881
0.5336334,890
0.5353,983
0.5369667,915
0.5386333,847
0.5403,999
0.5419667,947
0.5436333,895
0.5453,1043
0.5469667,1150
0.5486333,654
0.5503,720
0.5519667,978
0.5536333,854
0.5553,1043
0.5569667,714
0.5586333,787
0.5603,871
0.5619667,853
0.5636333,867
0.5653,882
0.5669667,833
0.5686333,784
0.5703,1014
0.5719666,975
0.5736333,868
0.5753,865
0.5769666,911
0.5786333,813
0.5803,873
0.5819666,933
0.5836333,901
0.5853,869
0.5869667,836
0.5886334,887
0.5903,937
0.5919667,987
0.5936334,966
0.5953,945
0.5969667,964
0.5986333,982
0.6003,911
0.6019667,889
0.6036333,917
0.6053,851
0.6069667,786
0.6086333,831
0.6103,865
0.6119667,900
0.6136333,917
0.6153,874
0.6169667,831
0.6186333,813
0.6203,795
0.6219667,992
0.6236333,1002
0.6253,821
0.6269667,943
0.6286333,816
0.6303,800
0.6319667,758
0.6336333,864
0.6353,841
0.6369666,818
0.6386333,821
0.6403,823
0.6419666,887
0.6436333,988
0.6453,978
0.6469667,968
0.6486334,926
0.6503,974
0.6519667,595
0.6536334,1092
0.6553,963
0.6569667,831
0.6586334,787
0.6603,901
0.6619667,845
0.6636333,649
0.6653,638
0.6669667,926
0.6686333,841
0.6703,856
0.6719667,907
0.6736333,874
0.6753,839
0.6769667,869
0.6786333,735
0.6803,753
0.6819667,768
0.6836333,697
0.6853,778
0.6869667,834
0.6886333,883
0.6903,880
0.6919667,855
0.6936333,829
0.6953,829
0.6969666,820
0.6986333,810
0.7003,710
0.7019666,719
0.7036333,727
0.7053,782
0.7069666,925
0.7086333,856
0.7103,787
0.7119667,957
0.7136334,909
0.7153,896
0.7169667,952
0.7186334,872
0.7203,983
0.7219667,851
0.7236333,852
0.7253,966
0.7269667,896
0.7286333,728
0.7303,883
0.7319667,970
0.7336333,654
0.7353,891
0.7369667,773
0.7386333,774
0.7403,805
0.7419667,836
0.7436333,921
0.7453,862
0.7469667,802
0.7486333,737
0.7503,892
0.7519667,712
0.7536333,788
0.7553,631
0.7569667,755
0.7586333,878
0.7603,843
0.7619666,853
0.7636333,862
0.7653,929
0.7669666,706
0.7686333,991
0.7703,784
0.7719667,774
0.7736334,737
0.7753,779
0.7769667,758
0.7786334,746
0.7803,802
0.7819667,881
0.7836334,929
0.7853,976
0.7869667,819
0.7886333,657
0.7903,846
0.7919667,983
0.7936333,972
0.7953,824
0.7969667,716
0.7986333,764
0.8003,807
0.8019667,851
0.8036333,875
0.8053,837
0.8069667,757
0.8086333,902
0.8103,886
0.8119667,871
0.8136333,809
0.8153,818
0.8169667,764
0.8186333,710
0.8203,765
0.8219666,1101
0.8236333,1134
0.8253,1086
0.8269666,832
0.8286333,936
0.8303,1085
0.8319666,774
0.8336333,1102
0.8353,1007
0.8369667,940
0.8386334,1010
0.8403,962
0.8419667,713
0.8436334,867
0.8453,987
0.8469667,747
0.8486333,935
0.8503,622
0.8519667,766
0.8536333,852
0.8553,839
0.8569667,839
0.8586333,838
0.8603,885
0.8619667,875
0.8636333,864
0.8653,735
0.8669667,809
0.8686333,894
0.8703,804
0.8719667,996
0.8736333,604
0.8753,935
0.8769667,783
0.8786333,1042
0.8803,1189
0.8819667,1206
0.8836333,1152
0.8853,1255
0.8869666,1317
0.8886333,1364
0.8903,1411
0.8919666,1540
0.8936333,1532
0.8953,1449
0.8969667,938
0.8986334,1352
0.9003,893
0.9019667,1209
0.9036334,1193
0.9053,1158
0.9069667,1536
0.9086334,1597
0.9103,1224
0.9119667,1458
0.9136333,1262
0.9153,1111
0.9169667,1484
0.9186333,1088
0.9203,1150
0.9219667,1381
0.9236333,1564
0.9253,1420
0.9269667,1483
0.9286333,1352
0.9303,1243
0.9319667,1478
0.9336333,1220
0.9353,1357
0.9369667,1331
0.9386333,1161
0.9403,1258
0.9419667,1488
0.9436333,1009
0.9453,1566
0.9469666,1240
0.9486333,1265
0.9503,1228
0.9519666,1109
0.9536333,1105
0.9553,1154
0.9569666,1135
0.9586333,1117
0.9603,1042
0.9619667,1010
0.9636334,1038
0.9653,956
0.9669667,969
0.9686334,982
0.9703,911
0.9719667,844
0.9736333,840
0.9753,993
0.9769667,1033
0.9786333,734
0.9803,782
0.9819667,927
0.9836333,776
0.9853,700
0.9869667,892
0.9886333,893
0.9903,841
0.9919667,743
0.9936333,872
0.9953,812
0.9969667,752
0.9986333,720
1.0003,636
1.001967,552
1.003633,771
1.0053,823
1.006967,850
1.008633,894
1.0103,914
1.011967,911
1.013633,649
1.0153,867
1.016967,1032
1.018633,917
1.0203,675
1.021967,958
1.023633,976
1.0253,849
1.026967,916
1.028633,821
1.0303,912
1.031967,733
1.033633,923
1.0353,898
1.036967,842
1.038633,899
1.0403,868
1.041967,837
1.043633,1025
1.0453,981
1.046967,747
1.048633,816
1.0503,985
1.051967,1004
1.053633,820
1.0553,784
1.056967,1002
1.058633,744
1.0603,817
1.061967,745
1.063633,749
1.0653,754
1.066967,705
1.068633,655
1.0703,735
1.071967,814
1.073633,909
1.0753,1008
1.076967,1059
1.078633,915
1.0803,1066
1.081967,721
1.083633,984
1.0853,819
1.086967,946
1.088633,765
1.0903,830
1.091967,896
1.093633,879
1.0953,863
1.096967,988
1.098633,1000
1.1003,799
1.101967,882
1.103633,849
1.1053,869
1.106967,888
1.108633,795
1.1103,938
1.111967,903
1.113633,868
1.1153,1046
1.116967,904
1.118633,762
1.1203,976
1.121967,773
1.123633,847
1.1253,840
1.126967,721
1.128633,805
1.1303,906
1.131967,1027
1.133633,1006
1.1353,819
1.136967,792
1.138633,872
1.1403,770
1.141967,848
1.143633,675
1.1453,843
1.146967,849
1.148633,815
1.1503,774
1.151967,877
1.153633,876
1.1553,817
1.156967,918
1.158633,760
1.1603,621
1.161967,878
1.163633,859
1.1653,709
1.166967,733
1.168633,949
1.1703,941
1.171967,850
1.173633,962
1.1753,981
1.176967,969
1.178633,957
1.1803,898
1.181967,751
1.183633,863
1.1853,788
1.186967,909
1.188633,895
1.1903,805
1.191967,876
1.193633,865
1.1953,854
1.196967,863
1.198633,857
