"SampleName","A2Rd2_01-84"
"Target Mass 1",
"Column Name","IA-3 (3um, 4.6X100)"
"Channel","QDa 1: SIR Ch2"
0.00195,447
0.003616667,689
0.005283333,600
0.00695,538
0.008616666,639
0.01028333,739
0.01195,997
0.01361667,979
0.01528333,957
0.01695,760
0.01861667,826
0.02028333,827
0.02195,817
0.02361667,808
0.02528333,855
0.02695,837
0.02861667,819
0.03028333,892
0.03195,919
0.03361667,741
0.03528333,701
0.03695,927
0.03861667,880
0.04028333,833
0.04195,807
0.04361667,781
0.04528333,813
0.04695,928
0.04861667,895
0.05028334,796
0.05195,995
0.05361667,879
0.05528333,1058
0.05695,903
0.05861667,814
0.06028333,1084
0.06195,784
0.06361666,1003
0.06528334,934
0.06695,846
0.06861667,742
0.07028333,876
0.07195,787
0.07361667,760
0.07528333,734
0.07695,868
0.07861666,942
0.08028334,919
0.08195,833
0.08361667,832
0.08528333,852
0.08695,888
0.08861667,861
0.09028333,834
0.09195,853
0.09361666,804
0.09528334,908
0.09695,893
0.09861667,708
0.1002833,902
0.10195,1026
0.1036167,1034
0.1052833,827
0.10695,706
0.1086167,946
0.1102833,812
0.11195,710
0.1136167,777
0.1152833,741
0.11695,843
0.1186167,868
0.1202833,894
0.12195,941
0.1236167,746
0.1252833,743
0.12695,839
0.1286167,721
0.1302833,745
0.13195,768
0.1336167,837
0.1352833,857
0.13695,805
0.1386167,804
0.1402833,656
0.14195,695
0.1436167,817
0.1452833,802
0.14695,787
0.1486167,826
0.1502833,778
0.15195,656
0.1536167,816
0.1552833,780
0.15695,744
0.1586167,773
0.1602833,802
0.16195,805
0.1636167,816
0.1652833,756
0.16695,759
0.1686167,762
0.1702833,853
0.17195,944
0.1736167,882
0.1752833,820
0.17695,821
0.1786167,822
0.1802833,808
0.18195,747
0.1836167,686
0.1852833,981
0.18695,947
0.1886167,780
0.1902833,742
0.19195,860
0.1936167,674
0.1952833,780
0.19695,799
0.1986167,854
0.2002833,771
0.20195,846
0.2036167,817
0.2052833,788
0.20695,799
0.2086167,857
0.2102833,894
0.21195,932
0.2136167,919
0.2152833,905
0.21695,934
0.2186167,996
0.2202833,1057
0.22195,1065
0.2236167,1067
0.2252833,1112
0.22695,1222
0.2286167,880
0.2302833,814
0.23195,1136
0.2336167,1052
0.2352833,967
0.23695,1015
0.2386167,1062
0.2402833,1082
0.24195,1101
0.2436167,1034
0.2452833,1134
0.24695,1189
0.2486167,1182
0.2502833,1131
0.25195,1140
0.2536167,1150
0.2552833,1131
0.25695,1064
0.2586167,951
0.2602833,892
0.26195,1128
0.2636167,1133
0.2652833,1058
0.26695,1314
0.2686167,855
0.2702833,1096
0.27195,1217
0.2736167,822
0.2752833,910
0.27695,949
0.2786167,1081
0.2803,1047
0.28195,1013
0.2836167,1038
0.2852833,850
0.28695,817
0.2886167,860
0.2902833,1031
0.29195,1098
0.2936167,921
0.2952833,965
0.29695,980
0.2986333,1044
0.3002833,979
0.30195,915
0.3036167,820
0.3052833,1090
0.30695,1197
0.3086167,1320
0.3102833,1079
0.31195,1394
0.3136167,1189
0.3153,1151
0.31695,1148
0.3186167,1110
0.3202833,1072
0.32195,1099
0.3236167,1068
0.3252833,1117
0.32695,1133
0.3286167,1149
0.3302833,1251
0.33195,1238
0.3336333,1234
0.3352833,1263
0.33695,1124
0.3386333,1263
0.3402833,1491
0.34195,1387
0.3436167,1407
0.3452833,1465
0.34695,1297
0.3486167,1384
0.3503,1249
0.35195,993
0.3536167,1326
0.3552833,1309
0.35695,1439
0.3586167,1369
0.3602833,1344
0.36195,1355
0.3636167,1636
0.3652833,2458
0.3669667,3486
0.3686333,4164
0.3702833,4735
0.37195,4805
0.3736333,5234
0.3752833,4938
0.37695,4949
0.3786167,4524
0.3802833,4207
0.3819667,3842
0.3836333,3168
0.3853,2048
0.38695,2105
0.3886333,1632
0.3903,1297
0.3919667,1195
0.3936167,1059
0.3952833,627
0.39695,591
0.3986333,632
0.4003,557
0.4019667,592
0.4036333,625
0.4053,510
0.4069667,615
0.4086333,551
0.4103,538
0.41195,525
0.4136167,583
0.4153,703
0.4169667,819
0.4186333,866
0.4203,615
0.4219667,608
0.4236333,778
0.4252833,711
0.4269667,629
0.4286333,759
0.4303,746
0.4319667,734
0.4336333,805
0.4353,877
0.4369667,908
0.4386333,940
0.4403,978
0.4419667,1016
0.4436333,1051
0.4453,1086
0.4469667,1103
0.4486333,1119
0.4503,1227
0.4519667,1226
0.4536333,1224
0.4553,1286
0.4569667,1254
0.4586333,1222
0.4603,1219
0.4619667,1204
0.4636333,1189
0.4653,1202
0.4669667,1215
0.4686333,1508
0.4703,1757
0.4719667,1709
0.4736333,1392
0.4753,1183
0.4769667,1383
0.4786333,1501
0.4803,1252
0.4819667,1517
0.4836333,1212
0.4853,1361
0.4869667,1045
0.4886333,1079
0.4903,1191
0.4919667,900
0.4936333,1298
0.4953,1155
0.4969667,1262
0.4986333,1077
0.5003,970
0.5019667,889
0.5036333,963
0.5053,763
0.5069667,948
0.5086333,924
0.5103,878
0.5119666,947
0.5136333,904
0.5153,860
0.5169666,819
0.5186333,884
0.5203,887
0.5219667,901
0.5236334,852
0.5253,967
0.5269667,1015
0.5286334,981
0.5303,941
0.5319667,868
0.5336334,913
0.5353,993
0.5369667,964
0.5386333,1032
0.5403,814
0.5419667,865
0.5436333,1034
0.5453,972
0.5469667,909
0.5486333,1031
0.5503,967
0.5519667,1020
0.5536333,1073
0.5553,1031
0.5569667,777
0.5586333,907
0.5603,895
0.5619667,1006
0.5636333,1042
0.5653,909
0.5669667,964
0.5686333,842
0.5703,1065
0.5719666,1026
0.5736333,896
0.5753,856
0.5769666,784
0.5786333,816
0.5803,848
0.5819666,945
0.5836333,1042
0.5853,971
0.5869667,968
0.5886334,967
0.5903,981
0.5919667,1070
0.5936334,1115
0.5953,1127
0.5969667,935
0.5986333,1021
0.6003,1034
0.6019667,924
0.6036333,962
0.6053,902
0.6069667,1125
0.6086333,1083
0.6103,1170
0.6119667,958
0.6136333,956
0.6153,1041
0.6169667,835
0.6186333,921
0.6203,1007
0.6219667,1116
0.6236333,1081
0.6253,1048
0.6269667,997
0.6286333,951
0.6303,904
0.6319667,967
0.6336333,1222
0.6353,1155
0.6369666,1089
0.6386333,959
0.6403,1198
0.6419666,1058
0.6436333,1143
0.6453,1182
0.6469667,1025
0.6486334,1233
0.6503,1228
0.6519667,932
0.6536334,1038
0.6553,1119
0.6569667,1033
0.6586334,947
0.6603,1043
0.6619667,1039
0.6636333,1004
0.6653,950
0.6669667,987
0.6686333,1038
0.6703,1060
0.6719667,1053
0.6736333,1144
0.6753,1383
0.6769667,1379
0.6786333,1760
0.6803,1839
0.6819667,2237
0.6836333,2378
0.6853,3268
0.6869667,3919
0.6886333,4781
0.6903,5404
0.6919667,5810
0.6936333,7246
0.6953,7438
0.6969666,7994
0.6986333,8640
0.7003,9472
0.7019666,9628
0.7036333,10056
0.7053,10416
0.7069666,10776
0.7086333,10900
0.7103,11020
0.7119667,11860
0.7136334,11892
0.7153,11840
0.7169667,11648
0.7186334,11104
0.7203,10380
0.7219667,9688
0.7236333,9612
0.7253,8444
0.7269667,7550
0.7286333,6672
0.7303,6214
0.7319667,5271
0.7336333,4844
0.7353,4364
0.7369667,3497
0.7386333,3319
0.7403,2508
0.7419667,2814
0.7436333,2347
0.7453,2133
0.7469667,1900
0.7486333,1765
0.7503,1580
0.7519667,1512
0.7536333,1404
0.7553,1624
0.7569667,1393
0.7586333,1488
0.7603,1182
0.7619666,1071
0.7636333,1016
0.7653,1089
0.7669666,968
0.7686333,950
0.7703,1002
0.7719667,1128
0.7736334,1097
0.7753,1066
0.7769667,1047
0.7786334,1658
0.7803,1547
0.7819667,1835
0.7836334,2016
0.7853,2619
0.7869667,2966
0.7886333,3319
0.7903,3839
0.7919667,4758
0.7936333,5123
0.7953,6434
0.7969667,6768
0.7986333,7775
0.8003,8552
0.8019667,8764
0.8036333,9352
0.8053,9868
0.8069667,10296
0.8086333,10248
0.8103,10776
0.8119667,10612
0.8136333,10992
0.8153,11544
0.8169667,11688
0.8186333,11252
0.8203,12188
0.8219666,12252
0.8236333,11168
0.8253,12124
0.8269666,10268
0.8286333,10128
0.8303,9612
0.8319666,8892
0.8336333,7547
0.8353,7994
0.8369667,6522
0.8386334,6107
0.8403,5448
0.8419667,4775
0.8436334,4240
0.8453,3613
0.8469667,3171
0.8486333,3073
0.8503,2752
0.8519667,2646
0.8536333,2234
0.8553,1936
0.8569667,1662
0.8586333,1861
0.8603,1750
0.8619667,1361
0.8636333,1590
0.8653,1569
0.8669667,1564
0.8686333,1344
0.8703,1206
0.8719667,1361
0.8736333,1299
0.8753,1410
0.8769667,1446
0.8786333,1709
0.8803,1961
0.8819667,1805
0.8836333,1584
0.8853,1996
0.8869666,1683
0.8886333,1686
0.8903,1468
0.8919666,1720
0.8936333,1727
0.8953,1596
0.8969667,1616
0.8986334,1542
0.9003,1420
0.9019667,1328
0.9036334,1438
0.9053,1366
0.9069667,1295
0.9086334,1500
0.9103,1419
0.9119667,1500
0.9136333,1372
0.9153,1221
0.9169667,1246
0.9186333,1284
0.9203,1322
0.9219667,1602
0.9236333,1608
0.9253,1310
0.9269667,1271
0.9286333,1436
0.9303,1133
0.9319667,1264
0.9336333,1384
0.9353,1268
0.9369667,1531
0.9386333,1045
0.9403,1338
0.9419667,1454
0.9436333,1222
0.9453,1338
0.9469666,1272
0.9486333,1209
0.9503,1147
0.9519666,1249
0.9536333,1735
0.9553,1851
0.9569666,1907
0.9586333,1867
0.9603,2223
0.9619667,2569
0.9636334,2883
0.9653,3416
0.9669667,3921
0.9686334,4147
0.9703,5519
0.9719667,5836
0.9736333,6710
0.9753,7998
0.9769667,9308
0.9786333,9784
0.9803,10956
0.9819667,13180
0.9836333,13852
0.9853,14376
0.9869667,15896
0.9886333,16988
0.9903,18116
0.9919667,18400
0.9936333,18860
0.9953,20300
0.9969667,20276
0.9986333,21748
1.0003,21532
1.001967,23004
1.003633,22852
1.0053,22704
1.006967,23020
1.008633,22972
1.0103,22924
1.011967,23764
1.013633,24608
1.0153,24388
1.016967,24304
1.018633,24016
1.0203,22012
1.021967,21908
1.023633,20692
1.0253,18480
1.026967,17308
1.028633,16580
1.0303,14900
1.031967,14412
1.033633,12936
1.0353,12064
1.036967,10988
1.038633,9740
1.0403,8476
1.041967,8264
1.043633,6998
1.0453,6416
1.046967,5851
1.048633,6264
1.0503,5339
1.051967,5624
1.053633,5145
1.0553,5158
1.056967,4939
1.058633,4953
1.0603,5130
1.061967,5198
1.063633,5419
1.0653,5439
1.066967,5459
1.068633,5794
1.0703,5737
1.071967,5930
1.073633,6352
1.0753,6360
1.076967,6429
1.078633,6498
1.0803,6752
1.081967,6855
1.083633,7400
1.0853,7366
1.086967,7359
1.088633,7596
1.0903,7928
1.091967,8052
1.093633,7917
1.0953,7783
1.096967,7695
1.098633,7607
1.1003,7987
1.101967,7948
1.103633,7910
1.1053,7861
1.106967,7813
1.108633,7906
1.1103,7486
1.111967,7648
1.113633,7204
1.1153,6927
1.116967,6506
1.118633,6178
1.1203,5442
1.121967,5222
1.123633,4679
1.1253,4878
1.126967,4328
1.128633,4578
1.1303,4010
1.131967,3635
1.133633,2938
1.1353,3295
1.136967,2885
1.138633,2849
1.1403,2749
1.141967,2423
1.143633,2376
1.1453,2404
1.146967,2210
1.148633,1907
1.1503,2075
1.151967,1872
1.153633,1668
1.1553,1580
1.156967,1925
1.158633,1663
1.1603,1660
1.161967,1336
1.163633,1343
1.1653,1509
1.166967,1435
1.168633,1362
1.1703,1139
1.171967,1404
1.173633,1255
1.1753,1250
1.176967,1125
1.178633,1334
1.1803,1245
1.181967,1381
1.183633,1260
1.1853,1353
1.186967,1333
1.188633,1166
1.1903,1348
1.191967,1260
1.193633,1349
1.1953,1347
1.196967,1345
1.198633,1411
