"SampleName","A2Rd2_01-52"
"Target Mass 1",
"Column Name","IA-3 (3um, 4.6X100)"
"Channel","QDa 1: SIR Ch1"
0.00195,354
0.003616667,525
0.005283333,538
0.00695,622
0.008616666,572
0.01028333,555
0.01195,509
0.01361667,577
0.01528333,645
0.01695,675
0.01861667,602
0.02028333,675
0.02195,566
0.02361667,432
0.02528333,656
0.02695,640
0.02861667,401
0.03028333,448
0.03195,517
0.03361667,511
0.03528333,506
0.03695,517
0.03861667,529
0.04028333,565
0.04195,572
0.04361667,509
0.04528333,663
0.04695,644
0.04861667,629
0.05028334,559
0.05195,613
0.05361667,667
0.05528333,617
0.05695,567
0.05861667,513
0.06028333,568
0.06195,526
0.06361666,556
0.06528334,577
0.06695,645
0.06861667,627
0.07028333,590
0.07195,575
0.07361667,578
0.07528333,621
0.07695,454
0.07861666,523
0.08028334,647
0.08195,485
0.08361667,617
0.08528333,659
0.08695,547
0.08861667,678
0.09028333,611
0.09195,681
0.09361666,621
0.09528334,500
0.09695,613
0.09861667,432
0.1002833,507
0.10195,513
0.1036167,526
0.1052833,539
0.10695,581
0.1086167,568
0.1102833,550
0.11195,557
0.1136167,522
0.1152833,491
0.11695,466
0.1186167,566
0.1202833,631
0.12195,628
0.1236167,568
0.1252833,548
0.12695,607
0.1286167,600
0.1302833,498
0.13195,575
0.1336167,549
0.1352833,591
0.13695,612
0.1386167,483
0.1402833,573
0.14195,644
0.1436167,532
0.1452833,561
0.14695,551
0.1486167,542
0.1502833,505
0.15195,468
0.1536167,474
0.1552833,480
0.15695,548
0.1586167,573
0.1602833,605
0.16195,626
0.1636167,525
0.1652833,554
0.16695,516
0.1686167,582
0.1702833,420
0.17195,497
0.1736167,482
0.1752833,467
0.17695,595
0.1786167,624
0.1802833,718
0.18195,444
0.1836167,617
0.1852833,445
0.18695,510
0.1886167,670
0.1902833,614
0.19195,565
0.1936167,522
0.1952833,579
0.19695,558
0.1986167,370
0.2002833,493
0.20195,529
0.2036167,469
0.2052833,566
0.20695,525
0.2086167,492
0.2102833,538
0.21195,525
0.2136167,512
0.2152833,516
0.21695,497
0.2186167,460
0.2202833,568
0.22195,556
0.2236167,580
0.2252833,576
0.22695,475
0.2286167,458
0.2302833,552
0.23195,576
0.2336167,469
0.2352833,482
0.23695,553
0.2386167,445
0.2402833,526
0.24195,609
0.2436167,642
0.2452833,610
0.24695,518
0.2486167,562
0.2502833,617
0.25195,593
0.2536167,569
0.2552833,512
0.25695,448
0.2586167,475
0.2602833,523
0.26195,570
0.2636333,589
0.2652833,573
0.26695,539
0.2686167,506
0.2702833,443
0.27195,480
0.2736167,434
0.2752833,490
0.27695,547
0.2786167,549
0.2803,567
0.28195,567
0.2836167,567
0.2852833,520
0.28695,487
0.2886167,594
0.2902833,579
0.29195,547
0.2936167,605
0.2952833,592
0.29695,579
0.2986333,598
0.3002833,617
0.30195,525
0.3036167,567
0.3052833,611
0.30695,634
0.3086167,595
0.3102833,617
0.31195,582
0.3136167,547
0.3153,538
0.31695,528
0.3186167,554
0.3202833,546
0.32195,538
0.3236167,548
0.3252833,582
0.32695,477
0.3286167,550
0.3302833,559
0.33195,507
0.3336333,502
0.3352833,523
0.33695,522
0.3386167,521
0.3402833,517
0.34195,536
0.3436167,554
0.3453,430
0.34695,549
0.3486167,410
0.3503,583
0.35195,649
0.3536333,716
0.3553,512
0.35695,534
0.3586167,579
0.3603,645
0.3619667,826
0.3636167,1155
0.3652833,1427
0.36695,2856
0.3686333,4259
0.3702833,4834
0.3719667,6563
0.3736333,7325
0.3752833,6228
0.3769667,5463
0.3786333,4569
0.3803,4353
0.38195,3456
0.3836167,2687
0.3853,2074
0.38695,1757
0.3886333,1391
0.3902833,1180
0.3919667,1165
0.3936333,1007
0.3953,1022
0.3969667,1073
0.3986333,1075
0.4003,1077
0.4019667,1232
0.4036333,1437
0.4053,1588
0.4069667,1719
0.4086333,1850
0.4103,2075
0.4119667,2405
0.4136333,2637
0.4153,2232
0.4169667,2419
0.4186333,2566
0.4203,2445
0.4219667,2491
0.4236333,2479
0.4253,2466
0.4269667,2431
0.4286333,2501
0.4303,3037
0.4319667,3665
0.4336333,4141
0.4353,4994
0.4369667,5802
0.4386333,8102
0.4403,10832
0.4419667,13760
0.4436333,17900
0.4453,22988
0.4469667,30640
0.4486333,41168
0.4503,49808
0.4519667,62912
0.4536333,77936
0.4553,92048
0.4569667,113232
0.4586333,131648
0.4603,154944
0.4619667,183424
0.4636333,215104
0.4653,244352
0.4669667,275648
0.4686333,312128
0.4703,335872
0.4719667,359616
0.4736333,367552
0.4753,363264
0.4769667,347776
0.4786333,321088
0.4803,290816
0.4819667,249216
0.4836333,212544
0.4853,172608
0.4869667,139264
0.4886333,109104
0.4903,84016
0.4919667,66832
0.4936333,51024
0.4953,39584
0.4969667,29744
0.4986333,24088
0.5003,18848
0.5019667,16100
0.5036333,13376
0.5053,11284
0.5069667,10520
0.5086333,8492
0.5103,7769
0.5119666,7318
0.5136333,6276
0.5153,5912
0.5169666,5607
0.5186333,5228
0.5203,4721
0.5219667,4713
0.5236334,4767
0.5253,4536
0.5269667,4186
0.5286334,4097
0.5303,3965
0.5319667,4217
0.5336334,3915
0.5353,3587
0.5369667,3772
0.5386333,3621
0.5403,3580
0.5419667,3444
0.5436333,3401
0.5453,3029
0.5469667,3212
0.5486333,2847
0.5503,2611
0.5519667,2412
0.5536333,2640
0.5553,2262
0.5569667,2578
0.5586333,2097
0.5603,2470
0.5619667,2030
0.5636333,2062
0.5653,2313
0.5669667,2198
0.5686333,2078
0.5703,2356
0.5719666,2025
0.5736333,2076
0.5753,2042
0.5769666,1828
0.5786333,1784
0.5803,2018
0.5819666,1924
0.5836333,1663
0.5853,1981
0.5869667,1939
0.5886334,1817
0.5903,1912
0.5919667,1879
0.5936334,1846
0.5953,1938
0.5969667,2048
0.5986333,2048
0.6003,1667
0.6019667,1803
0.6036333,1806
0.6053,1756
0.6069667,1705
0.6086333,1803
0.6103,1900
0.6119667,1881
0.6136333,1863
0.6153,1550
0.6169667,1513
0.6186333,1617
0.6203,1549
0.6219667,1481
0.6236333,1666
0.6253,1654
0.6269667,1262
0.6286333,1541
0.6303,1667
0.6319667,1407
0.6336333,1474
0.6353,1274
0.6369666,1468
0.6386333,1316
0.6403,1414
0.6419666,1294
0.6436333,1300
0.6453,1356
0.6469667,1293
0.6486334,1292
0.6503,1291
0.6519667,1018
0.6536334,1055
0.6553,1323
0.6569667,1227
0.6586334,1035
0.6603,1135
0.6619667,1299
0.6636333,1333
0.6653,1252
0.6669667,1111
0.6686333,1230
0.6703,1015
0.6719667,1009
0.6736333,1179
0.6753,1026
0.6769667,1066
0.6786333,1043
0.6803,1020
0.6819667,919
0.6836333,1104
0.6853,1093
0.6869667,1032
0.6886333,1070
0.6903,1163
0.6919667,1172
0.6936333,976
0.6953,950
0.6969666,941
0.6986333,1045
0.7003,1017
0.7019666,940
0.7036333,943
0.7053,947
0.7069666,891
0.7086333,859
0.7103,827
0.7119667,925
0.7136334,935
0.7153,946
0.7169667,887
0.7186334,975
0.7203,909
0.7219667,907
0.7236333,903
0.7253,900
0.7269667,877
0.7286333,939
0.7303,989
0.7319667,1034
0.7336333,775
0.7353,803
0.7369667,998
0.7386333,835
0.7403,963
0.7419667,738
0.7436333,932
0.7453,964
0.7469667,958
0.7486333,940
0.7503,921
0.7519667,943
0.7536333,953
0.7553,964
0.7569667,1069
0.7586333,776
0.7603,712
0.7619666,798
0.7636333,824
0.7653,850
0.7669666,787
0.7686333,724
0.7703,897
0.7719667,870
0.7736334,882
0.7753,726
0.7769667,906
0.7786334,849
0.7803,866
0.7819667,892
0.7836334,918
0.7853,879
0.7869667,841
0.7886333,1074
0.7903,1064
0.7919667,876
0.7936333,1096
0.7953,705
0.7969667,821
0.7986333,761
0.8003,819
0.8019667,799
0.8036333,766
0.8053,732
0.8069667,760
0.8086333,789
0.8103,857
0.8119667,835
0.8136333,813
0.8153,891
0.8169667,969
0.8186333,689
0.8203,863
0.8219666,958
0.8236333,776
0.8253,867
0.8269666,843
0.8286333,572
0.8303,877
0.8319666,1096
0.8336333,925
0.8353,948
0.8369667,777
0.8386334,880
0.8403,908
0.8419667,814
0.8436334,841
0.8453,859
0.8469667,739
0.8486333,859
0.8503,796
0.8519667,759
0.8536333,839
0.8553,856
0.8569667,603
0.8586333,879
0.8603,781
0.8619667,725
0.8636333,847
0.8653,1040
0.8669667,964
0.8686333,1510
0.8703,1421
0.8719667,1928
0.8736333,2329
0.8753,2537
0.8769667,2472
0.8786333,3225
0.8803,3047
0.8819667,3055
0.8836333,3141
0.8853,3228
0.8869666,3101
0.8886333,2973
0.8903,3163
0.8919666,2846
0.8936333,2867
0.8953,2749
0.8969667,2671
0.8986334,2681
0.9003,2690
0.9019667,2795
0.9036334,2901
0.9053,2937
0.9069667,2973
0.9086334,2892
0.9103,2900
0.9119667,2908
0.9136333,2930
0.9153,2784
0.9169667,2863
0.9186333,2840
0.9203,2797
0.9219667,2753
0.9236333,2777
0.9253,2801
0.9269667,2515
0.9286333,2803
0.9303,2390
0.9319667,2795
0.9336333,2702
0.9353,2484
0.9369667,2498
0.9386333,2364
0.9403,1955
0.9419667,2360
0.9436333,1861
0.9453,1718
0.9469666,1775
0.9486333,1747
0.9503,1718
0.9519666,1765
0.9536333,1597
0.9553,1512
0.9569666,1559
0.9586333,1571
0.9603,1460
0.9619667,1328
0.9636334,1186
0.9653,1241
0.9669667,1235
0.9686334,862
0.9703,1077
0.9719667,988
0.9736333,977
0.9753,915
0.9769667,727
0.9786333,857
0.9803,838
0.9819667,703
0.9836333,714
0.9853,759
0.9869667,706
0.9886333,663
0.9903,591
0.9919667,619
0.9936333,621
0.9953,575
0.9969667,629
0.9986333,682
1.0003,728
1.001967,671
1.003633,615
1.0053,569
1.006967,563
1.008633,455
1.0103,513
1.011967,571
1.013633,556
1.0153,590
1.016967,585
1.018633,581
1.0203,560
1.021967,593
1.023633,557
1.0253,576
1.026967,661
1.028633,747
1.0303,789
1.031967,604
1.033633,627
1.0353,749
1.036967,600
1.038633,714
1.0403,619
1.041967,619
1.043633,550
1.0453,630
1.046967,687
1.048633,511
1.0503,563
1.051967,615
1.053633,564
1.0553,578
1.056967,592
1.058633,581
1.0603,571
1.061967,577
1.063633,650
1.0653,626
1.066967,603
1.068633,535
1.0703,624
1.071967,714
1.073633,676
1.0753,478
1.076967,678
1.078633,573
1.0803,636
1.081967,656
1.083633,676
1.0853,715
1.086967,691
1.088633,720
1.0903,643
1.091967,619
1.093633,683
1.0953,648
1.096967,686
1.098633,732
1.1003,565
1.101967,526
1.103633,549
1.1053,618
1.106967,613
1.108633,607
1.1103,607
1.111967,607
1.113633,626
1.1153,504
1.116967,680
1.118633,688
1.1203,598
1.121967,609
1.123633,635
1.1253,620
1.126967,728
1.128633,649
1.1303,571
1.131967,614
1.133633,662
1.1353,607
1.136967,632
1.138633,656
1.1403,455
1.141967,507
1.143633,517
1.1453,718
1.146967,753
1.148633,629
1.1503,671
1.151967,436
1.153633,531
1.1553,631
1.156967,649
1.158633,613
1.1603,659
1.161967,704
1.163633,545
1.1653,520
1.166967,778
1.168633,745
1.1703,661
1.171967,663
1.173633,769
1.1753,742
1.176967,714
1.178633,591
1.1803,692
1.181967,698
1.183633,701
1.1853,607
1.186967,559
1.188633,666
1.1903,563
1.191967,651
1.193633,687
1.1953,656
1.196967,649
1.198633,642
