"SampleName","A2Rd2_01-27"
"Target Mass 1",
"Column Name","IA-3 (3um, 4.6X100)"
"Channel","QDa 1: SIR Ch1"
0.00195,258
0.003616667,424
0.005283333,521
0.00695,477
0.008616666,490
0.01028333,509
0.01195,372
0.01361667,583
0.01528333,526
0.01695,445
0.01861667,382
0.02028333,537
0.02195,581
0.02361667,425
0.02528333,543
0.02695,366
0.02861667,457
0.03028333,388
0.03195,442
0.03361667,421
0.03528333,400
0.03695,453
0.03861667,467
0.04028333,480
0.04195,471
0.04361667,413
0.04528333,503
0.04695,522
0.04861667,402
0.05028334,434
0.05195,416
0.05361667,398
0.05528333,396
0.05695,443
0.05861667,423
0.06028333,404
0.06195,449
0.06361666,428
0.06528334,416
0.06695,432
0.06861667,452
0.07028333,516
0.07195,467
0.07361667,417
0.07528333,373
0.07695,427
0.07861666,481
0.08028334,489
0.08195,374
0.08361667,434
0.08528333,452
0.08695,422
0.08861667,393
0.09028333,443
0.09195,434
0.09361666,424
0.09528334,529
0.09695,505
0.09861667,358
0.1002833,437
0.10195,402
0.1036167,512
0.1052833,527
0.10695,492
0.1086167,408
0.1102833,535
0.11195,456
0.1136167,445
0.1152833,481
0.11695,329
0.1186167,519
0.1202833,512
0.12195,498
0.1236167,401
0.1252833,500
0.12695,461
0.1286167,417
0.1302833,512
0.13195,455
0.1336167,490
0.1352833,481
0.13695,472
0.1386167,336
0.1402833,449
0.14195,389
0.1436167,392
0.1452833,506
0.14695,492
0.1486167,426
0.1502833,413
0.15195,438
0.1536167,385
0.1552833,424
0.15695,358
0.1586167,368
0.1602833,379
0.16195,402
0.1636167,398
0.1652833,394
0.16695,386
0.1686167,378
0.1702833,353
0.17195,329
0.1736167,409
0.1753,471
0.17695,530
0.1786167,546
0.1802833,520
0.18195,490
0.1836167,459
0.1852833,449
0.18695,438
0.1886167,401
0.1902833,413
0.19195,411
0.1936167,410
0.1952833,389
0.19695,405
0.1986167,421
0.2002833,224
0.20195,451
0.2036167,490
0.2052833,466
0.20695,479
0.2086167,494
0.2102833,487
0.21195,351
0.2136167,242
0.2152833,506
0.21695,421
0.2186167,464
0.2202833,474
0.22195,484
0.2236167,498
0.2252833,505
0.22695,518
0.2286167,430
0.2302833,420
0.23195,391
0.2336167,453
0.2352833,526
0.23695,495
0.2386167,486
0.2402833,564
0.24195,380
0.2436167,420
0.2452833,383
0.24695,446
0.2486167,453
0.2502833,471
0.25195,475
0.2536167,480
0.2552833,452
0.25695,425
0.2586167,441
0.2602833,436
0.26195,401
0.2636167,416
0.2652833,431
0.26695,408
0.2686167,385
0.2702833,377
0.27195,370
0.2736167,368
0.2753,366
0.27695,357
0.2786167,347
0.2803,373
0.28195,398
0.2836333,464
0.2852833,579
0.28695,520
0.2886167,429
0.2902833,555
0.29195,521
0.2936167,417
0.2952833,609
0.29695,451
0.2986333,478
0.3002833,345
0.30195,449
0.3036333,362
0.3052833,480
0.30695,523
0.3086167,437
0.3102833,422
0.31195,514
0.3136167,542
0.3153,536
0.31695,421
0.3186167,613
0.3202833,441
0.32195,655
0.3236167,450
0.3253,499
0.32695,664
0.3286167,531
0.3302833,586
0.33195,587
0.3336333,588
0.3352833,529
0.3369667,532
0.3386167,484
0.3402833,456
0.34195,510
0.3436167,517
0.3452833,523
0.34695,539
0.3486167,534
0.3503,528
0.35195,437
0.3536333,461
0.3552833,484
0.35695,443
0.3586167,556
0.3602833,714
0.36195,727
0.3636167,754
0.3652833,1244
0.3669667,2049
0.3686333,4544
0.3703,6712
0.3719667,8940
0.3736167,7553
0.3753,8240
0.37695,6013
0.3786167,5436
0.3803,4570
0.38195,4341
0.3836167,3905
0.3853,3804
0.3869667,3071
0.3886333,2831
0.3902833,2461
0.3919667,1966
0.3936167,1643
0.3952833,1728
0.39695,1866
0.3986167,1455
0.4002833,1290
0.4019667,1480
0.4036333,1540
0.4053,1332
0.4069667,1603
0.4086333,1508
0.4103,1385
0.4119667,1633
0.4136333,1667
0.4153,1679
0.4169667,1862
0.4186333,1809
0.4203,2000
0.4219667,1949
0.4236333,2026
0.4253,1599
0.4269667,1519
0.4286333,1479
0.4303,1482
0.4319667,1507
0.4336333,1353
0.4353,1498
0.4369667,2023
0.4386333,3010
0.4403,4094
0.4419667,5829
0.4436333,7541
0.4453,10416
0.4469667,13384
0.4486333,17084
0.4503,25180
0.4519667,31508
0.4536333,42880
0.4553,56016
0.4569667,75216
0.4586333,102640
0.4603,131968
0.4619667,173312
0.4636333,216320
0.4653,261696
0.4669667,304064
0.4686333,345600
0.4703,375360
0.4719667,381184
0.4736333,375808
0.4753,354624
0.4769667,323904
0.4786333,274496
0.4803,230912
0.4819667,186304
0.4836333,147264
0.4853,111248
0.4869667,87472
0.4886333,65712
0.4903,48960
0.4919667,39536
0.4936333,30304
0.4953,24408
0.4969667,18744
0.4986333,16136
0.5003,13352
0.5019667,11412
0.5036333,9644
0.5053,8864
0.5069667,7345
0.5086333,7140
0.5103,5567
0.5119666,5459
0.5136333,5216
0.5153,4936
0.5169666,5112
0.5186333,3950
0.5203,4113
0.5219667,3961
0.5236334,3706
0.5253,3388
0.5269667,3348
0.5286334,3408
0.5303,3501
0.5319667,3054
0.5336334,2954
0.5353,2606
0.5369667,2908
0.5386333,2683
0.5403,2826
0.5419667,2799
0.5436333,2211
0.5453,2250
0.5469667,2337
0.5486333,2091
0.5503,1779
0.5519667,2057
0.5536333,1888
0.5553,1671
0.5569667,1800
0.5586333,1779
0.5603,1722
0.5619667,1666
0.5636333,1690
0.5653,1715
0.5669667,1464
0.5686333,1589
0.5703,1509
0.5719666,1289
0.5736333,1265
0.5753,1323
0.5769666,1312
0.5786333,1298
0.5803,1285
0.5819666,1262
0.5836333,1240
0.5853,1459
0.5869667,1484
0.5886334,1315
0.5903,1303
0.5919667,1345
0.5936334,1234
0.5953,1377
0.5969667,1413
0.5986333,1415
0.6003,1211
0.6019667,1299
0.6036333,1480
0.6053,1296
0.6069667,1315
0.6086333,1404
0.6103,1317
0.6119667,1318
0.6136333,1319
0.6153,1330
0.6169667,1326
0.6186333,1322
0.6203,1441
0.6219667,1465
0.6236333,1362
0.6253,1158
0.6269667,1120
0.6286333,1226
0.6303,1190
0.6319667,1154
0.6336333,1058
0.6353,1019
0.6369666,1003
0.6386333,980
0.6403,1029
0.6419666,940
0.6436333,958
0.6453,900
0.6469667,855
0.6486334,932
0.6503,749
0.6519667,873
0.6536334,799
0.6553,736
0.6569667,740
0.6586334,746
0.6603,748
0.6619667,751
0.6636333,875
0.6653,850
0.6669667,712
0.6686333,787
0.6703,710
0.6719667,776
0.6736333,800
0.6753,756
0.6769667,794
0.6786333,781
0.6803,768
0.6819667,744
0.6836333,721
0.6853,680
0.6869667,639
0.6886333,647
0.6903,639
0.6919667,632
0.6936333,705
0.6953,650
0.6969666,594
0.6986333,747
0.7003,793
0.7019666,779
0.7036333,833
0.7053,588
0.7069666,695
0.7086333,700
0.7103,756
0.7119667,682
0.7136334,605
0.7153,618
0.7169667,611
0.7186334,633
0.7203,664
0.7219667,716
0.7236333,706
0.7253,687
0.7269667,746
0.7286333,659
0.7303,635
0.7319667,510
0.7336333,509
0.7353,482
0.7369667,455
0.7386333,519
0.7403,736
0.7419667,721
0.7436333,584
0.7453,714
0.7469667,581
0.7486333,570
0.7503,631
0.7519667,610
0.7536333,589
0.7553,602
0.7569667,599
0.7586333,596
0.7603,603
0.7619666,606
0.7636333,609
0.7653,715
0.7669666,673
0.7686333,631
0.7703,641
0.7719667,468
0.7736334,569
0.7753,651
0.7769667,629
0.7786334,655
0.7803,681
0.7819667,560
0.7836334,506
0.7853,553
0.7869667,562
0.7886333,576
0.7903,480
0.7919667,564
0.7936333,604
0.7953,594
0.7969667,613
0.7986333,582
0.8003,571
0.8019667,647
0.8036333,648
0.8053,602
0.8069667,590
0.8086333,652
0.8103,486
0.8119667,707
0.8136333,684
0.8153,584
0.8169667,549
0.8186333,541
0.8203,526
0.8219666,538
0.8236333,550
0.8253,580
0.8269666,609
0.8286333,680
0.8303,665
0.8319666,739
0.8336333,551
0.8353,692
0.8369667,554
0.8386334,483
0.8403,457
0.8419667,555
0.8436334,593
0.8453,632
0.8469667,542
0.8486333,643
0.8503,517
0.8519667,698
0.8536333,743
0.8553,663
0.8569667,567
0.8586333,489
0.8603,604
0.8619667,574
0.8636333,544
0.8653,568
0.8669667,490
0.8686333,601
0.8703,567
0.8719667,572
0.8736333,599
0.8753,500
0.8769667,614
0.8786333,803
0.8803,889
0.8819667,932
0.8836333,1028
0.8853,1177
0.8869666,1774
0.8886333,1918
0.8903,1922
0.8919666,2106
0.8936333,2307
0.8953,2335
0.8969667,2199
0.8986334,2209
0.9003,2275
0.9019667,2340
0.9036334,2327
0.9053,2461
0.9069667,2558
0.9086334,2562
0.9103,2508
0.9119667,2510
0.9136333,2452
0.9153,2346
0.9169667,2412
0.9186333,2272
0.9203,2317
0.9219667,2361
0.9236333,2267
0.9253,2417
0.9269667,2370
0.9286333,2312
0.9303,2253
0.9319667,2183
0.9336333,2255
0.9353,2213
0.9369667,2172
0.9386333,2100
0.9403,2155
0.9419667,2073
0.9436333,1734
0.9453,1966
0.9469666,1881
0.9486333,1502
0.9503,1461
0.9519666,1595
0.9536333,1503
0.9553,1449
0.9569666,1438
0.9586333,1427
0.9603,1088
0.9619667,1368
0.9636334,1155
0.9653,1003
0.9669667,863
0.9686334,1000
0.9703,894
0.9719667,1016
0.9736333,759
0.9753,682
0.9769667,657
0.9786333,532
0.9803,695
0.9819667,643
0.9836333,513
0.9853,480
0.9869667,561
0.9886333,444
0.9903,541
0.9919667,523
0.9936333,419
0.9953,456
0.9969667,502
0.9986333,497
1.0003,497
1.001967,497
1.003633,480
1.0053,526
1.006967,453
1.008633,497
1.0103,484
1.011967,505
1.013633,496
1.0153,432
1.016967,542
1.018633,593
1.0203,610
1.021967,456
1.023633,650
1.0253,634
1.026967,448
1.028633,412
1.0303,517
1.031967,444
1.033633,501
1.0353,473
1.036967,561
1.038633,561
1.0403,561
1.041967,440
1.043633,354
1.0453,454
1.046967,651
1.048633,613
1.0503,675
1.051967,518
1.053633,579
1.0553,461
1.056967,521
1.058633,482
1.0603,523
1.061967,511
1.063633,499
1.0653,456
1.066967,445
1.068633,459
1.0703,474
1.071967,445
1.073633,416
1.0753,473
1.076967,530
1.078633,509
1.0803,487
1.081967,450
1.083633,495
1.0853,482
1.086967,468
1.088633,448
1.0903,427
1.091967,507
1.093633,484
1.0953,462
1.096967,510
1.098633,579
1.1003,580
1.101967,620
1.103633,528
1.1053,552
1.106967,470
1.108633,468
1.1103,567
1.111967,459
1.113633,481
1.1153,503
1.116967,486
1.118633,500
1.1203,513
1.121967,508
1.123633,504
1.1253,522
1.126967,424
1.128633,613
1.1303,559
1.131967,610
1.133633,591
1.1353,625
1.136967,625
1.138633,384
1.1403,569
1.141967,624
1.143633,488
1.1453,426
1.146967,446
1.148633,663
1.1503,608
1.151967,527
1.153633,555
1.1553,569
1.156967,486
1.158633,554
1.1603,572
1.161967,514
1.163633,565
1.1653,465
1.166967,602
1.168633,453
1.1703,507
1.171967,473
1.173633,382
1.1753,529
1.176967,510
1.178633,556
1.1803,547
1.181967,538
1.183633,514
1.1853,508
1.186967,502
1.188633,579
1.1903,586
1.191967,553
1.193633,590
1.1953,576
1.196967,514
1.198633,453
