"SampleName","A2Rd2_01-5"
"Target Mass 1",
"Column Name","IA-3 (3um, 4.6X100)"
"Channel","QDa 1: SIR Ch2"
0.00195,592
0.003616667,837
0.005283333,979
0.00695,870
0.008616666,1045
0.01028333,1034
0.01195,1069
0.01361667,1105
0.01528333,1107
0.01695,1110
0.01861667,1164
0.02028333,1066
0.02195,967
0.02361667,1202
0.02528333,1157
0.02695,903
0.02861667,1125
0.03028333,1010
0.03195,1083
0.03361667,947
0.03528333,997
0.03695,1047
0.03861667,1019
0.04028333,992
0.04195,1030
0.04361667,1008
0.04528333,985
0.04695,1130
0.04861667,1220
0.05028334,1150
0.05195,1149
0.05361667,1148
0.05528333,1095
0.05695,1093
0.05861667,1055
0.06028333,1017
0.06195,1072
0.06361666,1116
0.06528334,1123
0.06695,1130
0.06861667,1163
0.07028333,1067
0.07195,1158
0.07361667,1104
0.07528333,852
0.07695,1209
0.07861666,1171
0.08028334,1076
0.08195,1062
0.08361667,1008
0.08528333,955
0.08695,918
0.08861667,974
0.09028333,1067
0.09195,1137
0.09361666,1055
0.09528334,1079
0.09695,1103
0.09861667,928
0.1002833,1171
0.10195,1205
0.1036167,937
0.1052833,1113
0.10695,1086
0.1086167,954
0.1102833,1043
0.11195,1049
0.1136167,1056
0.1152833,1034
0.11695,1040
0.1186167,1045
0.1202833,1090
0.12195,1133
0.1236167,1090
0.1252833,1047
0.12695,1011
0.1286167,1129
0.1302833,1127
0.13195,1096
0.1336167,1108
0.1352833,1044
0.13695,1098
0.1386167,1058
0.1402833,1018
0.14195,1062
0.1436167,1106
0.1452833,1070
0.14695,1034
0.1486167,1098
0.1502833,1061
0.15195,1025
0.1536167,997
0.1552833,969
0.15695,994
0.1586167,867
0.1602833,1238
0.16195,1323
0.1636167,895
0.1652833,1245
0.16695,1127
0.1686167,1053
0.1702833,1136
0.17195,1175
0.1736167,1122
0.1752833,1095
0.17695,1025
0.1786167,1041
0.1802833,1268
0.18195,1261
0.1836167,909
0.1852833,1070
0.18695,1258
0.1886167,1012
0.1902833,1261
0.19195,1089
0.1936167,1211
0.1952833,1085
0.19695,1142
0.1986167,1082
0.2002833,1117
0.20195,1152
0.2036167,1238
0.2052833,912
0.20695,1124
0.2086167,1105
0.2102833,1231
0.21195,1307
0.2136167,1011
0.2152833,1224
0.21695,1150
0.2186167,1093
0.2202833,1022
0.22195,1225
0.2236167,1424
0.2252833,1399
0.22695,986
0.2286167,1031
0.2302833,1116
0.23195,1230
0.2336167,1241
0.2352833,1252
0.23695,1248
0.2386167,1088
0.2402833,1117
0.24195,1147
0.2436167,1159
0.2452833,1219
0.24695,1279
0.2486167,1328
0.2502833,1118
0.25195,1260
0.2536167,1117
0.2552833,1105
0.25695,1397
0.2586167,1335
0.2602833,1273
0.26195,1109
0.2636333,1329
0.2652833,1279
0.26695,1016
0.2686167,1447
0.2702833,1468
0.27195,1229
0.2736167,1233
0.2752833,1366
0.27695,1235
0.2786167,1081
0.2803,1138
0.28195,1254
0.2836167,1249
0.2852833,1099
0.28695,1208
0.2886167,1135
0.2902833,1132
0.2919667,1444
0.2936167,1493
0.2952833,1342
0.29695,1223
0.2986333,1118
0.3002833,1180
0.30195,1232
0.3036333,1147
0.3052833,1136
0.30695,1125
0.3086167,1184
0.3102833,1181
0.3119667,1179
0.3136167,1239
0.3153,1198
0.31695,1158
0.3186167,1211
0.3202833,1264
0.3219667,1247
0.3236167,1231
0.3252833,969
0.32695,1348
0.3286167,1486
0.3302833,1306
0.33195,1356
0.3336333,1406
0.3352833,1292
0.3369667,1294
0.3386167,1685
0.3403,1672
0.3419667,1493
0.3436333,1268
0.3453,1311
0.3469667,1490
0.3486333,1510
0.3503,1523
0.3519667,1479
0.3536167,1435
0.3553,1317
0.3569667,1289
0.3586167,1341
0.3603,1982
0.36195,4659
0.3636167,7154
0.3652833,7280
0.36695,6604
0.3686333,5542
0.3703,3654
0.3719667,3483
0.3736333,2589
0.3752833,2184
0.3769667,1836
0.3786167,1865
0.3802833,1525
0.38195,1272
0.3836167,1101
0.3853,973
0.38695,962
0.3886333,1062
0.3903,1037
0.3919667,1086
0.3936333,1064
0.3953,920
0.3969667,1153
0.3986167,1316
0.4002833,1198
0.4019667,1019
0.4036333,818
0.4053,1248
0.4069667,916
0.4086333,936
0.4103,963
0.4119667,972
0.4136333,944
0.4153,839
0.4169667,841
0.4186333,754
0.4203,1089
0.4219667,1042
0.4236333,994
0.4253,1066
0.4269667,1106
0.4286333,1111
0.4303,1223
0.4319667,1223
0.4336333,1224
0.4353,1367
0.4369667,1445
0.4386333,1427
0.4403,1397
0.4419667,1536
0.4436333,1556
0.4453,1577
0.4469667,1448
0.4486333,1904
0.4503,1795
0.4519667,1628
0.4536333,1736
0.4553,1844
0.4569667,1813
0.4586333,1783
0.4603,1814
0.4619667,1844
0.4636333,1825
0.4653,1807
0.4669667,1836
0.4686333,1866
0.4703,1898
0.4719667,1789
0.4736333,1831
0.4753,1962
0.4769667,1482
0.4786333,1883
0.4803,1463
0.4819667,1525
0.4836333,1529
0.4853,1436
0.4869667,1485
0.4886333,1447
0.4903,1408
0.4919667,1435
0.4936333,1462
0.4953,1464
0.4969667,1466
0.4986333,1328
0.5003,1316
0.5019667,1543
0.5036333,1206
0.5053,1299
0.5069667,1367
0.5086333,1187
0.5103,1117
0.5119666,1353
0.5136333,1077
0.5153,910
0.5169666,912
0.5186333,1145
0.5203,1076
0.5219667,1177
0.5236334,896
0.5253,1029
0.5269667,1047
0.5286334,1020
0.5303,1154
0.5319667,1072
0.5336334,990
0.5353,1032
0.5369667,1071
0.5386333,1098
0.5403,1125
0.5419667,1224
0.5436333,1283
0.5453,1293
0.5469667,1072
0.5486333,1096
0.5503,1174
0.5519667,1048
0.5536333,1071
0.5553,860
0.5569667,916
0.5586333,1065
0.5603,1030
0.5619667,886
0.5636333,1110
0.5653,940
0.5669667,1011
0.5686333,731
0.5703,988
0.5719666,1005
0.5736333,1069
0.5753,939
0.5769666,924
0.5786333,886
0.5803,913
0.5819666,1050
0.5836333,1107
0.5853,1094
0.5869667,908
0.5886334,979
0.5903,1163
0.5919667,1097
0.5936334,1037
0.5953,1177
0.5969667,845
0.5986333,1144
0.6003,859
0.6019667,1095
0.6036333,972
0.6053,1081
0.6069667,909
0.6086333,991
0.6103,1073
0.6119667,1032
0.6136333,1034
0.6153,1036
0.6169667,976
0.6186333,916
0.6203,1013
0.6219667,895
0.6236333,1074
0.6253,971
0.6269667,868
0.6286333,950
0.6303,980
0.6319667,893
0.6336333,806
0.6353,1045
0.6369666,989
0.6386333,854
0.6403,858
0.6419666,862
0.6436333,916
0.6453,942
0.6469667,968
0.6486334,959
0.6503,950
0.6519667,858
0.6536334,737
0.6553,952
0.6569667,754
0.6586334,985
0.6603,905
0.6619667,941
0.6636333,928
0.6653,989
0.6669667,847
0.6686333,794
0.6703,984
0.6719667,754
0.6736333,874
0.6753,825
0.6769667,830
0.6786333,849
0.6803,828
0.6819667,807
0.6836333,787
0.6853,767
0.6869667,757
0.6886333,818
0.6903,884
0.6919667,918
0.6936333,812
0.6953,946
0.6969666,869
0.6986333,873
0.7003,1004
0.7019666,736
0.7036333,847
0.7053,931
0.7069666,974
0.7086333,746
0.7103,845
0.7119667,859
0.7136334,904
0.7153,854
0.7169667,851
0.7186334,802
0.7203,829
0.7219667,856
0.7236333,901
0.7253,750
0.7269667,859
0.7286333,861
0.7303,937
0.7319667,876
0.7336333,816
0.7353,832
0.7369667,980
0.7386333,896
0.7403,813
0.7419667,803
0.7436333,841
0.7453,825
0.7469667,809
0.7486333,817
0.7503,849
0.7519667,881
0.7536333,996
0.7553,1009
0.7569667,941
0.7586333,846
0.7603,740
0.7619666,849
0.7636333,735
0.7653,785
0.7669666,835
0.7686333,958
0.7703,934
0.7719667,662
0.7736334,906
0.7753,924
0.7769667,942
0.7786334,913
0.7803,761
0.7819667,767
0.7836334,815
0.7853,824
0.7869667,825
0.7886333,766
0.7903,838
0.7919667,797
0.7936333,756
0.7953,970
0.7969667,995
0.7986333,817
0.8003,854
0.8019667,899
0.8036333,851
0.8053,802
0.8069667,748
0.8086333,743
0.8103,857
0.8119667,850
0.8136333,922
0.8153,798
0.8169667,852
0.8186333,924
0.8203,899
0.8219666,874
0.8236333,892
0.8253,875
0.8269666,935
0.8286333,935
0.8303,934
0.8319666,961
0.8336333,872
0.8353,789
0.8369667,749
0.8386334,709
0.8403,759
0.8419667,807
0.8436334,812
0.8453,830
0.8469667,790
0.8486333,782
0.8503,780
0.8519667,788
0.8536333,1030
0.8553,1030
0.8569667,880
0.8586333,691
0.8603,855
0.8619667,938
0.8636333,991
0.8653,1167
0.8669667,1260
0.8686333,1433
0.8703,1350
0.8719667,1440
0.8736333,1468
0.8753,1372
0.8769667,1316
0.8786333,1174
0.8803,1029
0.8819667,1188
0.8836333,1221
0.8853,1254
0.8869666,1084
0.8886333,1423
0.8903,1388
0.8919666,1151
0.8936333,1175
0.8953,1117
0.8969667,1198
0.8986334,1243
0.9003,1288
0.9019667,1136
0.9036334,1195
0.9053,1254
0.9069667,1156
0.9086334,1058
0.9103,1307
0.9119667,1297
0.9136333,1357
0.9153,1255
0.9169667,1524
0.9186333,1491
0.9203,1382
0.9219667,1181
0.9236333,1622
0.9253,1263
0.9269667,1235
0.9286333,1502
0.9303,1570
0.9319667,1420
0.9336333,1460
0.9353,1500
0.9369667,1302
0.9386333,1245
0.9403,1416
0.9419667,1335
0.9436333,1253
0.9453,1316
0.9469666,1361
0.9486333,1291
0.9503,1199
0.9519666,1513
0.9536333,1455
0.9553,1120
0.9569666,1358
0.9586333,1184
0.9603,1033
0.9619667,1135
0.9636334,1071
0.9653,1128
0.9669667,1042
0.9686334,1046
0.9703,1082
0.9719667,1118
0.9736333,963
0.9753,956
0.9769667,782
0.9786333,876
0.9803,884
0.9819667,892
0.9836333,791
0.9853,1013
0.9869667,1003
0.9886333,904
0.9903,812
0.9919667,971
0.9936333,764
0.9953,1002
0.9969667,842
0.9986333,870
1.0003,938
1.001967,956
1.003633,974
1.0053,797
1.006967,859
1.008633,949
1.0103,894
1.011967,810
1.013633,1015
1.0153,1022
1.016967,1053
1.018633,939
1.0203,908
1.021967,1118
1.023633,779
1.0253,957
1.026967,954
1.028633,909
1.0303,864
1.031967,856
1.033633,878
1.0353,832
1.036967,785
1.038633,794
1.0403,795
1.041967,796
1.043633,811
1.0453,842
1.046967,872
1.048633,850
1.0503,828
1.051967,940
1.053633,1040
1.0553,1114
1.056967,906
1.058633,1036
1.0603,798
1.061967,1067
1.063633,811
1.0653,1004
1.066967,781
1.068633,1016
1.0703,895
1.071967,757
1.073633,847
1.0753,943
1.076967,816
1.078633,985
1.0803,1101
1.081967,1104
1.083633,1049
1.0853,828
1.086967,840
1.088633,846
1.0903,907
1.091967,970
1.093633,1033
1.0953,972
1.096967,954
1.098633,908
1.1003,935
1.101967,915
1.103633,973
1.1053,1006
1.106967,1040
1.108633,745
1.1103,902
1.111967,968
1.113633,805
1.1153,965
1.116967,933
1.118633,721
1.1203,733
1.121967,847
1.123633,809
1.1253,772
1.126967,1074
1.128633,1025
1.1303,1011
1.131967,850
1.133633,911
1.1353,872
1.136967,733
1.138633,959
1.1403,943
1.141967,931
1.143633,863
1.1453,885
1.146967,955
1.148633,839
1.1503,724
1.151967,725
1.153633,752
1.1553,990
1.156967,1058
1.158633,676
1.1603,849
1.161967,773
1.163633,961
1.1653,983
1.166967,1034
1.168633,753
1.1703,869
1.171967,860
1.173633,688
1.1753,844
1.176967,915
1.178633,998
1.1803,950
1.181967,904
1.183633,947
1.1853,933
1.186967,920
1.188633,894
1.1903,977
1.191967,920
1.193633,863
1.1953,768
1.196967,703
1.198633,877
