"SampleName","A2Rd2_01-72"
"Target Mass 1",
"Column Name","IA-3 (3um, 4.6X100)"
"Channel","QDa 1: SIR Ch2"
0.00195,479
0.003616667,655
0.005283333,654
0.00695,684
0.008616666,883
0.01028333,966
0.01195,940
0.01361667,834
0.01528333,934
0.01695,890
0.01861667,651
0.02028333,967
0.02195,809
0.02361667,1002
0.02528333,837
0.02695,948
0.02861667,996
0.03028333,984
0.03195,932
0.03361667,881
0.03528333,833
0.03695,870
0.03861667,836
0.04028333,886
0.04195,936
0.04361667,948
0.04528333,885
0.04695,1135
0.04861667,1106
0.05028334,789
0.05195,949
0.05361667,907
0.05528333,673
0.05695,819
0.05861667,653
0.06028333,723
0.06195,734
0.06361666,745
0.06528334,993
0.06695,948
0.06861667,929
0.07028333,909
0.07195,887
0.07361667,730
0.07528333,979
0.07695,943
0.07861666,853
0.08028334,987
0.08195,777
0.08361667,800
0.08528333,1056
0.08695,978
0.08861667,926
0.09028333,900
0.09195,907
0.09361666,796
0.09528334,895
0.09695,886
0.09861667,854
0.1002833,823
0.10195,712
0.1036167,815
0.1052833,918
0.10695,977
0.1086167,852
0.1102833,786
0.11195,923
0.1136167,849
0.1152833,774
0.11695,910
0.1186167,765
0.1202833,735
0.12195,705
0.1236167,870
0.1252833,1043
0.12695,966
0.1286167,808
0.1302833,1065
0.13195,802
0.1336167,764
0.1352833,943
0.13695,892
0.1386167,840
0.1402833,729
0.14195,870
0.1436167,830
0.1452833,844
0.14695,805
0.1486167,765
0.1502833,785
0.15195,805
0.1536167,808
0.1552833,663
0.15695,764
0.1586167,837
0.1602833,733
0.16195,863
0.1636167,939
0.1652833,889
0.16695,850
0.1686167,742
0.1702833,894
0.17195,644
0.1736167,899
0.1752833,685
0.17695,852
0.1786167,858
0.1802833,864
0.18195,777
0.1836167,960
0.1852833,987
0.18695,1067
0.1886167,961
0.1902833,765
0.19195,970
0.1936167,755
0.1952833,798
0.19695,821
0.1986167,843
0.2002833,932
0.20195,952
0.2036167,721
0.2052833,788
0.20695,890
0.2086167,912
0.2102833,896
0.21195,974
0.2136167,1037
0.2152833,1022
0.21695,1007
0.2186167,882
0.2202833,1064
0.22195,939
0.2236167,1135
0.2252833,1158
0.22695,1087
0.2286333,1096
0.2302833,1104
0.23195,1141
0.2336167,1136
0.2352833,1132
0.23695,1175
0.2386167,1195
0.2402833,1215
0.24195,1214
0.2436167,1216
0.2453,1201
0.24695,1187
0.2486167,1077
0.2502833,1119
0.25195,1151
0.2536167,1081
0.2552833,1050
0.25695,1064
0.2586167,1078
0.2602833,1032
0.26195,992
0.2636333,952
0.2652833,1004
0.2669667,1056
0.2686167,1031
0.2702833,1006
0.27195,1068
0.2736167,987
0.2752833,1209
0.27695,1193
0.2786167,1150
0.2803,937
0.28195,950
0.2836167,994
0.2852833,1016
0.28695,970
0.2886167,1005
0.2903,1007
0.29195,1027
0.2936167,1048
0.2952833,1089
0.29695,1087
0.2986333,1086
0.3002833,1082
0.30195,1163
0.3036333,827
0.3052833,923
0.3069667,1090
0.3086167,1250
0.3102833,1177
0.31195,1191
0.3136333,1425
0.3153,1387
0.3169667,1297
0.3186167,1171
0.3203,1371
0.32195,1153
0.3236333,1365
0.3252833,1267
0.32695,1173
0.3286333,1078
0.3303,1242
0.3319667,1351
0.3336333,1265
0.3352833,1276
0.3369667,1287
0.3386167,1262
0.3403,1456
0.34195,1460
0.3436333,1394
0.3453,1358
0.3469667,1323
0.3486333,1298
0.3503,1273
0.35195,1468
0.3536333,1453
0.3552833,1318
0.3569667,1364
0.3586167,1226
0.3603,1426
0.3619667,1470
0.3636333,1516
0.3653,1677
0.3669667,3279
0.3686333,3940
0.3703,4708
0.3719667,5105
0.3736333,4639
0.3753,4998
0.3769667,4873
0.3786333,4157
0.3803,3993
0.3819667,2772
0.3836333,2484
0.3853,2403
0.3869667,1809
0.3886333,1688
0.3903,1185
0.3919667,1082
0.3936333,911
0.3953,959
0.3969667,536
0.3986333,565
0.4003,413
0.4019667,655
0.4036333,563
0.4053,666
0.4069667,700
0.4086333,654
0.4103,641
0.4119667,636
0.4136333,678
0.4153,716
0.4169667,678
0.4186333,639
0.4203,657
0.4219667,684
0.4236333,711
0.4253,878
0.4269667,796
0.4286333,714
0.4303,829
0.4319667,1031
0.4336333,1039
0.4353,944
0.4369667,856
0.4386333,1114
0.4403,1154
0.4419667,1000
0.4436333,996
0.4453,1062
0.4469667,1275
0.4486333,1259
0.4503,1178
0.4519667,1316
0.4536333,1497
0.4553,952
0.4569667,1465
0.4586333,1338
0.4603,1380
0.4619667,1270
0.4636333,1387
0.4653,1490
0.4669667,1522
0.4686333,1579
0.4703,1476
0.4719667,1260
0.4736333,1485
0.4753,1470
0.4769667,1579
0.4786333,1506
0.4803,1661
0.4819667,1259
0.4836333,1364
0.4853,1517
0.4869667,1136
0.4886333,1193
0.4903,1149
0.4919667,1148
0.4936333,1179
0.4953,1075
0.4969667,971
0.4986333,957
0.5003,925
0.5019667,892
0.5036333,916
0.5053,940
0.5069667,983
0.5086333,946
0.5103,908
0.5119666,900
0.5136333,918
0.5153,907
0.5169666,897
0.5186333,898
0.5203,899
0.5219667,913
0.5236334,897
0.5253,881
0.5269667,877
0.5286334,856
0.5303,881
0.5319667,768
0.5336334,941
0.5353,989
0.5369667,828
0.5386333,840
0.5403,912
0.5419667,874
0.5436333,836
0.5453,979
0.5469667,995
0.5486333,797
0.5503,1046
0.5519667,1121
0.5536333,817
0.5553,778
0.5569667,890
0.5586333,822
0.5603,923
0.5619667,869
0.5636333,890
0.5653,1039
0.5669667,712
0.5686333,1012
0.5703,918
0.5719666,870
0.5736333,1002
0.5753,1089
0.5769666,768
0.5786333,1155
0.5803,920
0.5819666,1249
0.5836333,1133
0.5853,897
0.5869667,1139
0.5886334,848
0.5903,993
0.5919667,982
0.5936334,1058
0.5953,994
0.5969667,1067
0.5986333,913
0.6003,1101
0.6019667,937
0.6036333,857
0.6053,715
0.6069667,929
0.6086333,1049
0.6103,979
0.6119667,850
0.6136333,770
0.6153,787
0.6169667,804
0.6186333,958
0.6203,1062
0.6219667,968
0.6236333,896
0.6253,815
0.6269667,911
0.6286333,714
0.6303,870
0.6319667,995
0.6336333,1052
0.6353,894
0.6369666,841
0.6386333,1105
0.6403,947
0.6419666,782
0.6436333,1082
0.6453,990
0.6469667,941
0.6486334,837
0.6503,930
0.6519667,758
0.6536334,1063
0.6553,1044
0.6569667,843
0.6586334,876
0.6603,820
0.6619667,784
0.6636333,829
0.6653,873
0.6669667,880
0.6686333,683
0.6703,929
0.6719667,988
0.6736333,1002
0.6753,790
0.6769667,809
0.6786333,897
0.6803,795
0.6819667,895
0.6836333,952
0.6853,909
0.6869667,935
0.6886333,964
0.6903,833
0.6919667,931
0.6936333,886
0.6953,798
0.6969666,845
0.6986333,892
0.7003,903
0.7019666,914
0.7036333,889
0.7053,864
0.7069666,720
0.7086333,818
0.7103,1023
0.7119667,936
0.7136334,822
0.7153,962
0.7169667,786
0.7186334,1030
0.7203,1025
0.7219667,937
0.7236333,1105
0.7253,915
0.7269667,874
0.7286333,915
0.7303,792
0.7319667,790
0.7336333,842
0.7353,834
0.7369667,826
0.7386333,915
0.7403,706
0.7419667,762
0.7436333,758
0.7453,845
0.7469667,875
0.7486333,733
0.7503,810
0.7519667,956
0.7536333,968
0.7553,770
0.7569667,886
0.7586333,850
0.7603,704
0.7619666,779
0.7636333,1017
0.7653,934
0.7669666,1095
0.7686333,997
0.7703,803
0.7719667,904
0.7736334,816
0.7753,784
0.7769667,854
0.7786334,820
0.7803,834
0.7819667,848
0.7836334,812
0.7853,748
0.7869667,697
0.7886333,679
0.7903,661
0.7919667,676
0.7936333,692
0.7953,796
0.7969667,852
0.7986333,790
0.8003,908
0.8019667,975
0.8036333,923
0.8053,870
0.8069667,918
0.8086333,923
0.8103,928
0.8119667,1003
0.8136333,973
0.8153,944
0.8169667,877
0.8186333,1060
0.8203,1026
0.8219666,1046
0.8236333,1026
0.8253,1012
0.8269666,998
0.8286333,1018
0.8303,1027
0.8319666,1119
0.8336333,829
0.8353,842
0.8369667,904
0.8386334,871
0.8403,916
0.8419667,776
0.8436334,910
0.8453,860
0.8469667,882
0.8486333,960
0.8503,948
0.8519667,908
0.8536333,911
0.8553,914
0.8569667,870
0.8586333,818
0.8603,822
0.8619667,827
0.8636333,829
0.8653,832
0.8669667,746
0.8686333,818
0.8703,854
0.8719667,806
0.8736333,790
0.8753,714
0.8769667,775
0.8786333,836
0.8803,1081
0.8819667,1288
0.8836333,1318
0.8853,1294
0.8869666,1263
0.8886333,1731
0.8903,1799
0.8919666,1417
0.8936333,1636
0.8953,1509
0.8969667,1474
0.8986334,1324
0.9003,1309
0.9019667,1602
0.9036334,1575
0.9053,1548
0.9069667,1543
0.9086334,1537
0.9103,1388
0.9119667,1462
0.9136333,1491
0.9153,1403
0.9169667,1356
0.9186333,1343
0.9203,1329
0.9219667,1319
0.9236333,1310
0.9253,1454
0.9269667,1568
0.9286333,1693
0.9303,1690
0.9319667,1625
0.9336333,1543
0.9353,1414
0.9369667,1419
0.9386333,1540
0.9403,1377
0.9419667,1662
0.9436333,1641
0.9453,1597
0.9469666,1568
0.9486333,1302
0.9503,1364
0.9519666,1198
0.9536333,1326
0.9553,1372
0.9569666,1428
0.9586333,1125
0.9603,1312
0.9619667,1379
0.9636334,1355
0.9653,992
0.9669667,1207
0.9686334,762
0.9703,1082
0.9719667,1028
0.9736333,965
0.9753,860
0.9769667,1064
0.9786333,917
0.9803,1084
0.9819667,876
0.9836333,1098
0.9853,926
0.9869667,963
0.9886333,993
0.9903,960
0.9919667,1046
0.9936333,748
0.9953,854
0.9969667,920
0.9986333,840
1.0003,760
1.001967,984
1.003633,950
1.0053,866
1.006967,1030
1.008633,784
1.0103,948
1.011967,1015
1.013633,927
1.0153,1019
1.016967,1032
1.018633,1002
1.0203,945
1.021967,884
1.023633,958
1.0253,902
1.026967,881
1.028633,836
1.0303,817
1.031967,883
1.033633,937
1.0353,744
1.036967,791
1.038633,765
1.0403,932
1.041967,1008
1.043633,883
1.0453,979
1.046967,1042
1.048633,805
1.0503,811
1.051967,723
1.053633,875
1.0553,809
1.056967,851
1.058633,893
1.0603,810
1.061967,867
1.063633,849
1.0653,749
1.066967,857
1.068633,861
1.0703,866
1.071967,859
1.073633,852
1.0753,885
1.076967,829
1.078633,836
1.0803,859
1.081967,929
1.083633,920
1.0853,831
1.086967,817
1.088633,844
1.0903,740
1.091967,685
1.093633,630
1.0953,935
1.096967,979
1.098633,1121
1.1003,751
1.101967,901
1.103633,849
1.1053,936
1.106967,974
1.108633,1012
1.1103,787
1.111967,818
1.113633,858
1.1153,669
1.116967,888
1.118633,913
1.1203,979
1.121967,903
1.123633,718
1.1253,897
1.126967,885
1.128633,806
1.1303,698
1.131967,892
1.133633,830
1.1353,976
1.136967,683
1.138633,856
1.1403,874
1.141967,838
1.143633,764
1.1453,870
1.146967,893
1.148633,709
1.1503,765
1.151967,736
1.153633,865
1.1553,731
1.156967,597
1.158633,873
1.1603,865
1.161967,866
1.163633,852
1.1653,712
1.166967,873
1.168633,755
1.1703,802
1.171967,926
1.173633,921
1.1753,878
1.176967,803
1.178633,841
1.1803,796
1.181967,828
1.183633,860
1.1853,892
1.186967,961
1.188633,750
1.1903,745
1.191967,862
1.193633,844
1.1953,826
1.196967,895
1.198633,775
