"SampleName","A2Rd2_01-18"
"Target Mass 1",
"Column Name","IA-3 (3um, 4.6X100)"
"Channel","QDa 1: SIR Ch2"
0.00195,736
0.003616667,553
0.005283333,823
0.00695,751
0.008616666,926
0.01028333,909
0.01195,1061
0.01361667,1010
0.01528333,959
0.01695,908
0.01861667,889
0.02028333,971
0.02195,1054
0.02361667,998
0.02528333,906
0.02695,931
0.02861667,979
0.03028333,854
0.03195,751
0.03361667,898
0.03528333,824
0.03695,1135
0.03861667,1127
0.04028333,1097
0.04195,1083
0.04361667,1068
0.04528333,871
0.04695,985
0.04861667,895
0.05028334,1001
0.05195,996
0.05361667,971
0.05528333,966
0.05695,962
0.05861667,722
0.06028333,870
0.06195,817
0.06361666,840
0.06528334,771
0.06695,979
0.06861667,1021
0.07028333,927
0.07195,937
0.07361667,989
0.07528333,777
0.07695,781
0.07861666,1095
0.08028334,992
0.08195,1014
0.08361667,970
0.08528333,953
0.08695,935
0.08861667,885
0.09028333,965
0.09195,936
0.09361666,907
0.09528334,694
0.09695,778
0.09861667,836
0.1002833,922
0.10195,1026
0.1036167,1024
0.1052833,930
0.10695,852
0.1086167,763
0.1102833,770
0.11195,803
0.1136167,898
0.1152833,932
0.11695,953
0.1186167,937
0.1202833,1106
0.12195,1107
0.1236167,938
0.1252833,836
0.12695,834
0.1286167,833
0.1302833,814
0.13195,796
0.1336167,1066
0.1352833,1031
0.13695,850
0.1386167,1073
0.1402833,1001
0.14195,1018
0.1436167,1039
0.1452833,855
0.14695,926
0.1486167,966
0.1502833,754
0.15195,1093
0.1536167,713
0.1552833,859
0.15695,798
0.1586167,869
0.1602833,794
0.16195,719
0.1636167,837
0.1652833,966
0.16695,1010
0.1686167,895
0.1702833,925
0.17195,1015
0.1736167,963
0.1752833,911
0.17695,915
0.1786167,864
0.1802833,863
0.18195,926
0.1836167,917
0.1852833,907
0.18695,931
0.1886167,928
0.1902833,925
0.19195,910
0.1936167,975
0.1952833,817
0.19695,840
0.1986167,998
0.2002833,978
0.20195,1033
0.2036167,967
0.2052833,814
0.20695,1124
0.2086167,988
0.2102833,790
0.21195,1182
0.2136167,985
0.2152833,822
0.21695,1174
0.2186167,977
0.2202833,1002
0.22195,1002
0.2236167,1015
0.2252833,1028
0.22695,1067
0.2286167,1045
0.2302833,1022
0.23195,1140
0.2336167,1227
0.2352833,1210
0.23695,1193
0.2386167,1069
0.2402833,1084
0.24195,1308
0.2436167,1253
0.2452833,1274
0.24695,1113
0.2486167,1361
0.2502833,1396
0.25195,1161
0.2536167,1077
0.2552833,982
0.25695,1032
0.2586167,1139
0.2602833,1246
0.26195,1271
0.2636167,1309
0.2652833,1286
0.26695,986
0.2686167,1062
0.2703,1094
0.2719667,999
0.2736333,902
0.2752833,1106
0.27695,1088
0.2786167,1070
0.2803,1134
0.28195,907
0.2836167,1120
0.2852833,1102
0.28695,1074
0.2886167,1085
0.2902833,1075
0.29195,939
0.2936167,1216
0.2952833,1107
0.29695,972
0.2986333,1085
0.3002833,1267
0.30195,1259
0.3036167,985
0.3052833,1091
0.30695,1260
0.3086167,1188
0.3102833,1170
0.31195,1168
0.3136167,1189
0.3153,1211
0.31695,999
0.3186167,1182
0.3203,992
0.32195,1067
0.3236167,1168
0.3252833,1322
0.32695,1340
0.3286167,1154
0.3302833,1453
0.33195,1460
0.3336333,1240
0.3352833,1251
0.33695,1360
0.3386167,1388
0.3402833,1110
0.34195,1468
0.3436167,1359
0.3452833,1296
0.34695,1368
0.3486167,1352
0.3503,1258
0.35195,1135
0.3536167,1576
0.3552833,1631
0.3569667,1446
0.3586167,1510
0.3602833,1469
0.36195,1767
0.3636167,3886
0.3653,4831
0.3669667,4982
0.3686333,4823
0.3703,3698
0.3719667,3427
0.3736167,2810
0.3752833,2187
0.37695,1788
0.3786167,1485
0.3802833,1096
0.38195,1132
0.3836333,902
0.3853,739
0.38695,598
0.3886333,582
0.3902833,548
0.3919667,578
0.3936167,593
0.3953,608
0.39695,851
0.3986333,1069
0.4003,955
0.4019667,1215
0.4036333,1243
0.4053,1270
0.4069667,982
0.4086167,1047
0.4103,1017
0.4119667,1123
0.4136167,895
0.4153,1047
0.4169667,921
0.4186333,1119
0.4203,1078
0.4219667,933
0.4236333,917
0.4253,1141
0.4269667,1040
0.4286333,1026
0.4303,1068
0.4319667,1109
0.4336333,1123
0.4353,1249
0.4369667,1281
0.4386333,1135
0.4403,1318
0.4419667,1171
0.4436333,1491
0.4453,1428
0.4469667,1471
0.4486333,1770
0.4503,1778
0.4519667,1513
0.4536333,1955
0.4553,1893
0.4569667,1743
0.4586333,1721
0.4603,1769
0.4619667,1817
0.4636333,1937
0.4653,1908
0.4669667,1861
0.4686333,1838
0.4703,1777
0.4719667,1712
0.4736333,1620
0.4753,1810
0.4769667,1629
0.4786333,1707
0.4803,1384
0.4819667,1561
0.4836333,1272
0.4853,1200
0.4869667,1337
0.4886333,1236
0.4903,1179
0.4919667,1222
0.4936333,1295
0.4953,1153
0.4969667,1011
0.4986333,1043
0.5003,1208
0.5019667,1087
0.5036333,987
0.5053,1141
0.5069667,1088
0.5086333,1027
0.5103,1070
0.5119666,1011
0.5136333,785
0.5153,976
0.5169666,935
0.5186333,894
0.5203,935
0.5219667,929
0.5236334,923
0.5253,993
0.5269667,1010
0.5286334,1028
0.5303,1006
0.5319667,984
0.5336334,1006
0.5353,1027
0.5369667,1136
0.5386333,1162
0.5403,1132
0.5419667,1231
0.5436333,1173
0.5453,1114
0.5469667,1082
0.5486333,969
0.5503,1055
0.5519667,1092
0.5536333,1227
0.5553,1148
0.5569667,1111
0.5586333,1064
0.5603,1139
0.5619667,830
0.5636333,916
0.5653,909
0.5669667,891
0.5686333,873
0.5703,902
0.5719666,930
0.5736333,1015
0.5753,1121
0.5769666,1104
0.5786333,972
0.5803,986
0.5819666,1088
0.5836333,1223
0.5853,1161
0.5869667,1055
0.5886334,1022
0.5903,1014
0.5919667,1160
0.5936334,1214
0.5953,1136
0.5969667,1030
0.5986333,941
0.6003,996
0.6019667,934
0.6036333,871
0.6053,869
0.6069667,867
0.6086333,925
0.6103,983
0.6119667,1018
0.6136333,1045
0.6153,1072
0.6169667,900
0.6186333,884
0.6203,1247
0.6219667,1331
0.6236333,1021
0.6253,1029
0.6269667,1143
0.6286333,1251
0.6303,1203
0.6319667,1155
0.6336333,1203
0.6353,1313
0.6369666,1250
0.6386333,1187
0.6403,1236
0.6419666,1284
0.6436333,1261
0.6453,1218
0.6469667,1235
0.6486334,1037
0.6503,1082
0.6519667,1127
0.6536334,1178
0.6553,934
0.6569667,1189
0.6586334,1144
0.6603,1079
0.6619667,1027
0.6636333,903
0.6653,1141
0.6669667,1063
0.6686333,958
0.6703,1110
0.6719667,1064
0.6736333,1027
0.6753,936
0.6769667,842
0.6786333,865
0.6803,904
0.6819667,943
0.6836333,1044
0.6853,1002
0.6869667,1042
0.6886333,1149
0.6903,1245
0.6919667,1310
0.6936333,1375
0.6953,1913
0.6969666,2085
0.6986333,2380
0.7003,2915
0.7019666,3217
0.7036333,3608
0.7053,4557
0.7069666,4522
0.7086333,4890
0.7103,5745
0.7119667,5482
0.7136334,5641
0.7153,6208
0.7169667,6070
0.7186334,5714
0.7203,5479
0.7219667,5727
0.7236333,4827
0.7253,4559
0.7269667,4338
0.7286333,3927
0.7303,3336
0.7319667,2489
0.7336333,2320
0.7353,2164
0.7369667,1962
0.7386333,1730
0.7403,1747
0.7419667,1591
0.7436333,1428
0.7453,1328
0.7469667,1258
0.7486333,1267
0.7503,1366
0.7519667,1220
0.7536333,1255
0.7553,1303
0.7569667,963
0.7586333,1272
0.7603,1208
0.7619666,980
0.7636333,987
0.7653,972
0.7669666,973
0.7686333,973
0.7703,960
0.7719667,989
0.7736334,982
0.7753,975
0.7769667,1027
0.7786334,976
0.7803,926
0.7819667,1126
0.7836334,1093
0.7853,965
0.7869667,1064
0.7886333,1133
0.7903,1177
0.7919667,1221
0.7936333,1617
0.7953,1617
0.7969667,1531
0.7986333,2037
0.8003,2377
0.8019667,2564
0.8036333,3295
0.8053,3453
0.8069667,4245
0.8086333,4885
0.8103,5205
0.8119667,6215
0.8136333,6185
0.8153,7150
0.8169667,7098
0.8186333,7111
0.8203,7333
0.8219666,6770
0.8236333,7457
0.8253,6026
0.8269666,5696
0.8286333,5445
0.8303,4744
0.8319666,4452
0.8336333,3870
0.8353,3557
0.8369667,3010
0.8386334,2769
0.8403,2430
0.8419667,2433
0.8436334,1849
0.8453,1669
0.8469667,1765
0.8486333,1496
0.8503,1850
0.8519667,1413
0.8536333,1360
0.8553,1616
0.8569667,1185
0.8586333,1643
0.8603,1536
0.8619667,1447
0.8636333,1431
0.8653,1586
0.8669667,1922
0.8686333,1836
0.8703,2008
0.8719667,2040
0.8736333,2114
0.8753,2188
0.8769667,2154
0.8786333,2255
0.8803,2375
0.8819667,1668
0.8836333,2127
0.8853,2122
0.8869666,1969
0.8886333,1851
0.8903,2069
0.8919666,1932
0.8936333,1740
0.8953,1626
0.8969667,2058
0.8986334,1943
0.9003,1647
0.9019667,1715
0.9036334,1606
0.9053,1731
0.9069667,1668
0.9086334,1605
0.9103,1560
0.9119667,1515
0.9136333,1611
0.9153,1706
0.9169667,1674
0.9186333,1617
0.9203,1560
0.9219667,1715
0.9236333,1752
0.9253,1789
0.9269667,1745
0.9286333,1700
0.9303,1841
0.9319667,1489
0.9336333,1768
0.9353,1667
0.9369667,1785
0.9386333,1693
0.9403,1635
0.9419667,1569
0.9436333,1679
0.9453,1681
0.9469666,1533
0.9486333,1765
0.9503,1639
0.9519666,1441
0.9536333,1435
0.9553,1364
0.9569666,1294
0.9586333,1255
0.9603,1331
0.9619667,1437
0.9636334,1588
0.9653,1548
0.9669667,1551
0.9686334,1559
0.9703,1355
0.9719667,2046
0.9736333,1880
0.9753,2600
0.9769667,2496
0.9786333,2674
0.9803,3794
0.9819667,4331
0.9836333,4567
0.9853,5141
0.9869667,6525
0.9886333,6974
0.9903,8856
0.9919667,10268
0.9936333,11460
0.9953,12528
0.9969667,14336
0.9986333,14864
1.0003,17188
1.001967,18780
1.003633,18048
1.0053,18428
1.006967,17444
1.008633,17084
1.0103,17340
1.011967,16156
1.013633,15304
1.0153,14000
1.016967,13260
1.018633,12828
1.0203,10564
1.021967,10116
1.023633,8692
1.0253,7595
1.026967,7311
1.028633,6137
1.0303,5401
1.031967,5393
1.033633,4440
1.0353,4246
1.036967,3814
1.038633,3520
1.0403,3454
1.041967,3009
1.043633,2926
1.0453,3179
1.046967,3130
1.048633,3069
1.0503,3013
1.051967,2628
1.053633,2992
1.0553,2437
1.056967,2580
1.058633,2269
1.0603,2656
1.061967,2477
1.063633,2235
1.0653,2426
1.066967,2019
1.068633,2076
1.0703,2705
1.071967,2468
1.073633,2402
1.0753,2615
1.076967,2784
1.078633,2935
1.0803,3054
1.081967,3267
1.083633,3898
1.0853,4009
1.086967,4606
1.088633,4686
1.0903,5018
1.091967,5852
1.093633,5758
1.0953,7079
1.096967,6722
1.098633,6979
1.1003,7407
1.101967,7976
1.103633,7926
1.1053,7582
1.106967,6853
1.108633,7547
1.1103,7650
1.111967,6828
1.113633,6626
1.1153,6841
1.116967,5976
1.118633,5363
1.1203,5498
1.121967,5093
1.123633,4791
1.1253,4208
1.126967,4329
1.128633,3635
1.1303,3334
1.131967,3454
1.133633,3472
1.1353,2601
1.136967,2498
1.138633,2424
1.1403,2085
1.141967,2069
1.143633,1992
1.1453,2272
1.146967,1710
1.148633,1904
1.1503,1874
1.151967,1632
1.153633,1610
1.1553,1606
1.156967,1435
1.158633,1464
1.1603,1459
1.161967,1387
1.163633,1442
1.1653,1497
1.166967,1514
1.168633,1446
1.1703,1453
1.171967,1357
1.173633,1381
1.1753,1484
1.176967,1278
1.178633,1318
1.1803,1264
1.181967,1043
1.183633,1269
1.1853,1262
1.186967,1160
1.188633,1059
1.1903,1209
1.191967,989
1.193633,1249
1.1953,1207
1.196967,1187
1.198633,1141
