"SampleName","A2Rd2_01-76"
"Target Mass 1",
"Column Name","IA-3 (3um, 4.6X100)"
"Channel","QDa 1: SIR Ch2"
0.00195,501
0.003616667,716
0.005283333,782
0.00695,787
0.008616666,813
0.01028333,851
0.01195,890
0.01361667,902
0.01528333,891
0.01695,881
0.01861667,872
0.02028333,863
0.02195,864
0.02361667,847
0.02528333,778
0.02695,710
0.02861667,762
0.03028333,814
0.03195,939
0.03361667,941
0.03528333,1005
0.03695,899
0.03861667,894
0.04028333,876
0.04195,936
0.04361667,848
0.04528333,760
0.04695,1018
0.04861667,932
0.05028334,914
0.05195,910
0.05361667,905
0.05528333,891
0.05695,773
0.05861667,755
0.06028333,1039
0.06195,1034
0.06361666,1066
0.06528334,1058
0.06695,686
0.06861667,874
0.07028333,916
0.07195,942
0.07361667,904
0.07528333,981
0.07695,718
0.07861666,919
0.08028334,847
0.08195,900
0.08361667,1030
0.08528333,1036
0.08695,723
0.08861667,844
0.09028333,716
0.09195,829
0.09361666,935
0.09528334,809
0.09695,683
0.09861667,655
0.1002833,715
0.10195,774
0.1036167,832
0.1052833,889
0.10695,812
0.1086167,718
0.1102833,856
0.11195,679
0.1136167,886
0.1152833,920
0.11695,861
0.1186167,793
0.1202833,720
0.12195,757
0.1236167,795
0.1252833,857
0.12695,895
0.1286167,848
0.1302833,861
0.13195,644
0.1336167,755
0.1352833,927
0.13695,867
0.1386167,747
0.1402833,744
0.14195,741
0.1436167,788
0.1452833,810
0.14695,798
0.1486167,764
0.1502833,838
0.15195,804
0.1536167,768
0.1552833,802
0.15695,837
0.1586167,865
0.1602833,824
0.16195,783
0.1636167,736
0.1652833,726
0.16695,717
0.1686167,737
0.1702833,811
0.17195,800
0.1736167,789
0.1752833,883
0.17695,863
0.1786167,758
0.1802833,737
0.18195,716
0.1836167,783
0.1852833,767
0.18695,739
0.1886167,710
0.1902833,781
0.19195,782
0.1936167,784
0.1952833,756
0.19695,784
0.1986167,765
0.2002833,746
0.20195,918
0.2036167,918
0.2052833,679
0.20695,836
0.2086167,809
0.2102833,977
0.21195,972
0.2136167,992
0.2152833,882
0.21695,1071
0.2186167,1132
0.2202833,1099
0.22195,1154
0.2236167,944
0.2252833,1003
0.22695,889
0.2286167,1145
0.2302833,1132
0.23195,1030
0.2336167,1012
0.2352833,994
0.23695,1217
0.2386167,1263
0.2402833,1156
0.24195,1137
0.2436167,1279
0.2452833,1219
0.24695,1115
0.2486167,1206
0.2502833,1098
0.25195,1217
0.2536167,1102
0.2552833,1129
0.25695,937
0.2586167,1068
0.2602833,1063
0.26195,1038
0.2636333,1074
0.2652833,1111
0.26695,1124
0.2686167,938
0.2702833,1085
0.27195,1031
0.2736167,1101
0.2752833,956
0.27695,1056
0.2786167,1026
0.2803,943
0.28195,834
0.2836167,800
0.2852833,863
0.28695,926
0.2886167,895
0.2902833,877
0.29195,956
0.2936167,1015
0.2952833,1074
0.2969667,1178
0.2986333,1165
0.3002833,981
0.30195,1108
0.3036167,991
0.3052833,1142
0.30695,982
0.3086167,1035
0.3102833,1088
0.31195,1017
0.3136333,1125
0.3153,1105
0.31695,1086
0.3186167,1176
0.3202833,1267
0.3219667,1296
0.3236167,1128
0.3252833,1212
0.32695,1213
0.3286167,1058
0.3303,1246
0.33195,1216
0.3336333,1098
0.3352833,1099
0.33695,1086
0.3386333,1248
0.3402833,1268
0.34195,1297
0.3436167,1305
0.3452833,1388
0.3469667,1406
0.3486167,1333
0.3503,1315
0.35195,1118
0.3536167,1258
0.3553,1324
0.35695,1241
0.3586333,1269
0.3603,1334
0.36195,1320
0.3636333,1843
0.3652833,3433
0.36695,3621
0.3686333,4486
0.3702833,4886
0.3719667,4916
0.3736167,4354
0.3753,5090
0.3769667,4377
0.3786167,3848
0.3803,3344
0.38195,2914
0.3836167,2337
0.3853,1673
0.38695,1716
0.3886333,1355
0.3902833,1068
0.3919667,893
0.3936333,531
0.3953,747
0.3969667,585
0.3986333,500
0.4003,529
0.40195,504
0.4036333,514
0.4053,564
0.4069667,531
0.4086333,498
0.4103,601
0.4119667,615
0.4136333,640
0.4153,654
0.4169667,790
0.4186333,776
0.4203,762
0.4219667,788
0.4236333,777
0.4253,766
0.4269667,571
0.4286333,761
0.4303,916
0.4319667,794
0.4336333,672
0.4353,864
0.4369667,840
0.4386333,1077
0.4403,985
0.4419667,1123
0.4436333,935
0.4453,973
0.4469667,1010
0.4486333,1261
0.4503,1185
0.4519667,1089
0.4536333,1212
0.4553,1268
0.4569667,1319
0.4586333,1248
0.4603,1254
0.4619667,1261
0.4636333,1426
0.4653,1465
0.4669667,1283
0.4686333,1273
0.4703,1413
0.4719667,1431
0.4736333,1459
0.4753,1489
0.4769667,1305
0.4786333,1143
0.4803,1307
0.4819667,1225
0.4836333,1142
0.4853,1162
0.4869667,1161
0.4886333,1000
0.4903,1049
0.4919667,982
0.4936333,1084
0.4953,1048
0.4969667,1011
0.4986333,965
0.5003,954
0.5019667,995
0.5036333,1036
0.5053,1002
0.5069667,968
0.5086333,929
0.5103,954
0.5119666,710
0.5136333,811
0.5153,913
0.5169666,861
0.5186333,810
0.5203,911
0.5219667,793
0.5236334,800
0.5253,806
0.5269667,809
0.5286334,813
0.5303,976
0.5319667,888
0.5336334,800
0.5353,1088
0.5369667,1241
0.5386333,1062
0.5403,1015
0.5419667,1024
0.5436333,991
0.5453,1035
0.5469667,1049
0.5486333,909
0.5503,972
0.5519667,954
0.5536333,978
0.5553,921
0.5569667,1034
0.5586333,750
0.5603,921
0.5619667,970
0.5636333,963
0.5653,858
0.5669667,962
0.5686333,942
0.5703,1004
0.5719666,933
0.5736333,862
0.5753,897
0.5769666,718
0.5786333,820
0.5803,1134
0.5819666,1091
0.5836333,877
0.5853,994
0.5869667,990
0.5886334,967
0.5903,943
0.5919667,976
0.5936334,873
0.5953,908
0.5969667,909
0.5986333,1024
0.6003,1062
0.6019667,999
0.6036333,931
0.6053,1011
0.6069667,790
0.6086333,996
0.6103,1148
0.6119667,1028
0.6136333,881
0.6153,831
0.6169667,893
0.6186333,838
0.6203,815
0.6219667,781
0.6236333,747
0.6253,778
0.6269667,809
0.6286333,850
0.6303,890
0.6319667,911
0.6336333,645
0.6353,964
0.6369666,864
0.6386333,910
0.6403,783
0.6419666,897
0.6436333,834
0.6453,950
0.6469667,905
0.6486334,860
0.6503,842
0.6519667,874
0.6536334,906
0.6553,807
0.6569667,708
0.6586334,726
0.6603,991
0.6619667,1030
0.6636333,876
0.6653,768
0.6669667,830
0.6686333,786
0.6703,747
0.6719667,743
0.6736333,862
0.6753,865
0.6769667,869
0.6786333,890
0.6803,984
0.6819667,974
0.6836333,914
0.6853,794
0.6869667,1033
0.6886333,906
0.6903,974
0.6919667,994
0.6936333,1015
0.6953,1038
0.6969666,1038
0.6986333,1159
0.7003,1281
0.7019666,1319
0.7036333,1169
0.7053,1318
0.7069666,1302
0.7086333,1327
0.7103,1475
0.7119667,1319
0.7136334,1163
0.7153,1284
0.7169667,1319
0.7186334,1326
0.7203,1193
0.7219667,1205
0.7236333,1227
0.7253,1223
0.7269667,1220
0.7286333,900
0.7303,1111
0.7319667,1034
0.7336333,1208
0.7353,1058
0.7369667,1006
0.7386333,816
0.7403,864
0.7419667,1023
0.7436333,932
0.7453,1063
0.7469667,841
0.7486333,1095
0.7503,809
0.7519667,883
0.7536333,853
0.7553,911
0.7569667,710
0.7586333,935
0.7603,790
0.7619666,924
0.7636333,836
0.7653,665
0.7669666,828
0.7686333,867
0.7703,924
0.7719667,862
0.7736334,641
0.7753,882
0.7769667,820
0.7786334,1018
0.7803,944
0.7819667,870
0.7836334,990
0.7853,870
0.7869667,889
0.7886333,909
0.7903,1105
0.7919667,1118
0.7936333,1130
0.7953,1242
0.7969667,1286
0.7986333,1451
0.8003,1562
0.8019667,1623
0.8036333,1482
0.8053,1636
0.8069667,1719
0.8086333,1790
0.8103,1758
0.8119667,1725
0.8136333,1841
0.8153,1755
0.8169667,1669
0.8186333,1815
0.8203,1833
0.8219666,1852
0.8236333,1889
0.8253,1834
0.8269666,1778
0.8286333,1958
0.8303,1425
0.8319666,1399
0.8336333,1430
0.8353,1483
0.8369667,1096
0.8386334,1297
0.8403,1316
0.8419667,1068
0.8436334,1155
0.8453,1144
0.8469667,1091
0.8486333,736
0.8503,1092
0.8519667,931
0.8536333,897
0.8553,972
0.8569667,804
0.8586333,863
0.8603,847
0.8619667,887
0.8636333,927
0.8653,892
0.8669667,856
0.8686333,881
0.8703,906
0.8719667,828
0.8736333,931
0.8753,747
0.8769667,802
0.8786333,1002
0.8803,1052
0.8819667,1021
0.8836333,1065
0.8853,1171
0.8869666,1168
0.8886333,1067
0.8903,926
0.8919666,1221
0.8936333,1407
0.8953,1426
0.8969667,1319
0.8986334,1283
0.9003,1239
0.9019667,1178
0.9036334,1186
0.9053,1156
0.9069667,1215
0.9086334,1193
0.9103,1171
0.9119667,1167
0.9136333,1099
0.9153,1242
0.9169667,1232
0.9186333,1272
0.9203,1224
0.9219667,1177
0.9236333,1218
0.9253,1097
0.9269667,1021
0.9286333,1045
0.9303,1069
0.9319667,1123
0.9336333,1062
0.9353,1001
0.9369667,1145
0.9386333,1112
0.9403,1221
0.9419667,1136
0.9436333,995
0.9453,1021
0.9469666,1047
0.9486333,1117
0.9503,1084
0.9519666,1136
0.9536333,1138
0.9553,1140
0.9569666,1020
0.9586333,969
0.9603,959
0.9619667,1004
0.9636334,979
0.9653,1003
0.9669667,1007
0.9686334,1069
0.9703,785
0.9719667,1090
0.9736333,1060
0.9753,959
0.9769667,1058
0.9786333,1158
0.9803,1267
0.9819667,1231
0.9836333,1063
0.9853,1188
0.9869667,1218
0.9886333,1441
0.9903,1331
0.9919667,1530
0.9936333,1597
0.9953,1396
0.9969667,1460
0.9986333,1392
1.0003,1625
1.001967,1584
1.003633,1576
1.0053,1569
1.006967,1590
1.008633,1611
1.0103,1644
1.011967,1660
1.013633,1676
1.0153,1656
1.016967,1462
1.018633,1480
1.0203,1805
1.021967,1809
1.023633,1574
1.0253,1486
1.026967,1274
1.028633,1531
1.0303,1295
1.031967,1346
1.033633,1059
1.0353,1160
1.036967,1265
1.038633,1097
1.0403,1013
1.041967,949
1.043633,1176
1.0453,1219
1.046967,1191
1.048633,1046
1.0503,1073
1.051967,1053
1.053633,1008
1.0553,1042
1.056967,977
1.058633,916
1.0603,942
1.061967,968
1.063633,946
1.0653,970
1.066967,995
1.068633,1035
1.0703,898
1.071967,972
1.073633,1023
1.0753,1037
1.076967,1058
1.078633,1063
1.0803,1069
1.081967,1052
1.083633,1104
1.0853,976
1.086967,1065
1.088633,1071
1.0903,1077
1.091967,1084
1.093633,1091
1.0953,1091
1.096967,1091
1.098633,1108
1.1003,1124
1.101967,1147
1.103633,1170
1.1053,1159
1.106967,1182
1.108633,1160
1.1103,1139
1.111967,1104
1.113633,999
1.1153,1001
1.116967,914
1.118633,1013
1.1203,1018
1.121967,1024
1.123633,1032
1.1253,1034
1.126967,1036
1.128633,1010
1.1303,984
1.131967,1008
1.133633,978
1.1353,945
1.136967,988
1.138633,967
1.1403,946
1.141967,913
1.143633,914
1.1453,915
1.146967,851
1.148633,787
1.1503,835
1.151967,883
1.153633,784
1.1553,779
1.156967,884
1.158633,856
1.1603,829
1.161967,714
1.163633,882
1.1653,800
1.166967,764
1.168633,826
1.1703,781
1.171967,736
1.173633,745
1.1753,768
1.176967,790
1.178633,873
1.1803,843
1.181967,808
1.183633,740
1.1853,872
1.186967,851
1.188633,788
1.1903,807
1.191967,809
1.193633,812
1.1953,786
1.196967,837
1.198633,866
