"SampleName","A2Rd2_01-38"
"Target Mass 1",
"Column Name","IA-3 (3um, 4.6X100)"
"Channel","QDa 1: SIR Ch2"
0.00195,557
0.003616667,761
0.005283333,787
0.00695,891
0.008616666,903
0.01028333,898
0.01195,909
0.01361667,920
0.01528333,878
0.01695,836
0.01861667,940
0.02028333,952
0.02195,869
0.02361667,908
0.02528333,988
0.02695,987
0.02861667,1059
0.03028333,1057
0.03195,904
0.03361667,796
0.03528333,895
0.03695,944
0.03861667,961
0.04028333,802
0.04195,1007
0.04361667,932
0.04528333,922
0.04695,832
0.04861667,854
0.05028334,1023
0.05195,1001
0.05361667,849
0.05528333,888
0.05695,927
0.05861667,843
0.06028333,758
0.06195,768
0.06361666,847
0.06528334,820
0.06695,793
0.06861667,707
0.07028333,620
0.07195,737
0.07361667,853
0.07528333,956
0.07695,947
0.07861666,923
0.08028334,849
0.08195,983
0.08361667,820
0.08528333,846
0.08695,914
0.08861667,901
0.09028333,977
0.09195,900
0.09361666,824
0.09528334,835
0.09695,824
0.09861667,813
0.1002833,851
0.10195,957
0.1036167,912
0.1052833,867
0.10695,749
0.1086167,890
0.1102833,898
0.11195,923
0.1136167,892
0.1152833,868
0.11695,903
0.1186167,865
0.1202833,826
0.12195,927
0.1236167,896
0.1252833,890
0.12695,914
0.1286167,937
0.1302833,1070
0.13195,658
0.1336167,1005
0.1352833,965
0.13695,886
0.1386167,990
0.1402833,828
0.14195,858
0.1436167,929
0.1452833,895
0.14695,861
0.1486167,1031
0.1502833,1027
0.15195,1042
0.1536167,864
0.1552833,995
0.15695,811
0.1586167,951
0.1602833,1048
0.16195,1128
0.1636167,857
0.1652833,735
0.16695,919
0.1686167,970
0.1702833,806
0.17195,828
0.1736167,900
0.1752833,868
0.17695,889
0.1786167,884
0.1802833,867
0.18195,849
0.1836167,960
0.1852833,932
0.18695,904
0.1886167,854
0.1902833,935
0.19195,951
0.1936167,967
0.1952833,974
0.19695,981
0.1986167,883
0.2002833,1060
0.20195,1002
0.2036167,1069
0.2052833,1158
0.20695,878
0.2086167,918
0.2102833,853
0.21195,918
0.2136167,912
0.2152833,907
0.21695,925
0.2186167,943
0.2202833,891
0.22195,839
0.2236167,1096
0.2252833,1056
0.22695,1015
0.2286167,1160
0.2302833,1242
0.23195,1195
0.2336167,1148
0.2352833,1096
0.23695,1169
0.2386167,1243
0.2402833,1236
0.24195,1280
0.2436167,1013
0.2453,1335
0.24695,1208
0.2486167,1415
0.2502833,1220
0.25195,1226
0.2536167,1245
0.2552833,1149
0.25695,1214
0.2586167,1256
0.2602833,1106
0.26195,993
0.2636333,1019
0.2652833,882
0.26695,960
0.2686167,1039
0.2702833,1089
0.27195,1105
0.2736167,917
0.2752833,1103
0.27695,1019
0.2786333,1196
0.2803,1156
0.28195,1192
0.2836167,944
0.2852833,1215
0.28695,1037
0.2886167,908
0.2902833,880
0.29195,1166
0.2936167,1252
0.2952833,1256
0.29695,1098
0.2986333,1252
0.3002833,1350
0.30195,1128
0.3036167,1195
0.3052833,1097
0.30695,1111
0.3086167,1137
0.3102833,1163
0.31195,1258
0.3136167,1238
0.3153,1219
0.31695,1171
0.3186167,1123
0.3202833,1345
0.32195,1389
0.3236167,1183
0.3252833,1358
0.32695,1357
0.3286167,1318
0.3302833,1280
0.33195,1178
0.3336333,1320
0.3353,1311
0.33695,1422
0.3386167,1390
0.3402833,1187
0.34195,1355
0.3436167,1249
0.3452833,1309
0.34695,1369
0.3486167,1292
0.3503,1377
0.35195,1332
0.3536333,1450
0.3553,1448
0.35695,1446
0.3586167,1274
0.3602833,1385
0.3619667,1594
0.3636167,3128
0.3652833,4481
0.36695,5752
0.3686333,6181
0.3703,6191
0.3719667,5065
0.3736167,4820
0.3753,3312
0.37695,2921
0.3786333,2285
0.3802833,1533
0.3819667,1082
0.3836167,1030
0.3853,973
0.3869667,613
0.3886333,865
0.3902833,673
0.3919667,637
0.3936167,615
0.3953,559
0.39695,614
0.3986333,669
0.4002833,855
0.4019667,1022
0.4036333,1111
0.4053,1032
0.4069667,984
0.4086167,1072
0.4103,1074
0.4119667,1077
0.4136333,1213
0.4153,1184
0.4169667,962
0.4186333,983
0.4203,1135
0.4219667,1099
0.4236333,1000
0.4253,1152
0.4269667,1237
0.4286333,1156
0.4303,1131
0.4319667,1227
0.4336333,1280
0.4353,1243
0.4369667,1347
0.4386333,1371
0.4403,1394
0.4419667,1452
0.4436333,1537
0.4453,1515
0.4469667,1494
0.4486333,1780
0.4503,1766
0.4519667,1624
0.4536333,1796
0.4553,1806
0.4569667,1815
0.4586333,1993
0.4603,2171
0.4619667,2447
0.4636333,2248
0.4653,2289
0.4669667,2457
0.4686333,2050
0.4703,1851
0.4719667,2033
0.4736333,1936
0.4753,1820
0.4769667,2094
0.4786333,2012
0.4803,1839
0.4819667,1661
0.4836333,1752
0.4853,1683
0.4869667,1464
0.4886333,1559
0.4903,1560
0.4919667,1561
0.4936333,1537
0.4953,1449
0.4969667,1314
0.4986333,1380
0.5003,1365
0.5019667,1350
0.5036333,1275
0.5053,1167
0.5069667,1159
0.5086333,1267
0.5103,1085
0.5119666,1224
0.5136333,1186
0.5153,956
0.5169666,1099
0.5186333,1112
0.5203,1125
0.5219667,1165
0.5236334,1170
0.5253,1217
0.5269667,1194
0.5286334,1171
0.5303,1238
0.5319667,1215
0.5336334,1192
0.5353,1385
0.5369667,1279
0.5386333,1173
0.5403,1203
0.5419667,1225
0.5436333,1098
0.5453,1135
0.5469667,1181
0.5486333,1166
0.5503,1152
0.5519667,1233
0.5536333,1181
0.5553,1130
0.5569667,1057
0.5586333,1068
0.5603,1282
0.5619667,1266
0.5636333,997
0.5653,846
0.5669667,932
0.5686333,1009
0.5703,916
0.5719666,1088
0.5736333,1034
0.5753,980
0.5769666,986
0.5786333,941
0.5803,1009
0.5819666,1077
0.5836333,1177
0.5853,1120
0.5869667,1141
0.5886334,975
0.5903,972
0.5919667,1120
0.5936334,1214
0.5953,1228
0.5969667,1137
0.5986333,1163
0.6003,1050
0.6019667,1120
0.6036333,1191
0.6053,997
0.6069667,1138
0.6086333,1041
0.6103,973
0.6119667,1145
0.6136333,1103
0.6153,989
0.6169667,1099
0.6186333,1110
0.6203,1121
0.6219667,941
0.6236333,1014
0.6253,963
0.6269667,902
0.6286333,1013
0.6303,1085
0.6319667,1168
0.6336333,1033
0.6353,897
0.6369666,1194
0.6386333,744
0.6403,941
0.6419666,1135
0.6436333,1126
0.6453,956
0.6469667,1028
0.6486334,910
0.6503,995
0.6519667,880
0.6536334,1092
0.6553,1072
0.6569667,1002
0.6586334,1134
0.6603,1082
0.6619667,1076
0.6636333,996
0.6653,861
0.6669667,1106
0.6686333,1044
0.6703,845
0.6719667,884
0.6736333,958
0.6753,889
0.6769667,807
0.6786333,1060
0.6803,1091
0.6819667,1071
0.6836333,928
0.6853,884
0.6869667,1012
0.6886333,682
0.6903,852
0.6919667,800
0.6936333,872
0.6953,880
0.6969666,900
0.6986333,879
0.7003,858
0.7019666,983
0.7036333,740
0.7053,894
0.7069666,779
0.7086333,933
0.7103,863
0.7119667,871
0.7136334,809
0.7153,864
0.7169667,918
0.7186334,976
0.7203,1017
0.7219667,1058
0.7236333,1032
0.7253,1043
0.7269667,963
0.7286333,1031
0.7303,859
0.7319667,957
0.7336333,1081
0.7353,857
0.7369667,894
0.7386333,733
0.7403,925
0.7419667,885
0.7436333,904
0.7453,917
0.7469667,861
0.7486333,805
0.7503,911
0.7519667,902
0.7536333,893
0.7553,805
0.7569667,838
0.7586333,911
0.7603,984
0.7619666,937
0.7636333,890
0.7653,687
0.7669666,1005
0.7686333,836
0.7703,859
0.7719667,946
0.7736334,934
0.7753,853
0.7769667,818
0.7786334,784
0.7803,830
0.7819667,887
0.7836334,964
0.7853,1075
0.7869667,986
0.7886333,898
0.7903,894
0.7919667,913
0.7936333,931
0.7953,809
0.7969667,884
0.7986333,896
0.8003,907
0.8019667,896
0.8036333,885
0.8053,1015
0.8069667,1015
0.8086333,1004
0.8103,1054
0.8119667,924
0.8136333,931
0.8153,938
0.8169667,943
0.8186333,1004
0.8203,1047
0.8219666,1065
0.8236333,1014
0.8253,1028
0.8269666,722
0.8286333,987
0.8303,1125
0.8319666,973
0.8336333,900
0.8353,958
0.8369667,887
0.8386334,817
0.8403,947
0.8419667,922
0.8436334,1068
0.8453,1051
0.8469667,996
0.8486333,861
0.8503,1068
0.8519667,1059
0.8536333,818
0.8553,1004
0.8569667,1019
0.8586333,797
0.8603,885
0.8619667,1224
0.8636333,1307
0.8653,1579
0.8669667,1370
0.8686333,1377
0.8703,1694
0.8719667,1799
0.8736333,1561
0.8753,1302
0.8769667,1593
0.8786333,1632
0.8803,1600
0.8819667,1406
0.8836333,1456
0.8853,1457
0.8869666,1262
0.8886333,1414
0.8903,1359
0.8919666,1350
0.8936333,1401
0.8953,1401
0.8969667,1401
0.8986334,1491
0.9003,1458
0.9019667,1426
0.9036334,1396
0.9053,1367
0.9069667,1375
0.9086334,1382
0.9103,1469
0.9119667,1557
0.9136333,1586
0.9153,1615
0.9169667,1494
0.9186333,1433
0.9203,1433
0.9219667,1293
0.9236333,1486
0.9253,1637
0.9269667,1533
0.9286333,1482
0.9303,1444
0.9319667,1437
0.9336333,1443
0.9353,1450
0.9369667,1279
0.9386333,1448
0.9403,1338
0.9419667,1706
0.9436333,1640
0.9453,1119
0.9469666,1473
0.9486333,1315
0.9503,1046
0.9519666,1181
0.9536333,1187
0.9553,1246
0.9569666,1141
0.9586333,1141
0.9603,1141
0.9619667,1144
0.9636334,1148
0.9653,1071
0.9669667,1214
0.9686334,943
0.9703,1121
0.9719667,1046
0.9736333,988
0.9753,1189
0.9769667,943
0.9786333,974
0.9803,1009
0.9819667,943
0.9836333,878
0.9853,841
0.9869667,833
0.9886333,921
0.9903,906
0.9919667,891
0.9936333,932
0.9953,896
0.9969667,859
0.9986333,942
1.0003,884
1.001967,885
1.003633,886
1.0053,903
1.006967,919
1.008633,827
1.0103,988
1.011967,973
1.013633,1083
1.0153,1040
1.016967,887
1.018633,1094
1.0203,950
1.021967,985
1.023633,926
1.0253,867
1.026967,859
1.028633,918
1.0303,977
1.031967,939
1.033633,803
1.0353,924
1.036967,1017
1.038633,869
1.0403,1026
1.041967,912
1.043633,950
1.0453,915
1.046967,920
1.048633,924
1.0503,890
1.051967,837
1.053633,887
1.0553,980
1.056967,1069
1.058633,970
1.0603,906
1.061967,1044
1.063633,776
1.0653,941
1.066967,796
1.068633,809
1.0703,944
1.071967,852
1.073633,718
1.0753,987
1.076967,958
1.078633,835
1.0803,868
1.081967,786
1.083633,740
1.0853,857
1.086967,870
1.088633,908
1.0903,847
1.091967,980
1.093633,765
1.0953,1029
1.096967,923
1.098633,981
1.1003,896
1.101967,871
1.103633,883
1.1053,799
1.106967,994
1.108633,622
1.1103,760
1.111967,895
1.113633,813
1.1153,839
1.116967,865
1.118633,804
1.1203,744
1.121967,892
1.123633,934
1.1253,918
1.126967,1093
1.128633,1082
1.1303,959
1.131967,859
1.133633,769
1.1353,881
1.136967,910
1.138633,875
1.1403,968
1.141967,963
1.143633,924
1.1453,754
1.146967,695
1.148633,1031
1.1503,887
1.151967,815
1.153633,990
1.1553,906
1.156967,904
1.158633,857
1.1603,855
1.161967,925
1.163633,908
1.1653,891
1.166967,830
1.168633,857
1.1703,771
1.171967,825
1.173633,879
1.1753,844
1.176967,935
1.178633,945
1.1803,768
1.181967,872
1.183633,811
1.1853,886
1.186967,947
1.188633,1002
1.1903,881
1.191967,875
1.193633,781
1.1953,830
1.196967,789
1.198633,947
