"SampleName","A2Rd2_01-1"
"Target Mass 1",
"Column Name","IA-3 (3um, 4.6X100)"
"Channel","QDa 1: SIR Ch1"
0.00195,387
0.003616667,556
0.005283333,509
0.00695,535
0.008616666,521
0.01028333,572
0.01195,381
0.01361667,640
0.01528333,519
0.01695,480
0.01861667,440
0.02028333,491
0.02195,484
0.02361667,478
0.02528333,313
0.02695,516
0.02861667,376
0.03028333,432
0.03195,408
0.03361667,407
0.03528333,428
0.03695,450
0.03861667,460
0.04028333,430
0.04195,399
0.04361667,473
0.04528333,452
0.04695,431
0.04861667,420
0.05028334,437
0.05195,388
0.05361667,340
0.05528333,500
0.05695,472
0.05861667,389
0.06028333,492
0.06195,455
0.06361666,504
0.06528334,500
0.06695,471
0.06861667,442
0.07028333,454
0.07195,465
0.07361667,369
0.07528333,484
0.07695,408
0.07861666,297
0.08028334,340
0.08195,373
0.08361667,407
0.08528333,374
0.08695,467
0.08861667,439
0.09028333,482
0.09195,406
0.09361666,360
0.09528334,439
0.09695,425
0.09861667,455
0.1002833,440
0.10195,425
0.1036167,480
0.1052833,479
0.10695,459
0.1086167,439
0.1102833,365
0.11195,387
0.1136167,409
0.1152833,425
0.11695,440
0.1186167,445
0.1202833,451
0.12195,379
0.1236167,415
0.1252833,452
0.12695,508
0.1286167,569
0.1302833,515
0.13195,378
0.1336167,506
0.1352833,429
0.13695,532
0.1386167,448
0.1402833,465
0.14195,463
0.1436167,449
0.1452833,473
0.14695,498
0.1486167,313
0.1502833,385
0.15195,456
0.1536167,391
0.1552833,588
0.15695,599
0.1586167,623
0.1602833,379
0.16195,413
0.1636167,448
0.1652833,458
0.16695,487
0.1686167,516
0.1702833,505
0.17195,483
0.1736167,477
0.1752833,461
0.17695,444
0.1786167,415
0.1802833,386
0.18195,446
0.1836167,440
0.1852833,464
0.18695,487
0.1886167,384
0.1902833,523
0.19195,458
0.1936167,410
0.1952833,432
0.19695,484
0.1986167,444
0.2002833,405
0.20195,427
0.2036167,450
0.2052833,363
0.20695,499
0.2086167,496
0.2102833,492
0.21195,470
0.2136167,393
0.2152833,500
0.21695,444
0.2186167,551
0.2202833,334
0.22195,412
0.2236167,425
0.2252833,438
0.22695,442
0.2286167,378
0.2302833,496
0.23195,457
0.2336167,417
0.2352833,411
0.23695,453
0.2386167,411
0.2402833,425
0.24195,369
0.2436167,465
0.2453,483
0.24695,318
0.2486167,448
0.2503,485
0.25195,309
0.2536167,431
0.2552833,428
0.25695,425
0.2586167,383
0.2602833,464
0.26195,232
0.2636333,490
0.2652833,366
0.26695,431
0.2686167,438
0.2702833,396
0.27195,422
0.2736167,449
0.2752833,366
0.27695,426
0.2786167,486
0.2803,428
0.28195,426
0.2836167,345
0.2852833,458
0.28695,517
0.2886167,482
0.2902833,470
0.29195,533
0.2936167,491
0.2952833,449
0.29695,355
0.2986333,343
0.3003,642
0.30195,634
0.3036333,460
0.3052833,503
0.30695,532
0.3086167,499
0.3102833,468
0.31195,474
0.3136167,481
0.3153,468
0.31695,478
0.3186167,489
0.3203,527
0.32195,498
0.3236167,470
0.3252833,457
0.32695,444
0.3286167,491
0.3302833,489
0.33195,581
0.3336333,654
0.3352833,596
0.33695,395
0.3386167,490
0.3402833,708
0.34195,631
0.3436167,530
0.3452833,456
0.34695,567
0.3486167,603
0.3503,530
0.35195,577
0.3536333,487
0.3552833,519
0.3569667,551
0.3586167,552
0.3602833,582
0.36195,1148
0.3636333,1668
0.3653,5611
0.3669667,8352
0.3686333,10832
0.3702833,10760
0.3719667,8876
0.3736333,6365
0.3753,5355
0.3769667,4104
0.3786333,3812
0.3803,3081
0.38195,3006
0.3836333,2619
0.3853,2228
0.3869667,2092
0.3886333,2114
0.3903,2305
0.3919667,1830
0.3936333,1901
0.3953,1835
0.3969667,1846
0.3986333,1733
0.4003,1689
0.4019667,1528
0.4036333,1566
0.4053,1485
0.4069667,1507
0.4086333,1368
0.4103,1436
0.4119667,1686
0.4136333,1693
0.4153,1290
0.4169667,1304
0.4186333,1130
0.4203,1093
0.4219667,1173
0.4236333,1034
0.4253,933
0.4269667,1063
0.4286333,984
0.4303,906
0.4319667,795
0.4336333,861
0.4353,888
0.4369667,715
0.4386333,788
0.4403,786
0.4419667,864
0.4436333,972
0.4453,1352
0.4469667,3129
0.4486333,4939
0.4503,9104
0.4519667,17668
0.4536333,32192
0.4553,54608
0.4569667,83568
0.4586333,120272
0.4603,166848
0.4619667,218432
0.4636333,259776
0.4653,303552
0.4669667,329600
0.4686333,357568
0.4703,357632
0.4719667,342400
0.4736333,330304
0.4753,294720
0.4769667,262272
0.4786333,219968
0.4803,187840
0.4819667,153024
0.4836333,127168
0.4853,103440
0.4869667,84544
0.4886333,70320
0.4903,61200
0.4919667,49664
0.4936333,40688
0.4953,35200
0.4969667,28680
0.4986333,24892
0.5003,22428
0.5019667,18088
0.5036333,15472
0.5053,12844
0.5069667,10992
0.5086333,10160
0.5103,8568
0.5119666,8332
0.5136333,6824
0.5153,5855
0.5169666,5028
0.5186333,5009
0.5203,4900
0.5219667,4098
0.5236334,3877
0.5253,3334
0.5269667,3479
0.5286334,3573
0.5303,3068
0.5319667,2947
0.5336334,2798
0.5353,2547
0.5369667,2872
0.5386333,2812
0.5403,2285
0.5419667,2589
0.5436333,2282
0.5453,2162
0.5469667,2003
0.5486333,2187
0.5503,1834
0.5519667,1834
0.5536333,1970
0.5553,1836
0.5569667,1653
0.5586333,1706
0.5603,1304
0.5619667,1792
0.5636333,1611
0.5653,1544
0.5669667,1664
0.5686333,1358
0.5703,1541
0.5719666,1249
0.5736333,1304
0.5753,1420
0.5769666,1381
0.5786333,1201
0.5803,1340
0.5819666,1298
0.5836333,1131
0.5853,1318
0.5869667,1236
0.5886334,1370
0.5903,1225
0.5919667,1088
0.5936334,1168
0.5953,1158
0.5969667,1130
0.5986333,1128
0.6003,1126
0.6019667,1228
0.6036333,1365
0.6053,1297
0.6069667,1082
0.6086333,1164
0.6103,1232
0.6119667,1016
0.6136333,1324
0.6153,1093
0.6169667,1297
0.6186333,1056
0.6203,1210
0.6219667,988
0.6236333,817
0.6253,994
0.6269667,993
0.6286333,1043
0.6303,827
0.6319667,1123
0.6336333,931
0.6353,785
0.6369666,834
0.6386333,863
0.6403,674
0.6419666,797
0.6436333,853
0.6453,618
0.6469667,894
0.6486334,885
0.6503,735
0.6519667,867
0.6536334,958
0.6553,669
0.6569667,673
0.6586334,646
0.6603,717
0.6619667,752
0.6636333,787
0.6653,637
0.6669667,690
0.6686333,575
0.6703,594
0.6719667,613
0.6736333,671
0.6753,801
0.6769667,768
0.6786333,685
0.6803,802
0.6819667,712
0.6836333,762
0.6853,749
0.6869667,648
0.6886333,521
0.6903,618
0.6919667,531
0.6936333,592
0.6953,652
0.6969666,659
0.6986333,628
0.7003,610
0.7019666,630
0.7036333,522
0.7053,732
0.7069666,675
0.7086333,791
0.7103,729
0.7119667,580
0.7136334,674
0.7153,670
0.7169667,580
0.7186334,700
0.7203,527
0.7219667,667
0.7236333,703
0.7253,487
0.7269667,676
0.7286333,495
0.7303,581
0.7319667,547
0.7336333,592
0.7353,637
0.7369667,611
0.7386333,639
0.7403,552
0.7419667,629
0.7436333,556
0.7453,605
0.7469667,602
0.7486333,599
0.7503,599
0.7519667,598
0.7536333,597
0.7553,596
0.7569667,442
0.7586333,535
0.7603,628
0.7619666,631
0.7636333,453
0.7653,528
0.7669666,554
0.7686333,530
0.7703,506
0.7719667,564
0.7736334,571
0.7753,575
0.7769667,567
0.7786334,560
0.7803,634
0.7819667,661
0.7836334,520
0.7853,596
0.7869667,490
0.7886333,608
0.7903,500
0.7919667,581
0.7936333,662
0.7953,507
0.7969667,618
0.7986333,595
0.8003,642
0.8019667,540
0.8036333,533
0.8053,530
0.8069667,540
0.8086333,549
0.8103,557
0.8119667,564
0.8136333,581
0.8153,490
0.8169667,629
0.8186333,644
0.8203,660
0.8219666,675
0.8236333,669
0.8253,663
0.8269666,641
0.8286333,619
0.8303,632
0.8319666,645
0.8336333,574
0.8353,617
0.8369667,659
0.8386334,746
0.8403,764
0.8419667,623
0.8436334,684
0.8453,783
0.8469667,541
0.8486333,770
0.8503,566
0.8519667,694
0.8536333,799
0.8553,682
0.8569667,564
0.8586333,564
0.8603,721
0.8619667,701
0.8636333,753
0.8653,524
0.8669667,539
0.8686333,729
0.8703,820
0.8719667,925
0.8736333,898
0.8753,1183
0.8769667,1681
0.8786333,2075
0.8803,2186
0.8819667,2214
0.8836333,2620
0.8853,2675
0.8869666,2296
0.8886333,2315
0.8903,2334
0.8919666,2328
0.8936333,2333
0.8953,2289
0.8969667,2187
0.8986334,1945
0.9003,2388
0.9019667,2352
0.9036334,2527
0.9053,2338
0.9069667,2000
0.9086334,2414
0.9103,2409
0.9119667,2404
0.9136333,2319
0.9153,2469
0.9169667,2245
0.9186333,2494
0.9203,2464
0.9219667,2361
0.9236333,2598
0.9253,2280
0.9269667,2218
0.9286333,2004
0.9303,2218
0.9319667,1942
0.9336333,1867
0.9353,1903
0.9369667,1902
0.9386333,1960
0.9403,1733
0.9419667,1718
0.9436333,1703
0.9453,1706
0.9469666,1617
0.9486333,1643
0.9503,1370
0.9519666,1367
0.9536333,1363
0.9553,1169
0.9569666,1245
0.9586333,1152
0.9603,939
0.9619667,1163
0.9636334,1097
0.9653,734
0.9669667,995
0.9686334,829
0.9703,780
0.9719667,714
0.9736333,756
0.9753,570
0.9769667,726
0.9786333,620
0.9803,618
0.9819667,515
0.9836333,577
0.9853,529
0.9869667,542
0.9886333,471
0.9903,479
0.9919667,487
0.9936333,489
0.9953,490
0.9969667,408
0.9986333,392
1.0003,417
1.001967,418
1.003633,419
1.0053,467
1.006967,438
1.008633,410
1.0103,454
1.011967,499
1.013633,494
1.0153,539
1.016967,298
1.018633,629
1.0203,461
1.021967,421
1.023633,542
1.0253,501
1.026967,441
1.028633,413
1.0303,384
1.031967,413
1.033633,441
1.0353,587
1.036967,633
1.038633,531
1.0403,417
1.041967,504
1.043633,440
1.0453,574
1.046967,530
1.048633,502
1.0503,406
1.051967,462
1.053633,439
1.0553,433
1.056967,426
1.058633,458
1.0603,489
1.061967,409
1.063633,329
1.0653,557
1.066967,541
1.068633,417
1.0703,559
1.071967,519
1.073633,522
1.0753,584
1.076967,551
1.078633,517
1.0803,522
1.081967,459
1.083633,562
1.0853,609
1.086967,662
1.088633,733
1.0903,442
1.091967,565
1.093633,536
1.0953,401
1.096967,577
1.098633,593
1.1003,599
1.101967,685
1.103633,430
1.1053,605
1.106967,544
1.108633,542
1.1103,488
1.111967,486
1.113633,655
1.1153,652
1.116967,552
1.118633,457
1.1203,464
1.121967,501
1.123633,522
1.1253,543
1.126967,497
1.128633,497
1.1303,496
1.131967,590
1.133633,605
1.1353,640
1.136967,554
1.138633,626
1.1403,663
1.141967,586
1.143633,516
1.1453,578
1.146967,541
1.148633,492
1.1503,444
1.151967,486
1.153633,529
1.1553,506
1.156967,483
1.158633,661
1.1603,616
1.161967,622
1.163633,679
1.1653,671
1.166967,639
1.168633,607
1.1703,507
1.171967,566
1.173633,499
1.1753,564
1.176967,553
1.178633,541
1.1803,724
1.181967,714
1.183633,717
1.1853,596
1.186967,623
1.188633,611
1.1903,587
1.191967,615
1.193633,523
1.1953,811
1.196967,739
1.198633,776
