"SampleName","A2Rd2_01-56"
"Target Mass 1",
"Column Name","IA-3 (3um, 4.6X100)"
"Channel","QDa 1: SIR Ch2"
0.00195,637
0.003616667,830
0.005283333,630
0.00695,800
0.008616666,1063
0.01028333,1305
0.01195,1090
0.01361667,940
0.01528333,921
0.01695,954
0.01861667,1027
0.02028333,1030
0.02195,1034
0.02361667,1021
0.02528333,957
0.02695,971
0.02861667,985
0.03028333,895
0.03195,1024
0.03361667,976
0.03528333,1014
0.03695,1052
0.03861667,1039
0.04028333,1026
0.04195,1040
0.04361667,982
0.04528333,990
0.04695,999
0.04861667,997
0.05028334,869
0.05195,1014
0.05361667,996
0.05528333,977
0.05695,1010
0.05861667,1066
0.06028333,1128
0.06195,886
0.06361666,1074
0.06528334,1285
0.06695,842
0.06861667,949
0.07028333,1163
0.07195,1001
0.07361667,968
0.07528333,1176
0.07695,926
0.07861666,1041
0.08028334,1113
0.08195,858
0.08361667,1185
0.08528333,924
0.08695,919
0.08861667,891
0.09028333,931
0.09195,1012
0.09361666,1010
0.09528334,860
0.09695,1061
0.09861667,820
0.1002833,1008
0.10195,1023
0.1036167,1021
0.1052833,965
0.10695,793
0.1086167,1129
0.1102833,932
0.11195,1083
0.1136167,818
0.1152833,874
0.11695,929
0.1186167,1035
0.1202833,1038
0.12195,878
0.1236167,898
0.1252833,868
0.12695,909
0.1286167,977
0.1302833,783
0.13195,922
0.1336167,947
0.1352833,1058
0.13695,1029
0.1386167,1044
0.1402833,1024
0.14195,1003
0.1436167,747
0.1452833,861
0.14695,1062
0.1486167,936
0.1502833,959
0.15195,983
0.1536167,864
0.1552833,886
0.15695,1006
0.1586167,1006
0.1602833,1006
0.16195,1041
0.1636167,1066
0.1652833,916
0.16695,939
0.1686167,963
0.1702833,965
0.17195,967
0.1736167,799
0.1752833,935
0.17695,967
0.1786167,1045
0.1802833,991
0.18195,885
0.1836167,1001
0.1852833,1010
0.18695,970
0.1886167,870
0.1902833,938
0.19195,1006
0.1936167,1109
0.1952833,1152
0.19695,938
0.1986167,847
0.2002833,1091
0.20195,983
0.2036167,790
0.2052833,910
0.20695,985
0.2086167,1093
0.2102833,1114
0.21195,1156
0.2136167,1164
0.2152833,1146
0.21695,953
0.2186167,1121
0.2202833,1281
0.22195,1234
0.2236167,1196
0.2252833,1165
0.22695,1009
0.2286333,1069
0.2302833,1204
0.23195,1242
0.2336167,1262
0.2352833,1211
0.23695,1217
0.2386167,1154
0.2402833,1020
0.24195,1088
0.2436167,1156
0.2453,1324
0.24695,1402
0.2486167,1393
0.2502833,1234
0.25195,1142
0.2536167,1288
0.2552833,1325
0.25695,1153
0.2586167,1184
0.2602833,1215
0.26195,1225
0.2636333,1243
0.2652833,1213
0.26695,1184
0.2686167,1148
0.2703,1068
0.27195,1437
0.2736167,1343
0.2752833,1386
0.27695,1132
0.2786167,1209
0.2803,1107
0.28195,1318
0.2836167,1268
0.2852833,969
0.28695,1279
0.2886167,1378
0.2902833,1099
0.2919667,1406
0.2936167,1163
0.2953,1093
0.29695,1377
0.2986333,1205
0.3002833,1209
0.30195,1076
0.3036167,1303
0.3052833,1290
0.30695,1060
0.3086333,1389
0.3102833,1317
0.3119667,1578
0.3136167,1346
0.3153,1296
0.3169667,1246
0.3186167,1222
0.3202833,1279
0.3219667,1206
0.3236167,1245
0.3253,1284
0.32695,1226
0.3286167,1169
0.3302833,1238
0.33195,1302
0.3336333,1354
0.3353,1423
0.3369667,1478
0.3386333,1160
0.3402833,1370
0.3419667,1282
0.3436167,1389
0.3453,1388
0.34695,1433
0.3486333,1479
0.3503,1275
0.3519667,1270
0.3536333,1529
0.3553,1471
0.3569667,1169
0.3586333,1164
0.3602833,1256
0.3619667,1619
0.3636167,1710
0.3653,2611
0.3669667,4201
0.3686333,4628
0.3703,4679
0.3719667,4841
0.3736167,4470
0.3753,4266
0.3769667,3569
0.3786333,2729
0.3802833,2179
0.3819667,1953
0.3836333,1092
0.3853,822
0.3869667,743
0.3886333,653
0.3903,594
0.3919667,443
0.3936333,478
0.3953,454
0.3969667,464
0.3986333,524
0.4003,510
0.4019667,435
0.4036333,512
0.4053,682
0.4069667,714
0.4086333,756
0.4103,797
0.4119667,935
0.4136333,951
0.4153,966
0.4169667,977
0.4186333,965
0.4203,1006
0.4219667,1036
0.4236333,1128
0.4253,1094
0.4269667,1084
0.4286333,1073
0.4303,1047
0.4319667,1096
0.4336333,1147
0.4353,1163
0.4369667,1270
0.4386333,1312
0.4403,1354
0.4419667,1381
0.4436333,1408
0.4453,1464
0.4469667,1261
0.4486333,1516
0.4503,1676
0.4519667,1739
0.4536333,1625
0.4553,1619
0.4569667,1612
0.4586333,1707
0.4603,2028
0.4619667,2035
0.4636333,1993
0.4653,1803
0.4669667,2131
0.4686333,2052
0.4703,1628
0.4719667,1651
0.4736333,2142
0.4753,1682
0.4769667,1559
0.4786333,1629
0.4803,1697
0.4819667,1589
0.4836333,1490
0.4853,1419
0.4869667,1331
0.4886333,1424
0.4903,1491
0.4919667,1201
0.4936333,1435
0.4953,1473
0.4969667,1373
0.4986333,1209
0.5003,1265
0.5019667,1184
0.5036333,1372
0.5053,1023
0.5069667,993
0.5086333,1015
0.5103,1040
0.5119666,1065
0.5136333,1084
0.5153,979
0.5169666,998
0.5186333,1051
0.5203,1165
0.5219667,1212
0.5236334,1212
0.5253,980
0.5269667,1006
0.5286334,1122
0.5303,1217
0.5319667,1166
0.5336334,1116
0.5353,1160
0.5369667,1159
0.5386333,1159
0.5403,1178
0.5419667,1197
0.5436333,1415
0.5453,1367
0.5469667,1298
0.5486333,1180
0.5503,1287
0.5519667,825
0.5536333,1316
0.5553,1223
0.5569667,1169
0.5586333,1248
0.5603,1015
0.5619667,1017
0.5636333,921
0.5653,1155
0.5669667,1177
0.5686333,912
0.5703,1050
0.5719666,964
0.5736333,1088
0.5753,978
0.5769666,985
0.5786333,998
0.5803,1011
0.5819666,1049
0.5836333,1088
0.5853,1070
0.5869667,1208
0.5886334,1253
0.5903,1294
0.5919667,1102
0.5936334,1002
0.5953,1079
0.5969667,1013
0.5986333,1076
0.6003,1059
0.6019667,1142
0.6036333,1224
0.6053,1220
0.6069667,1036
0.6086333,1234
0.6103,1029
0.6119667,1091
0.6136333,1140
0.6153,1176
0.6169667,1008
0.6186333,1059
0.6203,995
0.6219667,986
0.6236333,977
0.6253,1101
0.6269667,1111
0.6286333,1010
0.6303,1020
0.6319667,1086
0.6336333,1044
0.6353,1114
0.6369666,1080
0.6386333,1356
0.6403,1300
0.6419666,1057
0.6436333,1264
0.6453,939
0.6469667,1126
0.6486334,1006
0.6503,1067
0.6519667,1127
0.6536334,965
0.6553,967
0.6569667,970
0.6586334,919
0.6603,868
0.6619667,830
0.6636333,851
0.6653,874
0.6669667,894
0.6686333,904
0.6703,914
0.6719667,933
0.6736333,925
0.6753,918
0.6769667,863
0.6786333,858
0.6803,1011
0.6819667,1281
0.6836333,1230
0.6853,1401
0.6869667,1403
0.6886333,1402
0.6903,1393
0.6919667,1383
0.6936333,1550
0.6953,1717
0.6969666,2168
0.6986333,2116
0.7003,2591
0.7019666,2716
0.7036333,2474
0.7053,2865
0.7069666,2996
0.7086333,2945
0.7103,3162
0.7119667,3343
0.7136334,3357
0.7153,3637
0.7169667,3525
0.7186334,3389
0.7203,3396
0.7219667,3167
0.7236333,3217
0.7253,2692
0.7269667,2660
0.7286333,2788
0.7303,2339
0.7319667,1964
0.7336333,1823
0.7353,1836
0.7369667,1686
0.7386333,1623
0.7403,1391
0.7419667,1567
0.7436333,1453
0.7453,1147
0.7469667,1192
0.7486333,1150
0.7503,1059
0.7519667,1227
0.7536333,1022
0.7553,1171
0.7569667,846
0.7586333,1061
0.7603,1030
0.7619666,1127
0.7636333,1071
0.7653,1057
0.7669666,793
0.7686333,940
0.7703,953
0.7719667,1048
0.7736334,943
0.7753,971
0.7769667,1000
0.7786334,1097
0.7803,1245
0.7819667,1202
0.7836334,1412
0.7853,1316
0.7869667,1404
0.7886333,1663
0.7903,1940
0.7919667,2236
0.7936333,2125
0.7953,2639
0.7969667,2735
0.7986333,2952
0.8003,4224
0.8019667,4247
0.8036333,4042
0.8053,4740
0.8069667,5212
0.8086333,5155
0.8103,5311
0.8119667,5571
0.8136333,5830
0.8153,6541
0.8169667,6843
0.8186333,7684
0.8203,7140
0.8219666,7392
0.8236333,7109
0.8253,6603
0.8269666,6651
0.8286333,6386
0.8303,5668
0.8319666,5247
0.8336333,4936
0.8353,4512
0.8369667,3905
0.8386334,3269
0.8403,3311
0.8419667,3211
0.8436334,2430
0.8453,2336
0.8469667,2098
0.8486333,2059
0.8503,1618
0.8519667,1665
0.8536333,1709
0.8553,1612
0.8569667,1485
0.8586333,1491
0.8603,1496
0.8619667,1389
0.8636333,1662
0.8653,2067
0.8669667,1935
0.8686333,1965
0.8703,2326
0.8719667,2483
0.8736333,2263
0.8753,2205
0.8769667,2260
0.8786333,2029
0.8803,2131
0.8819667,2319
0.8836333,1880
0.8853,2209
0.8869666,1951
0.8886333,2232
0.8903,1847
0.8919666,2364
0.8936333,2008
0.8953,1801
0.8969667,2055
0.8986334,1979
0.9003,1899
0.9019667,1886
0.9036334,1873
0.9053,1778
0.9069667,1733
0.9086334,2021
0.9103,2194
0.9119667,2090
0.9136333,2099
0.9153,1748
0.9169667,1689
0.9186333,1823
0.9203,1881
0.9219667,1940
0.9236333,1711
0.9253,1645
0.9269667,1931
0.9286333,1845
0.9303,1603
0.9319667,1655
0.9336333,1438
0.9353,1594
0.9369667,1712
0.9386333,1602
0.9403,1744
0.9419667,1574
0.9436333,1692
0.9453,1496
0.9469666,1462
0.9486333,1598
0.9503,1548
0.9519666,1482
0.9536333,1382
0.9553,1267
0.9569666,1321
0.9586333,1318
0.9603,1536
0.9619667,1517
0.9636334,1667
0.9653,1318
0.9669667,1756
0.9686334,1632
0.9703,1647
0.9719667,1935
0.9736333,1958
0.9753,2582
0.9769667,2725
0.9786333,2767
0.9803,3200
0.9819667,3303
0.9836333,3696
0.9853,3573
0.9869667,3960
0.9886333,4766
0.9903,5143
0.9919667,5004
0.9936333,4994
0.9953,5433
0.9969667,5730
0.9986333,6070
1.0003,6381
1.001967,6884
1.003633,6580
1.0053,7271
1.006967,7236
1.008633,7169
1.0103,7101
1.011967,7045
1.013633,6989
1.0153,7424
1.016967,6443
1.018633,6241
1.0203,5910
1.021967,5510
1.023633,5058
1.0253,5592
1.026967,4617
1.028633,4267
1.0303,3864
1.031967,3263
1.033633,3289
1.0353,2963
1.036967,2763
1.038633,2446
1.0403,2369
1.041967,2450
1.043633,2146
1.0453,2173
1.046967,1885
1.048633,1682
1.0503,1984
1.051967,1786
1.053633,1673
1.0553,1649
1.056967,1616
1.058633,1564
1.0603,1452
1.061967,1603
1.063633,1754
1.0653,1915
1.066967,1915
1.068633,1903
1.0703,1760
1.071967,2065
1.073633,2032
1.0753,1924
1.076967,1965
1.078633,1863
1.0803,2101
1.081967,2339
1.083633,2694
1.0853,2451
1.086967,2521
1.088633,2855
1.0903,2964
1.091967,3075
1.093633,2843
1.0953,3262
1.096967,3153
1.098633,3082
1.1003,3504
1.101967,3713
1.103633,3853
1.1053,3860
1.106967,3790
1.108633,3821
1.1103,3845
1.111967,3518
1.113633,3945
1.1153,3412
1.116967,3506
1.118633,2896
1.1203,2782
1.121967,2645
1.123633,2706
1.1253,2512
1.126967,2629
1.128633,2531
1.1303,2465
1.131967,2121
1.133633,2161
1.1353,2072
1.136967,1887
1.138633,1912
1.1403,1685
1.141967,1618
1.143633,1511
1.1453,1715
1.146967,1432
1.148633,1416
1.1503,1360
1.151967,1375
1.153633,1257
1.1553,1290
1.156967,1162
1.158633,1325
1.1603,1113
1.161967,1110
1.163633,1444
1.1653,1452
1.166967,1305
1.168633,1158
1.1703,1177
1.171967,1059
1.173633,1111
1.1753,1162
1.176967,1269
1.178633,1300
1.1803,1062
1.181967,1088
1.183633,1038
1.1853,1031
1.186967,1025
1.188633,840
1.1903,1064
1.191967,1191
1.193633,1035
1.1953,1026
1.196967,1122
1.198633,1236
