"SampleName","A2Rd2_01-44"
"Target Mass 1",
"Column Name","IA-3 (3um, 4.6X100)"
"Channel","QDa 1: SIR Ch2"
0.00195,630
0.003616667,677
0.005283333,446
0.00695,687
0.008616666,929
0.01028333,843
0.01195,812
0.01361667,853
0.01528333,893
0.01695,925
0.01861667,887
0.02028333,849
0.02195,977
0.02361667,1023
0.02528333,788
0.02695,1192
0.02861667,720
0.03028333,832
0.03195,970
0.03361667,857
0.03528333,997
0.03695,964
0.03861667,1051
0.04028333,920
0.04195,1050
0.04361667,892
0.04528333,821
0.04695,916
0.04861667,858
0.05028334,877
0.05195,921
0.05361667,844
0.05528333,845
0.05695,1011
0.05861667,1056
0.06028333,926
0.06195,945
0.06361666,719
0.06528334,896
0.06695,666
0.06861667,882
0.07028333,861
0.07195,994
0.07361667,774
0.07528333,940
0.07695,780
0.07861666,802
0.08028334,826
0.08195,844
0.08361667,860
0.08528333,877
0.08695,852
0.08861667,827
0.09028333,863
0.09195,899
0.09361666,906
0.09528334,944
0.09695,822
0.09861667,992
0.1002833,894
0.10195,800
0.1036167,794
0.1052833,686
0.10695,776
0.1086167,940
0.1102833,989
0.11195,802
0.1136167,838
0.1152833,881
0.11695,791
0.1186167,746
0.1202833,701
0.12195,767
0.1236167,834
0.1252833,1002
0.12695,950
0.1286167,1006
0.1302833,808
0.13195,701
0.1336167,873
0.1352833,728
0.13695,730
0.1386167,669
0.1402833,773
0.14195,875
0.1436167,834
0.1452833,764
0.14695,797
0.1486167,805
0.1502833,853
0.15195,725
0.1536167,763
0.1552833,944
0.15695,871
0.1586167,797
0.1602833,854
0.16195,772
0.1636167,742
0.1652833,793
0.16695,770
0.1686167,742
0.1702833,714
0.17195,867
0.1736167,861
0.1752833,855
0.17695,802
0.1786167,749
0.1802833,943
0.18195,915
0.1836167,939
0.1852833,790
0.18695,831
0.1886167,914
0.1902833,838
0.19195,758
0.1936167,691
0.1952833,719
0.19695,746
0.1986167,718
0.2002833,882
0.20195,871
0.2036167,845
0.2052833,868
0.20695,700
0.2086167,792
0.2102833,885
0.21195,899
0.2136167,914
0.2152833,888
0.21695,964
0.2186167,961
0.2202833,851
0.22195,1053
0.2236167,774
0.2252833,1008
0.22695,984
0.2286167,1187
0.2302833,1108
0.23195,923
0.2336167,1203
0.2352833,1050
0.23695,1066
0.2386167,1024
0.2403,1136
0.24195,1061
0.2436167,985
0.2452833,1124
0.24695,960
0.2486167,988
0.2502833,1063
0.25195,1282
0.2536167,1215
0.2552833,1253
0.25695,1069
0.2586167,1056
0.2602833,953
0.26195,1023
0.2636333,936
0.2652833,978
0.26695,1020
0.2686333,1003
0.2702833,986
0.27195,993
0.2736167,1000
0.2752833,987
0.27695,975
0.2786167,969
0.2803,964
0.28195,959
0.2836167,955
0.2852833,854
0.28695,844
0.2886167,834
0.2903,913
0.2919667,869
0.2936167,824
0.2952833,950
0.29695,880
0.2986333,938
0.3002833,893
0.30195,847
0.3036167,916
0.3052833,985
0.30695,921
0.3086167,857
0.3102833,992
0.31195,971
0.3136167,976
0.3153,982
0.31695,929
0.3186167,876
0.3202833,1155
0.32195,1099
0.3236167,1044
0.3252833,1394
0.32695,1309
0.3286167,1036
0.3302833,1127
0.33195,1184
0.3336333,1095
0.3353,1133
0.3369667,1246
0.3386333,1236
0.3403,1230
0.3419667,1067
0.3436167,1224
0.3453,1296
0.34695,1265
0.3486333,1172
0.3503,1234
0.3519667,1202
0.3536333,1194
0.3553,1187
0.3569667,1243
0.3586167,1300
0.3602833,1347
0.36195,1395
0.3636333,1857
0.3653,3470
0.3669667,4334
0.3686333,5145
0.3703,6108
0.3719667,6134
0.3736333,5121
0.3753,4489
0.3769667,3302
0.3786333,2494
0.3803,2116
0.3819667,1744
0.3836333,1137
0.3853,856
0.3869667,964
0.3886333,552
0.3903,544
0.3919667,577
0.3936333,549
0.3953,636
0.3969667,448
0.3986333,566
0.4003,457
0.4019667,534
0.4036333,603
0.4053,771
0.4069667,940
0.4086333,919
0.4103,988
0.4119667,1050
0.4136333,1112
0.4153,1184
0.4169667,893
0.4186333,1035
0.4203,1010
0.4219667,939
0.4236333,967
0.4253,908
0.4269667,873
0.4286333,1087
0.4303,1226
0.4319667,1170
0.4336333,1302
0.4353,931
0.4369667,1202
0.4386333,1239
0.4403,1434
0.4419667,1464
0.4436333,1465
0.4453,1344
0.4469667,1362
0.4486333,1386
0.4503,1409
0.4519667,1490
0.4536333,1536
0.4553,1582
0.4569667,1967
0.4586333,1986
0.4603,1993
0.4619667,1991
0.4636333,1758
0.4653,1980
0.4669667,1886
0.4686333,1791
0.4703,1784
0.4719667,1925
0.4736333,1898
0.4753,1871
0.4769667,1625
0.4786333,1830
0.4803,1584
0.4819667,1496
0.4836333,1443
0.4853,1553
0.4869667,1448
0.4886333,1438
0.4903,1429
0.4919667,1247
0.4936333,1309
0.4953,1519
0.4969667,1427
0.4986333,1133
0.5003,1306
0.5019667,1175
0.5036333,1062
0.5053,1153
0.5069667,1115
0.5086333,1196
0.5103,1176
0.5119666,1224
0.5136333,1066
0.5153,855
0.5169666,1180
0.5186333,966
0.5203,934
0.5219667,935
0.5236334,1040
0.5253,1045
0.5269667,1050
0.5286334,1033
0.5303,988
0.5319667,964
0.5336334,927
0.5353,895
0.5369667,981
0.5386333,1063
0.5403,1110
0.5419667,1050
0.5436333,1007
0.5453,965
0.5469667,893
0.5486333,1055
0.5503,1044
0.5519667,1034
0.5536333,1034
0.5553,964
0.5569667,871
0.5586333,1033
0.5603,948
0.5619667,897
0.5636333,953
0.5653,810
0.5669667,1142
0.5686333,1048
0.5703,898
0.5719666,748
0.5736333,851
0.5753,872
0.5769666,893
0.5786333,1032
0.5803,1018
0.5819666,829
0.5836333,934
0.5853,894
0.5869667,875
0.5886334,856
0.5903,933
0.5919667,907
0.5936334,881
0.5953,1081
0.5969667,1176
0.5986333,1111
0.6003,1046
0.6019667,942
0.6036333,1151
0.6053,864
0.6069667,960
0.6086333,990
0.6103,870
0.6119667,720
0.6136333,1000
0.6153,919
0.6169667,924
0.6186333,939
0.6203,790
0.6219667,877
0.6236333,879
0.6253,881
0.6269667,968
0.6286333,929
0.6303,891
0.6319667,1001
0.6336333,855
0.6353,854
0.6369666,861
0.6386333,792
0.6403,724
0.6419666,941
0.6436333,918
0.6453,911
0.6469667,905
0.6486334,911
0.6503,916
0.6519667,793
0.6536334,802
0.6553,797
0.6569667,906
0.6586334,945
0.6603,730
0.6619667,694
0.6636333,688
0.6653,712
0.6669667,883
0.6686333,952
0.6703,842
0.6719667,1004
0.6736333,695
0.6753,854
0.6769667,945
0.6786333,807
0.6803,776
0.6819667,918
0.6836333,804
0.6853,754
0.6869667,704
0.6886333,831
0.6903,671
0.6919667,802
0.6936333,834
0.6953,793
0.6969666,752
0.6986333,707
0.7003,701
0.7019666,696
0.7036333,934
0.7053,1031
0.7069666,853
0.7086333,690
0.7103,867
0.7119667,980
0.7136334,1004
0.7153,812
0.7169667,819
0.7186334,926
0.7203,850
0.7219667,942
0.7236333,816
0.7253,819
0.7269667,897
0.7286333,975
0.7303,962
0.7319667,790
0.7336333,827
0.7353,821
0.7369667,912
0.7386333,882
0.7403,852
0.7419667,806
0.7436333,803
0.7453,800
0.7469667,775
0.7486333,757
0.7503,740
0.7519667,981
0.7536333,1020
0.7553,817
0.7569667,768
0.7586333,763
0.7603,838
0.7619666,813
0.7636333,832
0.7653,851
0.7669666,681
0.7686333,730
0.7703,779
0.7719667,852
0.7736334,790
0.7753,682
0.7769667,746
0.7786334,860
0.7803,815
0.7819667,882
0.7836334,679
0.7853,987
0.7869667,910
0.7886333,960
0.7903,966
0.7919667,777
0.7936333,791
0.7953,757
0.7969667,868
0.7986333,911
0.8003,929
0.8019667,800
0.8036333,975
0.8053,802
0.8069667,905
0.8086333,861
0.8103,860
0.8119667,866
0.8136333,879
0.8153,893
0.8169667,873
0.8186333,853
0.8203,848
0.8219666,948
0.8236333,881
0.8253,814
0.8269666,811
0.8286333,795
0.8303,739
0.8319666,683
0.8336333,773
0.8353,863
0.8369667,698
0.8386334,533
0.8403,791
0.8419667,792
0.8436334,830
0.8453,761
0.8469667,728
0.8486333,694
0.8503,933
0.8519667,952
0.8536333,1002
0.8553,943
0.8569667,933
0.8586333,799
0.8603,908
0.8619667,762
0.8636333,1054
0.8653,1026
0.8669667,1267
0.8686333,1181
0.8703,1331
0.8719667,1306
0.8736333,1161
0.8753,1380
0.8769667,1217
0.8786333,1288
0.8803,1230
0.8819667,1100
0.8836333,1061
0.8853,1297
0.8869666,1018
0.8886333,1267
0.8903,1212
0.8919666,1018
0.8936333,1132
0.8953,1193
0.8969667,1037
0.8986334,1264
0.9003,1178
0.9019667,1267
0.9036334,1175
0.9053,1188
0.9069667,1262
0.9086334,1246
0.9103,1230
0.9119667,1312
0.9136333,1144
0.9153,1229
0.9169667,1359
0.9186333,1230
0.9203,1235
0.9219667,1241
0.9236333,1398
0.9253,1402
0.9269667,1230
0.9286333,1436
0.9303,1286
0.9319667,1361
0.9336333,1369
0.9353,1235
0.9369667,1122
0.9386333,1297
0.9403,1163
0.9419667,1226
0.9436333,1196
0.9453,1132
0.9469666,1006
0.9486333,1068
0.9503,992
0.9519666,1034
0.9536333,997
0.9553,1112
0.9569666,1161
0.9586333,753
0.9603,1126
0.9619667,1075
0.9636334,886
0.9653,944
0.9669667,879
0.9686334,855
0.9703,1017
0.9719667,766
0.9736333,651
0.9753,849
0.9769667,797
0.9786333,752
0.9803,758
0.9819667,764
0.9836333,728
0.9853,785
0.9869667,791
0.9886333,797
0.9903,779
0.9919667,930
0.9936333,972
0.9953,1000
0.9969667,888
0.9986333,970
1.0003,789
1.001967,814
1.003633,851
1.0053,796
1.006967,960
1.008633,634
1.0103,719
1.011967,764
1.013633,787
1.0153,730
1.016967,754
1.018633,758
1.0203,761
1.021967,773
1.023633,890
1.0253,879
1.026967,868
1.028633,663
1.0303,882
1.031967,915
1.033633,842
1.0353,871
1.036967,901
1.038633,747
1.0403,894
1.041967,925
1.043633,797
1.0453,830
1.046967,926
1.048633,969
1.0503,775
1.051967,884
1.053633,918
1.0553,979
1.056967,780
1.058633,806
1.0603,951
1.061967,888
1.063633,825
1.0653,776
1.066967,894
1.068633,833
1.0703,825
1.071967,853
1.073633,766
1.0753,615
1.076967,953
1.078633,909
1.0803,927
1.081967,871
1.083633,893
1.0853,914
1.086967,861
1.088633,726
1.0903,922
1.091967,700
1.093633,809
1.0953,795
1.096967,606
1.098633,746
1.1003,874
1.101967,814
1.103633,791
1.1053,763
1.106967,736
1.108633,879
1.1103,550
1.111967,680
1.113633,707
1.1153,734
1.116967,775
1.118633,809
1.1203,760
1.121967,712
1.123633,797
1.1253,851
1.126967,930
1.128633,842
1.1303,898
1.131967,895
1.133633,892
1.1353,775
1.136967,868
1.138633,495
1.1403,903
1.141967,879
1.143633,890
1.1453,749
1.146967,753
1.148633,881
1.1503,840
1.151967,800
1.153633,802
1.1553,848
1.156967,894
1.158633,853
1.1603,812
1.161967,758
1.163633,768
1.1653,810
1.166967,705
1.168633,856
1.1703,839
1.171967,887
1.173633,801
1.1753,747
1.176967,923
1.178633,703
1.1803,802
1.181967,710
1.183633,718
1.1853,748
1.186967,777
1.188633,771
1.1903,764
1.191967,777
1.193633,669
1.1953,838
1.196967,902
1.198633,939
