"SampleName","A2Rd2_01-95"
"Target Mass 1",
"Column Name","IA-3 (3um, 4.6X100)"
"Channel","QDa 1: SIR Ch1"
0.00195,376
0.003616667,527
0.005283333,361
0.00695,619
0.008616666,525
0.01028333,524
0.01195,519
0.01361667,576
0.01528333,595
0.01695,516
0.01861667,486
0.02028333,633
0.02195,671
0.02361667,580
0.02528333,683
0.02695,715
0.02861667,648
0.03028333,551
0.03195,539
0.03361667,560
0.03528333,576
0.03695,554
0.03861667,531
0.04028333,485
0.04195,438
0.04361667,522
0.04528333,546
0.04695,571
0.04861667,521
0.05028334,563
0.05195,605
0.05361667,452
0.05528333,467
0.05695,467
0.05861667,468
0.06028333,557
0.06195,594
0.06361666,572
0.06528334,508
0.06695,519
0.06861667,518
0.07028333,518
0.07195,531
0.07361667,544
0.07528333,447
0.07695,550
0.07861666,546
0.08028334,541
0.08195,431
0.08361667,604
0.08528333,463
0.08695,518
0.08861667,510
0.09028333,508
0.09195,506
0.09361666,539
0.09528334,526
0.09695,514
0.09861667,456
0.1002833,494
0.10195,568
0.1036167,588
0.1052833,470
0.10695,615
0.1086167,563
0.1102833,481
0.11195,616
0.1136167,437
0.1152833,485
0.11695,542
0.1186167,490
0.1202833,534
0.12195,566
0.1236167,518
0.1252833,534
0.12695,550
0.1286167,440
0.1302833,568
0.13195,529
0.1336167,451
0.1352833,426
0.13695,467
0.1386167,507
0.1402833,545
0.14195,537
0.1436167,535
0.1452833,354
0.14695,502
0.1486167,513
0.1502833,524
0.15195,523
0.1536167,522
0.1552833,602
0.15695,595
0.1586167,459
0.1602833,534
0.16195,461
0.1636167,470
0.1652833,480
0.16695,488
0.1686167,496
0.1702833,467
0.17195,479
0.1736167,491
0.1752833,425
0.17695,466
0.1786167,445
0.1802833,425
0.18195,513
0.1836167,491
0.1852833,489
0.18695,497
0.1886167,504
0.1902833,573
0.19195,526
0.1936167,479
0.1952833,564
0.19695,502
0.1986167,572
0.2002833,566
0.20195,577
0.2036167,588
0.2052833,480
0.20695,558
0.2086167,448
0.2102833,563
0.21195,330
0.2136167,508
0.2152833,656
0.21695,575
0.2186167,598
0.2202833,442
0.22195,535
0.2236167,488
0.2252833,460
0.22695,431
0.2286167,387
0.2302833,455
0.23195,431
0.2336167,470
0.2352833,475
0.23695,479
0.2386167,464
0.2402833,448
0.24195,461
0.2436167,508
0.2453,539
0.24695,409
0.2486167,481
0.2502833,374
0.25195,513
0.2536167,491
0.2552833,540
0.25695,546
0.2586167,401
0.2602833,426
0.26195,446
0.2636167,434
0.2652833,422
0.26695,461
0.2686167,541
0.2702833,583
0.27195,521
0.2736167,598
0.2752833,390
0.27695,630
0.2786167,367
0.2803,640
0.28195,471
0.2836167,496
0.2852833,476
0.28695,479
0.2886167,482
0.2902833,621
0.29195,595
0.2936167,559
0.2952833,519
0.29695,638
0.2986333,488
0.3002833,487
0.30195,563
0.3036167,572
0.3052833,587
0.30695,391
0.3086167,449
0.3102833,506
0.31195,447
0.3136167,679
0.3153,702
0.31695,656
0.3186167,584
0.3202833,449
0.3219667,513
0.3236167,513
0.3252833,546
0.32695,520
0.3286167,494
0.3302833,528
0.33195,484
0.3336333,529
0.3352833,574
0.33695,560
0.3386167,558
0.3402833,537
0.34195,498
0.3436167,543
0.3453,589
0.34695,440
0.3486167,435
0.3503,448
0.35195,436
0.3536167,499
0.3553,562
0.35695,519
0.3586167,610
0.3602833,599
0.36195,809
0.3636167,890
0.3652833,1114
0.36695,2261
0.3686333,2570
0.3703,3815
0.37195,4131
0.3736167,5369
0.3753,5934
0.3769667,6733
0.3786167,6306
0.3802833,5703
0.38195,5280
0.3836167,3823
0.3853,3820
0.38695,3332
0.3886333,3026
0.3902833,2773
0.3919667,2082
0.3936167,1652
0.3953,1479
0.3969667,1571
0.3986167,1222
0.4002833,1277
0.40195,1153
0.4036333,1222
0.4053,1391
0.4069667,1279
0.4086333,1166
0.4102833,1340
0.41195,1307
0.4136333,1417
0.4153,1490
0.41695,1579
0.4186333,1488
0.4203,1631
0.4219667,1643
0.4236333,1627
0.4253,1597
0.4269667,1675
0.4286333,1458
0.4303,1629
0.4319667,1901
0.4336333,1950
0.4353,2737
0.4369667,3799
0.4386333,5698
0.4403,8796
0.4419667,13852
0.4436333,19916
0.4453,29928
0.4469667,40672
0.4486333,55744
0.4503,71840
0.4519667,88960
0.4536333,103264
0.4553,120208
0.4569667,136192
0.4586333,148672
0.4603,161920
0.4619667,171264
0.4636333,181760
0.4653,193920
0.4669667,207424
0.4686333,225280
0.4703,242816
0.4719667,255040
0.4736333,269824
0.4753,274368
0.4769667,270144
0.4786333,260352
0.4803,244032
0.4819667,222912
0.4836333,196416
0.4853,172032
0.4869667,141504
0.4886333,120448
0.4903,98032
0.4919667,78064
0.4936333,61424
0.4953,47632
0.4969667,36464
0.4986333,28088
0.5003,22788
0.5019667,18660
0.5036333,14952
0.5053,11052
0.5069667,8804
0.5086333,8392
0.5103,7339
0.5119666,6556
0.5136333,5653
0.5153,5168
0.5169666,4825
0.5186333,4773
0.5203,3768
0.5219667,3893
0.5236334,3490
0.5253,3317
0.5269667,3323
0.5286334,3113
0.5303,3383
0.5319667,3110
0.5336334,2639
0.5353,2706
0.5369667,2630
0.5386333,2588
0.5403,2545
0.5419667,2572
0.5436333,2334
0.5453,2358
0.5469667,2146
0.5486333,2495
0.5503,1928
0.5519667,2121
0.5536333,1898
0.5553,1813
0.5569667,2212
0.5586333,1594
0.5603,1559
0.5619667,1767
0.5636333,1538
0.5653,1593
0.5669667,1616
0.5686333,1508
0.5703,1454
0.5719666,1273
0.5736333,1415
0.5753,1370
0.5769666,1325
0.5786333,1343
0.5803,1362
0.5819666,1293
0.5836333,1175
0.5853,1528
0.5869667,1444
0.5886334,1210
0.5903,1312
0.5919667,1436
0.5936334,1335
0.5953,1378
0.5969667,1305
0.5986333,1307
0.6003,1309
0.6019667,1335
0.6036333,1271
0.6053,1247
0.6069667,1345
0.6086333,1342
0.6103,1340
0.6119667,1251
0.6136333,1348
0.6153,1302
0.6169667,1255
0.6186333,1241
0.6203,1377
0.6219667,1358
0.6236333,1340
0.6253,1188
0.6269667,1238
0.6286333,1171
0.6303,1156
0.6319667,1116
0.6336333,1128
0.6353,1140
0.6369666,1019
0.6386333,1134
0.6403,1039
0.6419666,752
0.6436333,1042
0.6453,956
0.6469667,882
0.6486334,1064
0.6503,993
0.6519667,1046
0.6536334,803
0.6553,955
0.6569667,810
0.6586334,875
0.6603,994
0.6619667,928
0.6636333,857
0.6653,798
0.6669667,812
0.6686333,834
0.6703,939
0.6719667,672
0.6736333,953
0.6753,933
0.6769667,866
0.6786333,711
0.6803,775
0.6819667,803
0.6836333,807
0.6853,734
0.6869667,753
0.6886333,718
0.6903,830
0.6919667,923
0.6936333,906
0.6953,853
0.6969666,660
0.6986333,731
0.7003,721
0.7019666,686
0.7036333,651
0.7053,844
0.7069666,829
0.7086333,601
0.7103,831
0.7119667,640
0.7136334,881
0.7153,777
0.7169667,854
0.7186334,897
0.7203,627
0.7219667,856
0.7236333,885
0.7253,655
0.7269667,876
0.7286333,745
0.7303,733
0.7319667,591
0.7336333,809
0.7353,678
0.7369667,661
0.7386333,672
0.7403,698
0.7419667,725
0.7436333,736
0.7453,711
0.7469667,678
0.7486333,654
0.7503,630
0.7519667,741
0.7536333,704
0.7553,667
0.7569667,660
0.7586333,728
0.7603,663
0.7619666,599
0.7636333,820
0.7653,749
0.7669666,564
0.7686333,684
0.7703,644
0.7719667,683
0.7736334,683
0.7753,722
0.7769667,761
0.7786334,755
0.7803,749
0.7819667,699
0.7836334,731
0.7853,678
0.7869667,641
0.7886333,604
0.7903,754
0.7919667,802
0.7936333,671
0.7953,538
0.7969667,612
0.7986333,683
0.8003,707
0.8019667,684
0.8036333,898
0.8053,873
0.8069667,640
0.8086333,800
0.8103,718
0.8119667,650
0.8136333,748
0.8153,536
0.8169667,580
0.8186333,767
0.8203,583
0.8219666,797
0.8236333,790
0.8253,620
0.8269666,627
0.8286333,815
0.8303,780
0.8319666,685
0.8336333,788
0.8353,626
0.8369667,678
0.8386334,631
0.8403,682
0.8419667,715
0.8436334,688
0.8453,661
0.8469667,677
0.8486333,693
0.8503,688
0.8519667,741
0.8536333,732
0.8553,723
0.8569667,630
0.8586333,770
0.8603,716
0.8619667,725
0.8636333,594
0.8653,717
0.8669667,758
0.8686333,695
0.8703,533
0.8719667,668
0.8736333,573
0.8753,534
0.8769667,596
0.8786333,786
0.8803,964
0.8819667,1524
0.8836333,1626
0.8853,1938
0.8869666,2317
0.8886333,2377
0.8903,2633
0.8919666,2858
0.8936333,3043
0.8953,2991
0.8969667,2919
0.8986334,2847
0.9003,3232
0.9019667,3286
0.9036334,3657
0.9053,3810
0.9069667,3409
0.9086334,3186
0.9103,3605
0.9119667,3359
0.9136333,3317
0.9153,3505
0.9169667,3312
0.9186333,3288
0.9203,3231
0.9219667,3163
0.9236333,3378
0.9253,3357
0.9269667,3336
0.9286333,3128
0.9303,3120
0.9319667,2970
0.9336333,3072
0.9353,3173
0.9369667,3073
0.9386333,2903
0.9403,2645
0.9419667,2714
0.9436333,2948
0.9453,2617
0.9469666,2337
0.9486333,2555
0.9503,2300
0.9519666,1992
0.9536333,1988
0.9553,2174
0.9569666,2034
0.9586333,2029
0.9603,1534
0.9619667,1573
0.9636334,1672
0.9653,1468
0.9669667,1555
0.9686334,1413
0.9703,1033
0.9719667,1414
0.9736333,1213
0.9753,1062
0.9769667,920
0.9786333,847
0.9803,1088
0.9819667,794
0.9836333,814
0.9853,924
0.9869667,655
0.9886333,717
0.9903,696
0.9919667,534
0.9936333,716
0.9953,761
0.9969667,687
0.9986333,544
1.0003,633
1.001967,496
1.003633,545
1.0053,598
1.006967,585
1.008633,553
1.0103,567
1.011967,581
1.013633,575
1.0153,623
1.016967,802
1.018633,794
1.0203,682
1.021967,622
1.023633,645
1.0253,539
1.026967,606
1.028633,673
1.0303,514
1.031967,520
1.033633,546
1.0353,607
1.036967,658
1.038633,606
1.0403,554
1.041967,676
1.043633,661
1.0453,565
1.046967,429
1.048633,605
1.0503,675
1.051967,629
1.053633,670
1.0553,622
1.056967,526
1.058633,669
1.0603,684
1.061967,669
1.063633,402
1.0653,606
1.066967,644
1.068633,543
1.0703,541
1.071967,571
1.073633,566
1.0753,545
1.076967,523
1.078633,441
1.0803,496
1.081967,551
1.083633,680
1.0853,685
1.086967,645
1.088633,593
1.0903,463
1.091967,692
1.093633,615
1.0953,394
1.096967,711
1.098633,547
1.1003,667
1.101967,604
1.103633,659
1.1053,594
1.106967,613
1.108633,572
1.1103,487
1.111967,654
1.113633,611
1.1153,691
1.116967,583
1.118633,594
1.1203,604
1.121967,592
1.123633,635
1.1253,637
1.126967,640
1.128633,628
1.1303,617
1.131967,531
1.133633,586
1.1353,542
1.136967,591
1.138633,589
1.1403,588
1.141967,572
1.143633,413
1.1453,522
1.146967,585
1.148633,557
1.1503,572
1.151967,588
1.153633,576
1.1553,681
1.156967,700
1.158633,718
1.1603,688
1.161967,658
1.163633,685
1.1653,570
1.166967,525
1.168633,604
1.1703,602
1.171967,609
1.173633,616
1.1753,591
1.176967,566
1.178633,593
1.1803,621
1.181967,632
1.183633,486
1.1853,631
1.186967,526
1.188633,639
1.1903,638
1.191967,638
1.193633,635
1.1953,631
1.196967,607
1.198633,583
