"SampleName","standard"
"Target Mass 1",
"Column Name","IA-3 (3um, 4.6X100)"
"Channel","QDa 1: SIR Ch1"
0.00195,309
0.003616667,758
0.005283333,643
0.00695,717
0.008616666,688
0.01028333,576
0.01195,715
0.01361667,483
0.01528333,544
0.01695,515
0.01861667,533
0.02028333,550
0.02195,551
0.02361667,551
0.02528333,462
0.02695,436
0.02861667,538
0.03028333,523
0.03195,502
0.03361667,524
0.03528333,488
0.03695,452
0.03861667,533
0.04028333,505
0.04195,426
0.04361667,378
0.04528333,467
0.04695,498
0.04861667,442
0.05028334,302
0.05195,316
0.05361667,435
0.05528333,356
0.05695,278
0.05861667,312
0.06028333,347
0.06195,385
0.06361666,380
0.06528334,374
0.06695,540
0.06861667,493
0.07028333,447
0.07195,412
0.07361667,419
0.07528333,371
0.07695,377
0.07861666,388
0.08028334,399
0.08195,397
0.08361667,394
0.08528333,389
0.08695,411
0.08861667,434
0.09028333,436
0.09195,438
0.09361666,342
0.09528334,479
0.09695,486
0.09861667,302
0.1002833,432
0.10195,413
0.1036167,407
0.1052833,466
0.10695,460
0.1086167,454
0.1102833,507
0.11195,477
0.1136167,447
0.1152833,455
0.11695,463
0.1186167,398
0.1202833,442
0.12195,485
0.1236167,492
0.1252833,480
0.12695,477
0.1286167,473
0.1302833,521
0.13195,520
0.1336167,519
0.1352833,533
0.13695,370
0.1386167,481
0.1402833,459
0.14195,466
0.1436167,422
0.1452833,378
0.14695,444
0.1486167,557
0.1502833,587
0.15195,527
0.1536167,585
0.1552833,457
0.15695,441
0.1586167,601
0.1602833,560
0.16195,468
0.1636167,518
0.1652833,600
0.16695,607
0.1686167,475
0.1702833,444
0.17195,473
0.1736167,495
0.1752833,504
0.17695,444
0.1786167,555
0.1802833,586
0.18195,439
0.1836167,352
0.1852833,590
0.18695,649
0.1886167,681
0.1902833,432
0.19195,494
0.1936167,571
0.1952833,579
0.19695,550
0.1986167,520
0.2002833,550
0.20195,528
0.2036167,489
0.2052833,484
0.20695,544
0.2086167,435
0.2102833,443
0.21195,552
0.2136167,499
0.2152833,460
0.21695,534
0.2186167,544
0.2202833,375
0.22195,475
0.2236167,441
0.2252833,515
0.22695,474
0.2286167,432
0.2302833,453
0.23195,474
0.2336167,427
0.2352833,481
0.23695,505
0.2386167,491
0.2402833,477
0.24195,502
0.2436167,527
0.2453,531
0.24695,535
0.2486167,493
0.2502833,466
0.25195,451
0.2536167,443
0.2552833,435
0.25695,454
0.2586167,478
0.2602833,501
0.26195,483
0.2636333,464
0.2652833,495
0.26695,481
0.2686167,467
0.2702833,506
0.27195,507
0.2736167,509
0.2752833,428
0.27695,494
0.2786167,552
0.2803,614
0.28195,523
0.2836167,514
0.2852833,551
0.2869667,587
0.2886167,602
0.2902833,517
0.29195,610
0.2936167,463
0.2952833,520
0.29695,494
0.2986333,560
0.3002833,537
0.30195,597
0.3036333,426
0.3052833,407
0.30695,389
0.3086167,520
0.3102833,562
0.31195,413
0.3136167,536
0.3153,467
0.3169667,561
0.3186167,492
0.3203,406
0.3219667,482
0.3236167,570
0.3252833,589
0.32695,442
0.3286333,510
0.3302833,504
0.33195,536
0.3336333,535
0.3353,533
0.3369667,495
0.3386167,469
0.3402833,583
0.34195,569
0.3436167,571
0.3453,498
0.34695,539
0.3486167,593
0.3503,543
0.3519667,494
0.3536333,464
0.3552833,548
0.3569667,654
0.3586167,639
0.3602833,541
0.3619667,564
0.3636333,538
0.3652833,533
0.3669667,528
0.3686333,540
0.3703,552
0.3719667,553
0.3736333,711
0.3752833,706
0.3769667,700
0.3786333,600
0.3803,560
0.38195,521
0.3836333,616
0.3853,710
0.3869667,673
0.3886333,750
0.3903,744
0.3919667,643
0.3936333,615
0.3953,651
0.3969667,620
0.3986333,625
0.4003,671
0.4019667,667
0.4036333,662
0.4053,676
0.4069667,654
0.4086333,652
0.4103,650
0.4119667,744
0.4136333,746
0.4153,748
0.4169667,701
0.4186333,605
0.4203,713
0.4219667,772
0.4236333,851
0.4253,585
0.4269667,823
0.4286333,724
0.4303,661
0.4319667,586
0.4336333,608
0.4353,630
0.4369667,631
0.4386333,633
0.4403,612
0.4419667,590
0.4436333,680
0.4453,867
0.4469667,940
0.4486333,1113
0.4503,1859
0.4519667,3443
0.4536333,6135
0.4553,11728
0.4569667,18664
0.4586333,28956
0.4603,42640
0.4619667,57632
0.4636333,71504
0.4653,81408
0.4669667,88624
0.4686333,92672
0.4703,88704
0.4719667,83136
0.4736333,74608
0.4753,64096
0.4769667,52112
0.4786333,44304
0.4803,34048
0.4819667,28920
0.4836333,22756
0.4853,18548
0.4869667,15060
0.4886333,12472
0.4903,9840
0.4919667,8536
0.4936333,7841
0.4953,6797
0.4969667,5766
0.4986333,5373
0.5003,4105
0.5019667,3736
0.5036333,3208
0.5053,2851
0.5069667,2569
0.5086333,1944
0.5103,2038
0.5119666,2059
0.5136333,1598
0.5153,1761
0.5169666,1421
0.5186333,1178
0.5203,1121
0.5219667,1428
0.5236334,1338
0.5253,1116
0.5269667,1422
0.5286334,1194
0.5303,853
0.5319667,855
0.5336334,968
0.5353,857
0.5369667,918
0.5386333,899
0.5403,797
0.5419667,819
0.5436333,841
0.5453,740
0.5469667,903
0.5486333,593
0.5503,885
0.5519667,881
0.5536333,778
0.5553,770
0.5569667,776
0.5586333,763
0.5603,750
0.5619667,788
0.5636333,719
0.5653,590
0.5669667,601
0.5686333,709
0.5703,742
0.5719666,572
0.5736333,731
0.5753,617
0.5769666,762
0.5786333,715
0.5803,721
0.5819666,692
0.5836333,663
0.5853,686
0.5869667,709
0.5886334,553
0.5903,555
0.5919667,757
0.5936334,594
0.5953,770
0.5969667,592
0.5986333,565
0.6003,544
0.6019667,583
0.6036333,621
0.6053,677
0.6069667,594
0.6086333,512
0.6103,621
0.6119667,588
0.6136333,556
0.6153,632
0.6169667,538
0.6186333,538
0.6203,526
0.6219667,605
0.6236333,618
0.6253,613
0.6269667,608
0.6286333,616
0.6303,624
0.6319667,632
0.6336333,647
0.6353,684
0.6369666,518
0.6386333,459
0.6403,551
0.6419666,483
0.6436333,492
0.6453,500
0.6469667,538
0.6486334,627
0.6503,560
0.6519667,494
0.6536334,490
0.6553,618
0.6569667,593
0.6586334,568
0.6603,548
0.6619667,528
0.6636333,567
0.6653,606
0.6669667,596
0.6686333,586
0.6703,693
0.6719667,481
0.6736333,586
0.6753,673
0.6769667,587
0.6786333,427
0.6803,481
0.6819667,656
0.6836333,619
0.6853,639
0.6869667,530
0.6886333,557
0.6903,571
0.6919667,474
0.6936333,476
0.6953,505
0.6969666,520
0.6986333,506
0.7003,500
0.7019666,494
0.7036333,499
0.7053,503
0.7069666,533
0.7086333,318
0.7103,689
0.7119667,658
0.7136334,525
0.7153,413
0.7169667,562
0.7186334,478
0.7203,477
0.7219667,498
0.7236333,526
0.7253,525
0.7269667,523
0.7286333,656
0.7303,616
0.7319667,575
0.7336333,447
0.7353,536
0.7369667,472
0.7386333,565
0.7403,556
0.7419667,599
0.7436333,523
0.7453,373
0.7469667,469
0.7486333,363
0.7503,545
0.7519667,661
0.7536333,702
0.7553,427
0.7569667,609
0.7586333,443
0.7603,410
0.7619666,622
0.7636333,432
0.7653,540
0.7669666,480
0.7686333,464
0.7703,448
0.7719667,546
0.7736334,533
0.7753,540
0.7769667,548
0.7786334,544
0.7803,545
0.7819667,532
0.7836334,518
0.7853,498
0.7869667,432
0.7886333,551
0.7903,527
0.7919667,440
0.7936333,597
0.7953,503
0.7969667,538
0.7986333,484
0.8003,535
0.8019667,573
0.8036333,520
0.8053,443
0.8069667,571
0.8086333,526
0.8103,424
0.8119667,447
0.8136333,381
0.8153,465
0.8169667,463
0.8186333,460
0.8203,603
0.8219666,613
0.8236333,330
0.8253,638
0.8269666,706
0.8286333,460
0.8303,455
0.8319666,431
0.8336333,441
0.8353,451
0.8369667,478
0.8386334,506
0.8403,502
0.8419667,489
0.8436334,479
0.8453,535
0.8469667,421
0.8486333,519
0.8503,436
0.8519667,462
0.8536333,536
0.8553,460
0.8569667,490
0.8586333,382
0.8603,367
0.8619667,457
0.8636333,399
0.8653,395
0.8669667,406
0.8686333,377
0.8703,574
0.8719667,531
0.8736333,400
0.8753,521
0.8769667,583
0.8786333,536
0.8803,398
0.8819667,505
0.8836333,410
0.8853,493
0.8869666,551
0.8886333,595
0.8903,369
0.8919666,512
0.8936333,386
0.8953,549
0.8969667,504
0.8986334,480
0.9003,456
0.9019667,432
0.9036334,408
0.9053,452
0.9069667,451
0.9086334,450
0.9103,487
0.9119667,448
0.9136333,409
0.9153,419
0.9169667,428
0.9186333,492
0.9203,487
0.9219667,439
0.9236333,469
0.9253,326
0.9269667,399
0.9286333,414
0.9303,424
0.9319667,440
0.9336333,423
0.9353,336
0.9369667,361
0.9386333,452
0.9403,412
0.9419667,427
0.9436333,415
0.9453,352
0.9469666,401
0.9486333,319
0.9503,420
0.9519666,362
0.9536333,285
0.9553,367
0.9569666,364
0.9586333,354
0.9603,344
0.9619667,320
0.9636334,296
0.9653,364
0.9669667,431
0.9686334,378
0.9703,324
0.9719667,259
0.9736333,348
0.9753,436
0.9769667,436
0.9786333,449
0.9803,452
0.9819667,274
0.9836333,506
0.9853,514
0.9869667,424
0.9886333,480
0.9903,324
0.9919667,394
0.9936333,387
0.9953,454
0.9969667,433
0.9986333,438
1.0003,353
1.001967,384
1.003633,528
1.0053,512
1.006967,508
1.008633,353
1.0103,456
1.011967,495
1.013633,532
1.0153,422
1.016967,433
1.018633,433
1.0203,393
1.021967,438
1.023633,483
1.0253,466
1.026967,306
1.028633,450
1.0303,488
1.031967,439
1.033633,455
1.0353,471
1.036967,298
1.038633,523
1.0403,397
1.041967,561
1.043633,534
1.0453,468
1.046967,504
1.048633,557
1.0503,398
1.051967,425
1.053633,555
1.0553,553
1.056967,551
1.058633,476
1.0603,558
1.061967,494
1.063633,487
1.0653,481
1.066967,476
1.068633,569
1.0703,556
1.071967,491
1.073633,473
1.0753,419
1.076967,557
1.078633,350
1.0803,476
1.081967,513
1.083633,507
1.0853,403
1.086967,566
1.088633,550
1.0903,466
1.091967,411
1.093633,435
1.0953,426
1.096967,416
1.098633,525
1.1003,592
1.101967,334
1.103633,424
1.1053,550
1.106967,629
1.108633,460
1.1103,485
1.111967,370
1.113633,414
1.1153,517
1.116967,448
1.118633,453
1.1203,385
1.121967,545
1.123633,509
1.1253,542
1.126967,448
1.128633,440
1.1303,473
1.131967,463
1.133633,454
1.1353,473
1.136967,580
1.138633,563
1.1403,513
1.141967,450
1.143633,584
1.1453,575
1.146967,567
1.148633,482
1.1503,499
1.151967,535
1.153633,532
1.1553,441
1.156967,561
1.158633,400
1.1603,535
1.161967,441
1.163633,365
1.1653,434
1.166967,479
1.168633,395
1.1703,499
1.171967,524
1.173633,483
1.1753,484
1.176967,484
1.178633,355
1.1803,436
1.181967,422
1.183633,409
1.1853,437
1.186967,466
1.188633,566
1.1903,556
1.191967,516
1.193633,360
1.1953,454
1.196967,418
1.198633,486
