"SampleName","A2Rd2_01-2"
"Target Mass 1",
"Column Name","IA-3 (3um, 4.6X100)"
"Channel","QDa 1: SIR Ch1"
0.00195,229
0.003616667,516
0.005283333,513
0.00695,557
0.008616666,580
0.01028333,603
0.01195,609
0.01361667,615
0.01528333,485
0.01695,467
0.01861667,441
0.02028333,460
0.02195,415
0.02361667,433
0.02528333,609
0.02695,593
0.02861667,619
0.03028333,454
0.03195,610
0.03361667,324
0.03528333,491
0.03695,477
0.03861667,517
0.04028333,477
0.04195,437
0.04361667,374
0.04528333,618
0.04695,645
0.04861667,513
0.05028334,429
0.05195,575
0.05361667,471
0.05528333,629
0.05695,705
0.05861667,583
0.06028333,519
0.06195,422
0.06361666,635
0.06528334,597
0.06695,663
0.06861667,433
0.07028333,648
0.07195,548
0.07361667,439
0.07528333,546
0.07695,497
0.07861666,531
0.08028334,515
0.08195,528
0.08361667,542
0.08528333,489
0.08695,436
0.08861667,456
0.09028333,495
0.09195,534
0.09361666,497
0.09528334,371
0.09695,523
0.09861667,595
0.1002833,455
0.10195,400
0.1036167,493
0.1052833,440
0.10695,542
0.1086167,622
0.1102833,609
0.11195,450
0.1136167,471
0.1152833,627
0.11695,590
0.1186167,517
0.1202833,448
0.12195,583
0.1236167,539
0.1252833,551
0.12695,473
0.1286167,481
0.1302833,527
0.13195,449
0.1336167,457
0.1352833,465
0.13695,562
0.1386167,597
0.1402833,559
0.14195,524
0.1436167,461
0.1452833,512
0.14695,500
0.1486167,433
0.1502833,434
0.15195,447
0.1536167,460
0.1552833,399
0.15695,545
0.1586167,550
0.1602833,597
0.16195,604
0.1636167,492
0.1652833,535
0.16695,613
0.1686167,553
0.1702833,507
0.17195,527
0.1736167,499
0.1752833,426
0.17695,465
0.1786167,560
0.1802833,363
0.18195,537
0.1836167,500
0.1852833,446
0.18695,499
0.1886167,486
0.1902833,512
0.19195,495
0.1936167,509
0.1952833,524
0.19695,544
0.1986167,475
0.2002833,544
0.20195,614
0.2036167,562
0.2052833,470
0.20695,568
0.2086167,614
0.2102833,539
0.21195,463
0.2136167,496
0.2152833,495
0.21695,494
0.2186167,515
0.2202833,537
0.22195,397
0.2236167,537
0.2252833,503
0.22695,517
0.2286167,446
0.2302833,440
0.23195,484
0.2336167,461
0.2352833,390
0.23695,516
0.2386167,568
0.2402833,621
0.24195,448
0.2436167,669
0.2452833,584
0.24695,533
0.2486167,433
0.2502833,581
0.25195,438
0.2536167,569
0.2552833,460
0.25695,412
0.2586167,583
0.2602833,524
0.26195,507
0.2636333,612
0.2652833,451
0.26695,482
0.2686167,493
0.2702833,454
0.27195,415
0.2736167,466
0.2752833,517
0.27695,337
0.2786167,532
0.2803,446
0.28195,495
0.2836167,577
0.2852833,554
0.28695,617
0.2886167,649
0.2902833,640
0.29195,682
0.2936167,451
0.2952833,595
0.29695,578
0.2986333,471
0.3002833,551
0.30195,486
0.3036167,565
0.3052833,607
0.30695,649
0.3086167,488
0.3102833,498
0.3119667,503
0.3136167,494
0.3153,650
0.31695,614
0.3186167,601
0.3202833,513
0.3219667,560
0.3236167,551
0.3252833,552
0.32695,457
0.3286167,480
0.3302833,529
0.33195,579
0.3336333,559
0.3352833,597
0.33695,411
0.3386167,468
0.3403,525
0.34195,563
0.3436333,516
0.3452833,578
0.34695,385
0.3486167,454
0.3503,642
0.35195,633
0.3536167,756
0.3553,526
0.35695,633
0.3586167,432
0.3603,626
0.36195,837
0.3636333,1290
0.3652833,3643
0.3669667,7235
0.3686333,10296
0.3703,8173
0.3719667,8075
0.3736333,6613
0.3753,4740
0.3769667,4457
0.3786167,3598
0.3803,2978
0.38195,2946
0.3836333,2752
0.3853,2678
0.3869667,2410
0.3886333,2322
0.3902833,2372
0.3919667,2165
0.3936167,2008
0.3953,2254
0.39695,1858
0.3986333,2077
0.4002833,1934
0.40195,1803
0.4036333,1811
0.4053,1561
0.4069667,1353
0.4086333,1235
0.4102833,1458
0.4119667,1385
0.4136333,1195
0.4153,1153
0.4169667,1198
0.4186333,1114
0.4203,1015
0.4219667,1182
0.4236333,1181
0.4253,1052
0.4269667,1015
0.4286333,1001
0.4303,860
0.4319667,793
0.4336333,997
0.4353,728
0.4369667,826
0.4386333,994
0.4403,994
0.4419667,837
0.4436333,1214
0.4453,1258
0.4469667,2154
0.4486333,3803
0.4503,6430
0.4519667,11712
0.4536333,19884
0.4553,36384
0.4569667,57904
0.4586333,91408
0.4603,134528
0.4619667,185792
0.4636333,237120
0.4653,290816
0.4669667,342336
0.4686333,388288
0.4703,413120
0.4719667,423296
0.4736333,422528
0.4753,400320
0.4769667,367680
0.4786333,333056
0.4803,283136
0.4819667,239168
0.4836333,202304
0.4853,164416
0.4869667,133440
0.4886333,109200
0.4903,92336
0.4919667,78128
0.4936333,62848
0.4953,52928
0.4969667,43424
0.4986333,36528
0.5003,31796
0.5019667,25324
0.5036333,21420
0.5053,18552
0.5069667,16316
0.5086333,14448
0.5103,13104
0.5119666,10756
0.5136333,9024
0.5153,8964
0.5169666,8111
0.5186333,6650
0.5203,6296
0.5219667,5286
0.5236334,5008
0.5253,4556
0.5269667,4334
0.5286334,4166
0.5303,4015
0.5319667,3761
0.5336334,4059
0.5353,3590
0.5369667,3343
0.5386333,3246
0.5403,3061
0.5419667,3117
0.5436333,2970
0.5453,2625
0.5469667,2705
0.5486333,2634
0.5503,2487
0.5519667,2311
0.5536333,2477
0.5553,2247
0.5569667,2208
0.5586333,2281
0.5603,1925
0.5619667,1528
0.5636333,2339
0.5653,1879
0.5669667,1657
0.5686333,1966
0.5703,1546
0.5719666,1747
0.5736333,1494
0.5753,1640
0.5769666,1763
0.5786333,1759
0.5803,1666
0.5819666,1661
0.5836333,1447
0.5853,1426
0.5869667,1619
0.5886334,1423
0.5903,1447
0.5919667,1573
0.5936334,1452
0.5953,1391
0.5969667,1382
0.5986333,1386
0.6003,1285
0.6019667,1229
0.6036333,1363
0.6053,1418
0.6069667,1444
0.6086333,1244
0.6103,1339
0.6119667,1231
0.6136333,1124
0.6153,1330
0.6169667,1291
0.6186333,1240
0.6203,1317
0.6219667,1074
0.6236333,1116
0.6253,1239
0.6269667,1165
0.6286333,1091
0.6303,1135
0.6319667,1188
0.6336333,1116
0.6353,1279
0.6369666,984
0.6386333,851
0.6403,1033
0.6419666,1020
0.6436333,890
0.6453,928
0.6469667,780
0.6486334,965
0.6503,1002
0.6519667,707
0.6536334,943
0.6553,761
0.6569667,802
0.6586334,861
0.6603,843
0.6619667,648
0.6636333,935
0.6653,852
0.6669667,769
0.6686333,845
0.6703,832
0.6719667,819
0.6736333,833
0.6753,847
0.6769667,810
0.6786333,774
0.6803,724
0.6819667,865
0.6836333,768
0.6853,672
0.6869667,745
0.6886333,818
0.6903,778
0.6919667,736
0.6936333,807
0.6953,815
0.6969666,849
0.6986333,736
0.7003,667
0.7019666,762
0.7036333,720
0.7053,678
0.7069666,777
0.7086333,791
0.7103,701
0.7119667,666
0.7136334,549
0.7153,775
0.7169667,641
0.7186334,509
0.7203,746
0.7219667,727
0.7236333,723
0.7253,659
0.7269667,726
0.7286333,812
0.7303,775
0.7319667,738
0.7336333,840
0.7353,837
0.7369667,654
0.7386333,552
0.7403,604
0.7419667,822
0.7436333,818
0.7453,656
0.7469667,749
0.7486333,846
0.7503,741
0.7519667,755
0.7536333,749
0.7553,649
0.7569667,641
0.7586333,707
0.7603,686
0.7619666,665
0.7636333,641
0.7653,617
0.7669666,739
0.7686333,736
0.7703,596
0.7719667,817
0.7736334,777
0.7753,736
0.7769667,843
0.7786334,598
0.7803,811
0.7819667,572
0.7836334,736
0.7853,755
0.7869667,702
0.7886333,619
0.7903,635
0.7919667,678
0.7936333,607
0.7953,622
0.7969667,636
0.7986333,748
0.8003,726
0.8019667,505
0.8036333,614
0.8053,753
0.8069667,667
0.8086333,668
0.8103,754
0.8119667,713
0.8136333,678
0.8153,643
0.8169667,674
0.8186333,655
0.8203,635
0.8219666,617
0.8236333,598
0.8253,722
0.8269666,749
0.8286333,740
0.8303,980
0.8319666,955
0.8336333,792
0.8353,1108
0.8369667,652
0.8386334,784
0.8403,759
0.8419667,743
0.8436334,728
0.8453,804
0.8469667,880
0.8486333,887
0.8503,856
0.8519667,772
0.8536333,849
0.8553,716
0.8569667,775
0.8586333,735
0.8603,811
0.8619667,828
0.8636333,761
0.8653,509
0.8669667,672
0.8686333,705
0.8703,681
0.8719667,679
0.8736333,667
0.8753,722
0.8769667,809
0.8786333,947
0.8803,1387
0.8819667,1525
0.8836333,1956
0.8853,2069
0.8869666,2519
0.8886333,2878
0.8903,2865
0.8919666,3477
0.8936333,3460
0.8953,3306
0.8969667,3477
0.8986334,3274
0.9003,3034
0.9019667,3007
0.9036334,3288
0.9053,3031
0.9069667,2910
0.9086334,3302
0.9103,3355
0.9119667,3110
0.9136333,2816
0.9153,3616
0.9169667,2676
0.9186333,3197
0.9203,3223
0.9219667,3000
0.9236333,3292
0.9253,2895
0.9269667,3203
0.9286333,3005
0.9303,3034
0.9319667,2898
0.9336333,2485
0.9353,3054
0.9369667,2888
0.9386333,2544
0.9403,2682
0.9419667,2540
0.9436333,2768
0.9453,2421
0.9469666,2372
0.9486333,2405
0.9503,2203
0.9519666,2068
0.9536333,1726
0.9553,1939
0.9569666,1706
0.9586333,1328
0.9603,1621
0.9619667,1483
0.9636334,1453
0.9653,1099
0.9669667,966
0.9686334,1332
0.9703,1122
0.9719667,1249
0.9736333,923
0.9753,754
0.9769667,759
0.9786333,874
0.9803,811
0.9819667,664
0.9836333,691
0.9853,655
0.9869667,703
0.9886333,631
0.9903,560
0.9919667,497
0.9936333,478
0.9953,434
0.9969667,503
0.9986333,519
1.0003,546
1.001967,536
1.003633,526
1.0053,484
1.006967,483
1.008633,481
1.0103,475
1.011967,470
1.013633,540
1.0153,580
1.016967,620
1.018633,622
1.0203,624
1.021967,576
1.023633,551
1.0253,558
1.026967,564
1.028633,550
1.0303,628
1.031967,579
1.033633,531
1.0353,562
1.036967,519
1.038633,524
1.0403,644
1.041967,656
1.043633,584
1.0453,684
1.046967,809
1.048633,743
1.0503,652
1.051967,715
1.053633,644
1.0553,641
1.056967,638
1.058633,626
1.0603,653
1.061967,645
1.063633,637
1.0653,529
1.066967,557
1.068633,584
1.0703,672
1.071967,636
1.073633,600
1.0753,577
1.076967,554
1.078633,518
1.0803,571
1.081967,687
1.083633,642
1.0853,596
1.086967,631
1.088633,590
1.0903,548
1.091967,596
1.093633,671
1.0953,656
1.096967,566
1.098633,654
1.1003,574
1.101967,518
1.103633,641
1.1053,619
1.106967,566
1.108633,682
1.1103,652
1.111967,627
1.113633,665
1.1153,649
1.116967,508
1.118633,646
1.1203,620
1.121967,613
1.123633,549
1.1253,619
1.126967,689
1.128633,671
1.1303,587
1.131967,588
1.133633,600
1.1353,583
1.136967,567
1.138633,581
1.1403,576
1.141967,571
1.143633,543
1.1453,514
1.146967,549
1.148633,706
1.1503,755
1.151967,725
1.153633,720
1.1553,741
1.156967,748
1.158633,504
1.1603,546
1.161967,807
1.163633,690
1.1653,567
1.166967,734
1.168633,743
1.1703,615
1.171967,687
1.173633,758
1.1753,733
1.176967,741
1.178633,723
1.1803,705
1.181967,713
1.183633,721
1.1853,705
1.186967,726
1.188633,746
1.1903,803
1.191967,800
1.193633,796
1.1953,626
1.196967,888
1.198633,899
