"SampleName","A2Rd2_01-35"
"Target Mass 1",
"Column Name","IA-3 (3um, 4.6X100)"
"Channel","QDa 1: SIR Ch1"
0.00195,441
0.003616667,371
0.005283333,539
0.00695,530
0.008616666,521
0.01028333,586
0.01195,407
0.01361667,473
0.01528333,473
0.01695,461
0.01861667,480
0.02028333,433
0.02195,450
0.02361667,513
0.02528333,502
0.02695,380
0.02861667,483
0.03028333,498
0.03195,566
0.03361667,493
0.03528333,528
0.03695,449
0.03861667,568
0.04028333,555
0.04195,556
0.04361667,494
0.04528333,514
0.04695,514
0.04861667,494
0.05028334,483
0.05195,471
0.05361667,418
0.05528333,427
0.05695,445
0.05861667,444
0.06028333,443
0.06195,476
0.06361666,509
0.06528334,514
0.06695,531
0.06861667,536
0.07028333,362
0.07195,429
0.07361667,450
0.07528333,408
0.07695,370
0.07861666,446
0.08028334,429
0.08195,413
0.08361667,396
0.08528333,575
0.08695,568
0.08861667,586
0.09028333,543
0.09195,523
0.09361666,531
0.09528334,521
0.09695,511
0.09861667,486
0.1002833,391
0.10195,431
0.1036167,574
0.1052833,527
0.10695,462
0.1086167,417
0.1102833,519
0.11195,362
0.1136167,351
0.1152833,550
0.11695,447
0.1186167,547
0.1202833,488
0.12195,504
0.1236167,411
0.1252833,457
0.12695,467
0.1286167,478
0.1302833,384
0.1319667,487
0.1336167,452
0.1352833,427
0.13695,403
0.1386167,466
0.1402833,443
0.14195,423
0.1436167,403
0.1452833,393
0.14695,412
0.1486167,430
0.1502833,377
0.15195,323
0.1536167,449
0.1552833,608
0.15695,554
0.1586167,471
0.1602833,408
0.16195,566
0.1636167,400
0.1652833,487
0.16695,351
0.1686167,381
0.1702833,461
0.17195,475
0.1736167,511
0.1752833,369
0.17695,523
0.1786167,381
0.1802833,491
0.18195,438
0.1836167,518
0.1852833,438
0.18695,464
0.1886167,471
0.1902833,378
0.19195,398
0.1936167,563
0.1952833,556
0.19695,500
0.1986167,544
0.2002833,513
0.20195,482
0.2036167,560
0.2052833,441
0.20695,537
0.2086167,556
0.2102833,464
0.21195,360
0.2136167,349
0.2152833,480
0.21695,479
0.2186167,487
0.2202833,440
0.22195,512
0.2236167,478
0.2252833,475
0.22695,472
0.2286333,455
0.2302833,447
0.2319667,414
0.2336167,492
0.2352833,501
0.23695,510
0.2386167,408
0.2402833,521
0.24195,473
0.2436167,371
0.2452833,435
0.24695,495
0.2486167,462
0.2502833,454
0.25195,457
0.2536167,459
0.2552833,426
0.25695,393
0.2586167,506
0.2602833,503
0.26195,534
0.2636333,364
0.2652833,562
0.26695,478
0.2686167,448
0.2702833,445
0.27195,397
0.2736167,415
0.2752833,432
0.27695,451
0.2786167,486
0.2803,455
0.2819667,424
0.2836167,444
0.2852833,452
0.2869667,460
0.2886167,459
0.2902833,477
0.29195,518
0.2936167,526
0.2952833,534
0.2969667,489
0.2986333,388
0.3002833,423
0.30195,459
0.3036333,478
0.3052833,498
0.30695,518
0.3086167,511
0.3103,548
0.31195,390
0.3136333,424
0.3153,454
0.31695,504
0.3186167,470
0.3202833,435
0.3219667,509
0.3236167,383
0.3252833,529
0.3269667,434
0.3286167,532
0.3303,592
0.3319667,411
0.3336333,592
0.3352833,512
0.33695,571
0.3386333,550
0.3403,598
0.34195,416
0.3436333,573
0.3452833,604
0.3469667,675
0.3486167,455
0.3503,479
0.35195,485
0.3536333,469
0.3553,487
0.3569667,534
0.3586167,593
0.3603,711
0.3619667,748
0.3636333,1034
0.3653,1308
0.3669667,2985
0.3686333,5059
0.3703,8106
0.3719667,8316
0.3736333,8324
0.3753,8308
0.3769667,7646
0.3786333,6775
0.3803,4789
0.3819667,4463
0.3836333,3750
0.3853,3443
0.3869667,2704
0.3886333,2401
0.3903,2073
0.3919667,2011
0.3936333,1718
0.3953,1420
0.3969667,1232
0.3986333,1184
0.4003,1259
0.4019667,1176
0.4036333,999
0.4053,1257
0.4069667,1452
0.4086333,1425
0.4103,1286
0.4119667,1489
0.4136333,1516
0.4153,1469
0.4169667,1457
0.4186333,1435
0.4203,1414
0.4219667,1301
0.4236333,1356
0.4253,1412
0.4269667,1314
0.4286333,1538
0.4303,1534
0.4319667,1695
0.4336333,2153
0.4353,2986
0.4369667,3696
0.4386333,5446
0.4403,7287
0.4419667,10296
0.4436333,12804
0.4453,16652
0.4469667,22976
0.4486333,30024
0.4503,39728
0.4519667,49600
0.4536333,64624
0.4553,80720
0.4569667,97504
0.4586333,122192
0.4603,148992
0.4619667,175744
0.4636333,211968
0.4653,244736
0.4669667,281600
0.4686333,310400
0.4703,337152
0.4719667,352320
0.4736333,346944
0.4753,324736
0.4769667,300416
0.4786333,266432
0.4803,230400
0.4819667,189504
0.4836333,152320
0.4853,119376
0.4869667,91424
0.4886333,71936
0.4903,53088
0.4919667,41104
0.4936333,31284
0.4953,24600
0.4969667,18804
0.4986333,15208
0.5003,13580
0.5019667,10848
0.5036333,9084
0.5053,7993
0.5069667,7134
0.5086333,5966
0.5103,5679
0.5119666,5491
0.5136333,5503
0.5153,4717
0.5169666,4588
0.5186333,4076
0.5203,3413
0.5219667,3702
0.5236334,3454
0.5253,3273
0.5269667,3151
0.5286334,2711
0.5303,2785
0.5319667,2801
0.5336334,2605
0.5353,2656
0.5369667,2409
0.5386333,2445
0.5403,2404
0.5419667,2118
0.5436333,2257
0.5453,2164
0.5469667,2102
0.5486333,1964
0.5503,1976
0.5519667,1719
0.5536333,1770
0.5553,1792
0.5569667,1743
0.5586333,1402
0.5603,1702
0.5619667,1581
0.5636333,1261
0.5653,1271
0.5669667,1308
0.5686333,1334
0.5703,1361
0.5719666,1259
0.5736333,1159
0.5753,1255
0.5769666,1154
0.5786333,1107
0.5803,1060
0.5819666,1061
0.5836333,1039
0.5853,1114
0.5869667,1190
0.5886334,1161
0.5903,1096
0.5919667,1268
0.5936334,1317
0.5953,1193
0.5969667,1286
0.5986333,1241
0.6003,1154
0.6019667,1432
0.6036333,1469
0.6053,1280
0.6069667,1258
0.6086333,1120
0.6103,1085
0.6119667,1211
0.6136333,1100
0.6153,1203
0.6169667,1207
0.6186333,1211
0.6203,1248
0.6219667,1131
0.6236333,1013
0.6253,1082
0.6269667,965
0.6286333,1057
0.6303,885
0.6319667,846
0.6336333,830
0.6353,814
0.6369666,850
0.6386333,887
0.6403,759
0.6419666,821
0.6436333,806
0.6453,809
0.6469667,811
0.6486334,805
0.6503,718
0.6519667,773
0.6536334,729
0.6553,781
0.6569667,695
0.6586334,705
0.6603,764
0.6619667,777
0.6636333,789
0.6653,604
0.6669667,788
0.6686333,719
0.6703,710
0.6719667,787
0.6736333,650
0.6753,646
0.6769667,675
0.6786333,583
0.6803,610
0.6819667,725
0.6836333,813
0.6853,788
0.6869667,666
0.6886333,757
0.6903,876
0.6919667,562
0.6936333,798
0.6953,653
0.6969666,627
0.6986333,749
0.7003,786
0.7019666,726
0.7036333,684
0.7053,560
0.7069666,682
0.7086333,633
0.7103,584
0.7119667,577
0.7136334,575
0.7153,620
0.7169667,685
0.7186334,750
0.7203,786
0.7219667,816
0.7236333,752
0.7253,655
0.7269667,597
0.7286333,609
0.7303,668
0.7319667,679
0.7336333,657
0.7353,651
0.7369667,645
0.7386333,643
0.7403,708
0.7419667,513
0.7436333,780
0.7453,747
0.7469667,655
0.7486333,598
0.7503,636
0.7519667,583
0.7536333,529
0.7553,663
0.7569667,668
0.7586333,571
0.7603,708
0.7619666,685
0.7636333,727
0.7653,758
0.7669666,584
0.7686333,710
0.7703,576
0.7719667,596
0.7736334,616
0.7753,649
0.7769667,637
0.7786334,650
0.7803,608
0.7819667,566
0.7836334,568
0.7853,527
0.7869667,455
0.7886333,704
0.7903,673
0.7919667,729
0.7936333,657
0.7953,628
0.7969667,513
0.7986333,685
0.8003,671
0.8019667,593
0.8036333,545
0.8053,497
0.8069667,644
0.8086333,724
0.8103,694
0.8119667,615
0.8136333,691
0.8153,438
0.8169667,579
0.8186333,566
0.8203,718
0.8219666,721
0.8236333,724
0.8253,648
0.8269666,706
0.8286333,632
0.8303,659
0.8319666,650
0.8336333,641
0.8353,541
0.8369667,595
0.8386334,630
0.8403,664
0.8419667,607
0.8436334,549
0.8453,582
0.8469667,567
0.8486333,660
0.8503,635
0.8519667,609
0.8536333,615
0.8553,524
0.8569667,607
0.8586333,645
0.8603,682
0.8619667,510
0.8636333,612
0.8653,540
0.8669667,551
0.8686333,632
0.8703,592
0.8719667,566
0.8736333,486
0.8753,570
0.8769667,564
0.8786333,558
0.8803,850
0.8819667,965
0.8836333,1562
0.8853,1763
0.8869666,1965
0.8886333,1939
0.8903,2566
0.8919666,2921
0.8936333,3001
0.8953,3091
0.8969667,2940
0.8986334,3250
0.9003,3183
0.9019667,2935
0.9036334,3033
0.9053,3075
0.9069667,3117
0.9086334,3151
0.9103,3128
0.9119667,3105
0.9136333,3115
0.9153,3125
0.9169667,3311
0.9186333,3534
0.9203,3427
0.9219667,3678
0.9236333,2987
0.9253,3252
0.9269667,2887
0.9286333,2840
0.9303,2930
0.9319667,2928
0.9336333,2925
0.9353,2734
0.9369667,2929
0.9386333,2335
0.9403,2850
0.9419667,2534
0.9436333,2668
0.9453,2673
0.9469666,2174
0.9486333,2199
0.9503,2350
0.9519666,2353
0.9536333,1878
0.9553,1665
0.9569666,1635
0.9586333,1633
0.9603,1411
0.9619667,1548
0.9636334,1257
0.9653,1165
0.9669667,1190
0.9686334,1052
0.9703,1059
0.9719667,979
0.9736333,856
0.9753,924
0.9769667,757
0.9786333,819
0.9803,704
0.9819667,710
0.9836333,782
0.9853,615
0.9869667,604
0.9886333,449
0.9903,603
0.9919667,533
0.9936333,476
0.9953,609
0.9969667,529
0.9986333,426
1.0003,554
1.001967,433
1.003633,544
1.0053,565
1.006967,526
1.008633,452
1.0103,495
1.011967,427
1.013633,418
1.0153,519
1.016967,565
1.018633,543
1.0203,521
1.021967,607
1.023633,595
1.0253,583
1.026967,645
1.028633,397
1.0303,587
1.031967,608
1.033633,604
1.0353,534
1.036967,595
1.038633,458
1.0403,596
1.041967,511
1.043633,434
1.0453,548
1.046967,496
1.048633,483
1.0503,511
1.051967,537
1.053633,538
1.0553,538
1.056967,530
1.058633,463
1.0603,519
1.061967,417
1.063633,487
1.0653,477
1.066967,468
1.068633,534
1.0703,513
1.071967,491
1.073633,532
1.0753,449
1.076967,454
1.078633,460
1.0803,500
1.081967,541
1.083633,547
1.0853,552
1.086967,448
1.088633,484
1.0903,519
1.091967,503
1.093633,488
1.0953,582
1.096967,547
1.098633,511
1.1003,569
1.101967,626
1.103633,590
1.1053,635
1.106967,455
1.108633,679
1.1103,600
1.111967,696
1.113633,631
1.1153,560
1.116967,489
1.118633,565
1.1203,561
1.121967,578
1.123633,575
1.1253,573
1.126967,610
1.128633,499
1.1303,458
1.131967,627
1.133633,516
1.1353,671
1.136967,532
1.138633,648
1.1403,488
1.141967,653
1.143633,688
1.1453,647
1.146967,653
1.148633,631
1.1503,544
1.151967,457
1.153633,702
1.1553,690
1.156967,723
1.158633,636
1.1603,411
1.161967,574
1.163633,802
1.1653,677
1.166967,541
1.168633,459
1.1703,653
1.171967,594
1.173633,743
1.1753,563
1.176967,562
1.178633,562
1.1803,528
1.181967,801
1.183633,772
1.1853,564
1.186967,667
1.188633,645
1.1903,604
1.191967,616
1.193633,465
1.1953,656
1.196967,635
1.198633,638
