"SampleName","A2Rd2_01-60"
"Target Mass 1",
"Column Name","IA-3 (3um, 4.6X100)"
"Channel","QDa 1: SIR Ch1"
0.00195,471
0.003616667,713
0.005283333,497
0.00695,689
0.008616666,624
0.01028333,633
0.01195,620
0.01361667,399
0.01528333,532
0.01695,646
0.01861667,476
0.02028333,523
0.02195,432
0.02361667,484
0.02528333,403
0.02695,544
0.02861667,557
0.03028333,570
0.03195,491
0.03361667,414
0.03528333,467
0.03695,491
0.03861667,420
0.04028333,446
0.04195,472
0.04361667,566
0.04528333,532
0.04695,461
0.04861667,412
0.05028334,470
0.05195,547
0.05361667,540
0.05528333,578
0.05695,511
0.05861667,530
0.06028333,417
0.06195,610
0.06361666,554
0.06528334,666
0.06695,656
0.06861667,381
0.07028333,520
0.07195,451
0.07361667,427
0.07528333,542
0.07695,498
0.07861666,563
0.08028334,504
0.08195,473
0.08361667,477
0.08528333,440
0.08695,485
0.08861667,521
0.09028333,558
0.09195,536
0.09361666,501
0.09528334,466
0.09695,640
0.09861667,602
0.1002833,552
0.10195,490
0.1036167,580
0.1052833,578
0.10695,449
0.1086167,586
0.1102833,484
0.11195,448
0.1136167,560
0.1152833,407
0.11695,486
0.1186167,494
0.1202833,502
0.12195,504
0.1236167,469
0.1252833,442
0.12695,525
0.1286167,463
0.1302833,588
0.1319667,598
0.1336167,512
0.1352833,407
0.13695,564
0.1386167,455
0.1402833,528
0.14195,398
0.1436167,518
0.1452833,408
0.14695,447
0.1486167,416
0.1502833,524
0.15195,547
0.1536167,562
0.1552833,583
0.15695,394
0.1586333,661
0.1602833,547
0.16195,577
0.1636167,540
0.1652833,496
0.16695,521
0.1686167,398
0.1702833,480
0.17195,570
0.1736167,424
0.1753,372
0.17695,503
0.1786333,550
0.1802833,606
0.1819667,534
0.1836167,577
0.1852833,493
0.18695,387
0.1886167,458
0.1902833,497
0.19195,473
0.1936167,449
0.1952833,398
0.19695,417
0.1986167,436
0.2002833,463
0.20195,463
0.2036167,479
0.2052833,470
0.20695,531
0.2086167,503
0.2102833,474
0.2119667,491
0.2136167,548
0.2152833,525
0.21695,503
0.2186167,454
0.2203,506
0.22195,485
0.2236167,463
0.2252833,536
0.22695,563
0.2286333,548
0.2302833,577
0.2319667,607
0.2336167,455
0.2352833,482
0.23695,455
0.2386333,486
0.2402833,575
0.2419667,581
0.2436167,476
0.2453,436
0.24695,467
0.2486333,448
0.2502833,429
0.2519667,436
0.2536167,443
0.2553,434
0.25695,424
0.2586333,430
0.2602833,437
0.2619667,526
0.2636333,312
0.2653,361
0.26695,411
0.2686333,491
0.2702833,469
0.27195,637
0.2736167,637
0.2753,341
0.27695,442
0.2786333,486
0.2803,607
0.2819667,565
0.2836333,549
0.2853,647
0.2869667,475
0.2886167,559
0.2902833,592
0.2919667,455
0.2936167,584
0.2953,474
0.29695,527
0.2986333,417
0.3003,509
0.3019667,502
0.3036333,547
0.3053,553
0.30695,507
0.3086333,511
0.3102833,516
0.3119667,522
0.3136167,463
0.3153,583
0.31695,566
0.3186333,549
0.3202833,615
0.3219667,701
0.3236167,659
0.3253,441
0.3269667,562
0.3286333,666
0.3302833,757
0.3319667,611
0.3336333,480
0.3353,555
0.33695,512
0.3386333,399
0.3402833,508
0.3419667,573
0.3436167,641
0.3453,437
0.34695,694
0.3486333,522
0.3503,511
0.3519667,512
0.3536333,461
0.3553,496
0.3569667,531
0.3586333,444
0.3603,653
0.3619667,677
0.3636333,684
0.3653,973
0.3669667,1722
0.3686333,3627
0.3703,5123
0.3719667,6426
0.3736333,7168
0.3753,7492
0.3769667,7275
0.3786333,6911
0.3803,5682
0.3819667,4802
0.3836333,3973
0.3853,4125
0.3869667,3848
0.3886333,4080
0.3903,3523
0.3919667,2690
0.3936333,2371
0.3953,1976
0.3969667,1380
0.3986333,1064
0.4003,1277
0.4019667,896
0.4036333,1012
0.4053,975
0.4069667,669
0.4086333,879
0.4103,729
0.4119667,802
0.4136333,753
0.4153,710
0.4169667,793
0.4186333,615
0.4203,595
0.4219667,577
0.4236333,614
0.4253,651
0.4269667,482
0.4286333,582
0.4303,707
0.4319667,887
0.4336333,1457
0.4353,1689
0.4369667,3049
0.4386333,5087
0.4403,7360
0.4419667,10628
0.4436333,16804
0.4453,23020
0.4469667,32500
0.4486333,43776
0.4503,59936
0.4519667,74928
0.4536333,91552
0.4553,113648
0.4569667,129616
0.4586333,152576
0.4603,174336
0.4619667,195264
0.4636333,218688
0.4653,248704
0.4669667,277952
0.4686333,300160
0.4703,320704
0.4719667,336640
0.4736333,342784
0.4753,327744
0.4769667,313728
0.4786333,285696
0.4803,254720
0.4819667,216768
0.4836333,183104
0.4853,151808
0.4869667,121840
0.4886333,96192
0.4903,74224
0.4919667,57664
0.4936333,45136
0.4953,34352
0.4969667,27604
0.4986333,21956
0.5003,17544
0.5019667,13792
0.5036333,11656
0.5053,10472
0.5069667,8668
0.5086333,8380
0.5103,7470
0.5119666,6194
0.5136333,5870
0.5153,5535
0.5169666,4492
0.5186333,4487
0.5203,4211
0.5219667,3868
0.5236334,4092
0.5253,3298
0.5269667,3144
0.5286334,3065
0.5303,2855
0.5319667,2507
0.5336334,2535
0.5353,2757
0.5369667,2479
0.5386333,2426
0.5403,2242
0.5419667,2110
0.5436333,1741
0.5453,2122
0.5469667,1671
0.5486333,1884
0.5503,1780
0.5519667,1607
0.5536333,1819
0.5553,1584
0.5569667,1904
0.5586333,1275
0.5603,1483
0.5619667,1255
0.5636333,1305
0.5653,1383
0.5669667,1333
0.5686333,1445
0.5703,1471
0.5719666,1281
0.5736333,1144
0.5753,1029
0.5769666,979
0.5786333,1151
0.5803,1170
0.5819666,1306
0.5836333,1207
0.5853,1076
0.5869667,1048
0.5886334,1030
0.5903,1106
0.5919667,888
0.5936334,875
0.5953,949
0.5969667,951
0.5986333,1013
0.6003,998
0.6019667,982
0.6036333,998
0.6053,1014
0.6069667,970
0.6086333,911
0.6103,848
0.6119667,825
0.6136333,940
0.6153,906
0.6169667,872
0.6186333,884
0.6203,599
0.6219667,814
0.6236333,918
0.6253,740
0.6269667,726
0.6286333,765
0.6303,699
0.6319667,685
0.6336333,660
0.6353,617
0.6369666,574
0.6386333,705
0.6403,681
0.6419666,656
0.6436333,600
0.6453,602
0.6469667,454
0.6486334,784
0.6503,808
0.6519667,709
0.6536334,609
0.6553,513
0.6569667,489
0.6586334,507
0.6603,469
0.6619667,490
0.6636333,511
0.6653,540
0.6669667,538
0.6686333,536
0.6703,505
0.6719667,428
0.6736333,555
0.6753,622
0.6769667,529
0.6786333,527
0.6803,499
0.6819667,525
0.6836333,525
0.6853,526
0.6869667,543
0.6886333,631
0.6903,369
0.6919667,590
0.6936333,487
0.6953,481
0.6969666,501
0.6986333,531
0.7003,521
0.7019666,510
0.7036333,439
0.7053,377
0.7069666,493
0.7086333,444
0.7103,511
0.7119667,535
0.7136334,493
0.7153,516
0.7169667,352
0.7186334,382
0.7203,549
0.7219667,520
0.7236333,326
0.7253,408
0.7269667,491
0.7286333,324
0.7303,493
0.7319667,478
0.7336333,444
0.7353,432
0.7369667,398
0.7386333,393
0.7403,387
0.7419667,436
0.7436333,485
0.7453,506
0.7469667,384
0.7486333,494
0.7503,525
0.7519667,494
0.7536333,443
0.7553,506
0.7569667,434
0.7586333,452
0.7603,304
0.7619666,492
0.7636333,444
0.7653,576
0.7669666,425
0.7686333,499
0.7703,367
0.7719667,341
0.7736334,512
0.7753,461
0.7769667,572
0.7786334,376
0.7803,431
0.7819667,529
0.7836334,371
0.7853,436
0.7869667,397
0.7886333,449
0.7903,314
0.7919667,510
0.7936333,491
0.7953,367
0.7969667,424
0.7986333,492
0.8003,441
0.8019667,404
0.8036333,531
0.8053,474
0.8069667,454
0.8086333,560
0.8103,553
0.8119667,418
0.8136333,614
0.8153,419
0.8169667,359
0.8186333,450
0.8203,457
0.8219666,465
0.8236333,418
0.8253,373
0.8269666,429
0.8286333,401
0.8303,372
0.8319666,425
0.8336333,437
0.8353,424
0.8369667,337
0.8386334,301
0.8403,350
0.8419667,354
0.8436334,359
0.8453,411
0.8469667,359
0.8486333,307
0.8503,383
0.8519667,486
0.8536333,483
0.8553,490
0.8569667,498
0.8586333,503
0.8603,224
0.8619667,426
0.8636333,357
0.8653,382
0.8669667,384
0.8686333,449
0.8703,460
0.8719667,387
0.8736333,412
0.8753,421
0.8769667,468
0.8786333,335
0.8803,316
0.8819667,384
0.8836333,383
0.8853,381
0.8869666,420
0.8886333,427
0.8903,545
0.8919666,601
0.8936333,549
0.8953,498
0.8969667,658
0.8986334,605
0.9003,623
0.9019667,630
0.9036334,441
0.9053,576
0.9069667,585
0.9086334,590
0.9103,567
0.9119667,545
0.9136333,476
0.9153,483
0.9169667,562
0.9186333,641
0.9203,599
0.9219667,506
0.9236333,501
0.9253,496
0.9269667,564
0.9286333,643
0.9303,593
0.9319667,516
0.9336333,637
0.9353,547
0.9369667,539
0.9386333,533
0.9403,597
0.9419667,594
0.9436333,637
0.9453,684
0.9469666,519
0.9486333,402
0.9503,538
0.9519666,558
0.9536333,578
0.9553,590
0.9569666,586
0.9586333,583
0.9603,580
0.9619667,577
0.9636334,434
0.9653,453
0.9669667,574
0.9686334,528
0.9703,344
0.9719667,372
0.9736333,429
0.9753,388
0.9769667,348
0.9786333,399
0.9803,369
0.9819667,361
0.9836333,404
0.9853,304
0.9869667,431
0.9886333,273
0.9903,314
0.9919667,330
0.9936333,425
0.9953,410
0.9969667,315
0.9986333,238
1.0003,296
1.001967,335
1.003633,421
1.0053,375
1.006967,426
1.008633,300
1.0103,345
1.011967,375
1.013633,379
1.0153,383
1.016967,334
1.018633,332
1.0203,371
1.021967,287
1.023633,304
1.0253,320
1.026967,380
1.028633,402
1.0303,348
1.031967,361
1.033633,387
1.0353,363
1.036967,338
1.038633,401
1.0403,362
1.041967,395
1.043633,416
1.0453,466
1.046967,451
1.048633,385
1.0503,323
1.051967,419
1.053633,377
1.0553,442
1.056967,396
1.058633,309
1.0603,421
1.061967,317
1.063633,282
1.0653,332
1.066967,315
1.068633,298
1.0703,342
1.071967,324
1.073633,314
1.0753,312
1.076967,365
1.078633,363
1.0803,360
1.081967,360
1.083633,360
1.0853,364
1.086967,369
1.088633,378
1.0903,371
1.091967,363
1.093633,353
1.0953,378
1.096967,403
1.098633,396
1.1003,263
1.101967,380
1.103633,300
1.1053,428
1.106967,400
1.108633,391
1.1103,287
1.111967,302
1.113633,316
1.1153,342
1.116967,239
1.118633,268
1.1203,297
1.121967,413
1.123633,457
1.1253,252
1.126967,361
1.128633,399
1.1303,404
1.131967,315
1.133633,340
1.1353,348
1.136967,357
1.138633,365
1.1403,394
1.141967,308
1.143633,282
1.1453,400
1.146967,424
1.148633,495
1.1503,346
1.151967,349
1.153633,380
1.1553,389
1.156967,398
1.158633,397
1.1603,396
1.161967,335
1.163633,402
1.1653,331
1.166967,382
1.168633,398
1.1703,403
1.171967,386
1.173633,316
1.1753,329
1.176967,342
1.178633,365
1.1803,376
1.181967,365
1.183633,349
1.1853,398
1.186967,322
1.188633,247
1.1903,317
1.191967,366
1.193633,420
1.1953,445
1.196967,353
1.198633,306
