"SampleName","A2Rd2_01-40"
"Target Mass 1",
"Column Name","IA-3 (3um, 4.6X100)"
"Channel","QDa 1: SIR Ch1"
0.00195,386
0.003616667,647
0.005283333,624
0.00695,721
0.008616666,674
0.01028333,628
0.01195,587
0.01361667,555
0.01528333,761
0.01695,801
0.01861667,610
0.02028333,549
0.02195,846
0.02361667,616
0.02528333,626
0.02695,526
0.02861667,601
0.03028333,613
0.03195,592
0.03361667,592
0.03528333,595
0.03695,616
0.03861667,637
0.04028333,505
0.04195,593
0.04361667,655
0.04528333,647
0.04695,683
0.04861667,650
0.05028334,702
0.05195,702
0.05361667,736
0.05528333,580
0.05695,842
0.05861667,757
0.06028333,558
0.06195,560
0.06361666,685
0.06528334,614
0.06695,585
0.06861667,702
0.07028333,559
0.07195,525
0.07361667,666
0.07528333,736
0.07695,742
0.07861666,626
0.08028334,536
0.08195,585
0.08361667,586
0.08528333,586
0.08695,579
0.08861667,572
0.09028333,533
0.09195,512
0.09361666,527
0.09528334,670
0.09695,662
0.09861667,554
0.1002833,639
0.10195,570
0.1036167,653
0.1052833,612
0.10695,516
0.1086167,601
0.1102833,553
0.11195,589
0.1136167,598
0.1152833,607
0.11695,493
0.1186167,522
0.1202833,551
0.12195,558
0.1236167,514
0.1252833,471
0.12695,513
0.1286167,555
0.1302833,547
0.13195,539
0.1336167,549
0.1352833,536
0.13695,580
0.1386167,613
0.1402833,611
0.14195,584
0.1436167,556
0.1452833,500
0.14695,593
0.1486167,557
0.1502833,578
0.15195,600
0.1536167,565
0.1552833,577
0.15695,590
0.1586167,598
0.1602833,686
0.16195,442
0.1636167,693
0.1652833,685
0.16695,579
0.1686167,589
0.1702833,644
0.17195,737
0.1736167,696
0.1752833,605
0.17695,604
0.1786167,608
0.1802833,613
0.18195,592
0.1836167,571
0.1852833,649
0.18695,672
0.1886167,572
0.1902833,605
0.19195,638
0.1936167,701
0.1952833,699
0.19695,640
0.1986167,736
0.2002833,436
0.20195,664
0.2036167,416
0.2052833,649
0.20695,450
0.2086167,567
0.2102833,538
0.21195,575
0.2136167,560
0.2152833,545
0.21695,571
0.2186167,546
0.2202833,522
0.22195,557
0.2236167,533
0.2252833,508
0.22695,518
0.2286167,654
0.2302833,672
0.23195,720
0.2336167,456
0.2352833,780
0.23695,555
0.2386167,640
0.2402833,570
0.24195,460
0.2436167,592
0.2452833,572
0.24695,551
0.2486167,489
0.2502833,523
0.25195,497
0.2536167,594
0.2552833,572
0.25695,584
0.2586167,585
0.2602833,562
0.26195,641
0.2636333,643
0.2652833,551
0.26695,416
0.2686167,676
0.2702833,504
0.27195,642
0.2736167,627
0.2752833,601
0.2769667,570
0.2786167,657
0.2803,613
0.28195,570
0.2836167,629
0.2852833,534
0.28695,549
0.2886167,659
0.2902833,590
0.29195,553
0.2936167,610
0.2952833,677
0.29695,638
0.2986333,600
0.3002833,582
0.30195,563
0.3036167,567
0.3052833,571
0.30695,656
0.3086167,689
0.3102833,682
0.31195,606
0.3136167,527
0.3153,679
0.31695,479
0.3186167,602
0.3202833,641
0.32195,588
0.3236167,622
0.3253,612
0.3269667,522
0.3286167,563
0.3302833,604
0.33195,635
0.3336333,536
0.3352833,481
0.3369667,585
0.3386167,624
0.3403,596
0.3419667,567
0.3436167,603
0.3452833,659
0.34695,766
0.3486167,418
0.3503,630
0.35195,548
0.3536333,534
0.3552833,536
0.35695,587
0.3586333,640
0.3602833,834
0.36195,942
0.3636167,1207
0.3652833,2053
0.36695,3999
0.3686333,6144
0.3703,7306
0.3719667,7907
0.3736333,6729
0.3753,5852
0.3769667,4652
0.3786333,4179
0.3803,3459
0.3819667,2498
0.3836333,2029
0.3853,1845
0.3869667,1451
0.3886333,1268
0.3903,1286
0.3919667,1140
0.3936333,1350
0.3953,1302
0.3969667,1214
0.3986333,1391
0.4003,1494
0.4019667,1580
0.4036333,1756
0.4053,1829
0.4069667,2028
0.4086333,1864
0.4103,2149
0.4119667,2273
0.4136333,2143
0.4153,2143
0.4169667,2302
0.4186333,2300
0.4203,2298
0.4219667,2236
0.4236333,2107
0.4253,1957
0.4269667,1902
0.4286333,2074
0.4303,2044
0.4319667,2090
0.4336333,2676
0.4353,3726
0.4369667,4863
0.4386333,6499
0.4403,9576
0.4419667,11668
0.4436333,16428
0.4453,22524
0.4469667,28840
0.4486333,38704
0.4503,50688
0.4519667,64848
0.4536333,78992
0.4553,100368
0.4569667,124912
0.4586333,154432
0.4603,189056
0.4619667,230656
0.4636333,266432
0.4653,318272
0.4669667,354112
0.4686333,392768
0.4703,404096
0.4719667,414144
0.4736333,409728
0.4753,375104
0.4769667,342720
0.4786333,300160
0.4803,257152
0.4819667,210240
0.4836333,166912
0.4853,133568
0.4869667,103584
0.4886333,79248
0.4903,58288
0.4919667,47680
0.4936333,36912
0.4953,29688
0.4969667,23708
0.4986333,19900
0.5003,15420
0.5019667,13488
0.5036333,11332
0.5053,9952
0.5069667,9412
0.5086333,8091
0.5103,7388
0.5119666,7023
0.5136333,6153
0.5153,5917
0.5169666,5288
0.5186333,5072
0.5203,5206
0.5219667,4729
0.5236334,5221
0.5253,4010
0.5269667,4204
0.5286334,4312
0.5303,3865
0.5319667,3499
0.5336334,3802
0.5353,3358
0.5369667,3539
0.5386333,3401
0.5403,3006
0.5419667,2813
0.5436333,2985
0.5453,3107
0.5469667,2804
0.5486333,2587
0.5503,2777
0.5519667,2396
0.5536333,2621
0.5553,2230
0.5569667,2352
0.5586333,2545
0.5603,2243
0.5619667,2175
0.5636333,1951
0.5653,2085
0.5669667,2228
0.5686333,2183
0.5703,2139
0.5719666,2297
0.5736333,2372
0.5753,1876
0.5769666,2149
0.5786333,2092
0.5803,2245
0.5819666,1965
0.5836333,2116
0.5853,2291
0.5869667,2320
0.5886334,2328
0.5903,2291
0.5919667,2468
0.5936334,2129
0.5953,2322
0.5969667,2124
0.5986333,2002
0.6003,1872
0.6019667,2122
0.6036333,2008
0.6053,1800
0.6069667,1762
0.6086333,1933
0.6103,2050
0.6119667,1972
0.6136333,1927
0.6153,2031
0.6169667,2024
0.6186333,1846
0.6203,1746
0.6219667,1883
0.6236333,1643
0.6253,1875
0.6269667,1639
0.6286333,1579
0.6303,1518
0.6319667,1492
0.6336333,1388
0.6353,1341
0.6369666,1411
0.6386333,1310
0.6403,1214
0.6419666,1242
0.6436333,1194
0.6453,1147
0.6469667,1479
0.6486334,1415
0.6503,1258
0.6519667,1307
0.6536334,1191
0.6553,1262
0.6569667,1335
0.6586334,1271
0.6603,1052
0.6619667,1233
0.6636333,1169
0.6653,1245
0.6669667,1392
0.6686333,1278
0.6703,1163
0.6719667,1278
0.6736333,1301
0.6753,1181
0.6769667,1090
0.6786333,1161
0.6803,1125
0.6819667,1090
0.6836333,1223
0.6853,1187
0.6869667,1095
0.6886333,1198
0.6903,1248
0.6919667,1271
0.6936333,1178
0.6953,1087
0.6969666,993
0.6986333,1172
0.7003,1214
0.7019666,1180
0.7036333,1114
0.7053,964
0.7069666,1234
0.7086333,897
0.7103,1166
0.7119667,968
0.7136334,1163
0.7153,1095
0.7169667,913
0.7186334,1307
0.7203,1161
0.7219667,924
0.7236333,1195
0.7253,1315
0.7269667,1046
0.7286333,1238
0.7303,1144
0.7319667,1281
0.7336333,985
0.7353,1109
0.7369667,1124
0.7386333,1094
0.7403,969
0.7419667,1091
0.7436333,1163
0.7453,943
0.7469667,1242
0.7486333,1041
0.7503,1064
0.7519667,1009
0.7536333,1046
0.7553,1083
0.7569667,1023
0.7586333,1020
0.7603,1017
0.7619666,1017
0.7636333,1018
0.7653,972
0.7669666,947
0.7686333,1182
0.7703,1187
0.7719667,1299
0.7736334,1125
0.7753,1012
0.7769667,884
0.7786334,1218
0.7803,915
0.7819667,1190
0.7836334,1159
0.7853,879
0.7869667,904
0.7886333,1078
0.7903,1154
0.7919667,974
0.7936333,1045
0.7953,1097
0.7969667,1245
0.7986333,1196
0.8003,1179
0.8019667,925
0.8036333,1429
0.8053,1263
0.8069667,1041
0.8086333,1259
0.8103,1206
0.8119667,1284
0.8136333,1293
0.8153,1341
0.8169667,1319
0.8186333,1355
0.8203,1333
0.8219666,1378
0.8236333,1346
0.8253,1315
0.8269666,1389
0.8286333,1157
0.8303,1411
0.8319666,1416
0.8336333,1320
0.8353,1211
0.8369667,1316
0.8386334,1274
0.8403,869
0.8419667,1069
0.8436334,1389
0.8453,1168
0.8469667,1062
0.8486333,1022
0.8503,983
0.8519667,945
0.8536333,966
0.8553,988
0.8569667,903
0.8586333,889
0.8603,1092
0.8619667,1282
0.8636333,1598
0.8653,2037
0.8669667,2342
0.8686333,3105
0.8703,3705
0.8719667,4354
0.8736333,4957
0.8753,5040
0.8769667,4965
0.8786333,5278
0.8803,5279
0.8819667,4971
0.8836333,4640
0.8853,4863
0.8869666,4302
0.8886333,4560
0.8903,4495
0.8919666,4522
0.8936333,4549
0.8953,4681
0.8969667,4711
0.8986334,4675
0.9003,4640
0.9019667,4703
0.9036334,4767
0.9053,4824
0.9069667,4793
0.9086334,4819
0.9103,4845
0.9119667,4658
0.9136333,4642
0.9153,4627
0.9169667,4741
0.9186333,4687
0.9203,4634
0.9219667,4054
0.9236333,4335
0.9253,4609
0.9269667,4096
0.9286333,4069
0.9303,4014
0.9319667,3924
0.9336333,3836
0.9353,3763
0.9369667,3367
0.9386333,3731
0.9403,3333
0.9419667,3125
0.9436333,2778
0.9453,2738
0.9469666,2457
0.9486333,2405
0.9503,2458
0.9519666,2290
0.9536333,2005
0.9553,1929
0.9569666,1917
0.9586333,1804
0.9603,1737
0.9619667,1593
0.9636334,1428
0.9653,1402
0.9669667,1345
0.9686334,1328
0.9703,1255
0.9719667,1039
0.9736333,1172
0.9753,1008
0.9769667,950
0.9786333,783
0.9803,844
0.9819667,826
0.9836333,808
0.9853,797
0.9869667,785
0.9886333,815
0.9903,757
0.9919667,768
0.9936333,745
0.9953,722
0.9969667,626
0.9986333,752
1.0003,697
1.001967,642
1.003633,652
1.0053,663
1.006967,683
1.008633,659
1.0103,635
1.011967,646
1.013633,685
1.0153,724
1.016967,714
1.018633,704
1.0203,747
1.021967,789
1.023633,730
1.0253,670
1.026967,614
1.028633,684
1.0303,713
1.031967,742
1.033633,724
1.0353,761
1.036967,767
1.038633,715
1.0403,677
1.041967,639
1.043633,693
1.0453,746
1.046967,801
1.048633,797
1.0503,822
1.051967,828
1.053633,835
1.0553,624
1.056967,701
1.058633,708
1.0603,678
1.061967,648
1.063633,771
1.0653,926
1.066967,851
1.068633,790
1.0703,784
1.071967,766
1.073633,770
1.0753,773
1.076967,735
1.078633,754
1.0803,773
1.081967,728
1.083633,687
1.0853,736
1.086967,786
1.088633,948
1.0903,906
1.091967,922
1.093633,683
1.0953,812
1.096967,867
1.098633,951
1.1003,680
1.101967,838
1.103633,669
1.1053,815
1.106967,870
1.108633,854
1.1103,894
1.111967,871
1.113633,777
1.1153,945
1.116967,811
1.118633,658
1.1203,741
1.121967,820
1.123633,706
1.1253,757
1.126967,808
1.128633,887
1.1303,831
1.131967,793
1.133633,730
1.1353,741
1.136967,897
1.138633,842
1.1403,788
1.141967,761
1.143633,776
1.1453,1073
1.146967,1009
1.148633,972
1.1503,1183
1.151967,1154
1.153633,1152
1.1553,1069
1.156967,946
1.158633,1024
1.1603,981
1.161967,977
1.163633,1207
1.1653,1220
1.166967,1221
1.168633,1241
1.1703,1050
1.171967,1203
1.173633,1318
1.1753,1062
1.176967,1426
1.178633,1222
1.1803,1356
1.181967,1309
1.183633,1385
1.1853,1220
1.186967,1108
1.188633,1412
1.1903,1446
1.191967,1318
1.193633,1396
1.1953,1116
1.196967,1202
1.198633,1211
