"SampleName","A2Rd2_01-46"
"Target Mass 1",
"Column Name","IA-3 (3um, 4.6X100)"
"Channel","QDa 1: SIR Ch1"
0.00195,365
0.003616667,517
0.005283333,497
0.00695,619
0.008616666,599
0.01028333,610
0.01195,650
0.01361667,496
0.01528333,487
0.01695,477
0.01861667,533
0.02028333,503
0.02195,473
0.02361667,535
0.02528333,563
0.02695,553
0.02861667,556
0.03028333,558
0.03195,638
0.03361667,446
0.03528333,554
0.03695,427
0.03861667,564
0.04028333,526
0.04195,477
0.04361667,479
0.04528333,538
0.04695,516
0.04861667,494
0.05028334,479
0.05195,464
0.05361667,510
0.05528333,413
0.05695,443
0.05861667,473
0.06028333,435
0.06195,396
0.06361666,406
0.06528334,463
0.06695,494
0.06861667,525
0.07028333,543
0.07195,524
0.07361667,504
0.07528333,523
0.07695,541
0.07861666,547
0.08028334,553
0.08195,492
0.08361667,486
0.08528333,505
0.08695,459
0.08861667,456
0.09028333,452
0.09195,471
0.09361666,506
0.09528334,541
0.09695,408
0.09861667,440
0.1002833,630
0.10195,552
0.1036167,538
0.1052833,464
0.10695,477
0.1086167,488
0.1102833,499
0.11195,522
0.1136167,605
0.1152833,598
0.11695,504
0.1186167,740
0.1202833,353
0.12195,417
0.1236167,690
0.1252833,519
0.12695,540
0.1286167,621
0.1302833,624
0.13195,540
0.1336167,504
0.1352833,482
0.13695,535
0.1386167,519
0.1402833,503
0.14195,482
0.1436167,437
0.1452833,459
0.14695,422
0.1486167,384
0.1502833,585
0.15195,623
0.1536167,665
0.1552833,593
0.15695,468
0.1586167,467
0.1602833,416
0.16195,495
0.1636167,477
0.1652833,458
0.16695,430
0.1686167,403
0.1702833,377
0.17195,426
0.1736167,476
0.1752833,473
0.17695,465
0.1786167,485
0.1802833,481
0.18195,477
0.1836167,442
0.1852833,459
0.18695,475
0.1886167,487
0.1902833,499
0.19195,528
0.1936167,556
0.1952833,569
0.19695,465
0.1986167,370
0.2002833,446
0.20195,455
0.2036167,413
0.2052833,373
0.20695,467
0.2086167,346
0.2102833,451
0.21195,524
0.2136167,538
0.2152833,462
0.21695,586
0.2186167,413
0.2202833,408
0.22195,545
0.2236167,515
0.2252833,530
0.22695,581
0.2286167,461
0.2302833,510
0.23195,485
0.2336167,437
0.2352833,464
0.23695,490
0.2386167,417
0.2402833,456
0.24195,343
0.2436167,477
0.2453,499
0.24695,521
0.2486167,552
0.2502833,533
0.25195,551
0.2536167,569
0.2552833,452
0.25695,422
0.2586167,606
0.2602833,426
0.26195,526
0.2636167,590
0.2652833,535
0.26695,534
0.2686167,533
0.2702833,493
0.27195,420
0.2736167,517
0.2752833,567
0.27695,554
0.2786167,464
0.2803,380
0.28195,564
0.2836167,553
0.2852833,505
0.28695,541
0.2886167,577
0.2902833,445
0.29195,529
0.2936167,549
0.2953,486
0.29695,547
0.2986333,608
0.3002833,634
0.30195,553
0.3036167,540
0.3052833,601
0.30695,590
0.3086167,579
0.3102833,493
0.31195,546
0.3136167,531
0.3153,516
0.31695,514
0.3186167,512
0.3202833,503
0.32195,494
0.3236167,551
0.3253,662
0.32695,676
0.3286167,629
0.3302833,634
0.33195,530
0.3336333,702
0.3352833,618
0.3369667,569
0.3386167,527
0.3402833,498
0.34195,470
0.3436167,522
0.3453,469
0.34695,472
0.3486167,468
0.3503,465
0.35195,436
0.3536167,478
0.3552833,521
0.35695,496
0.3586167,520
0.3602833,745
0.36195,953
0.3636167,973
0.3652833,1696
0.3669667,3379
0.3686333,5051
0.3703,6577
0.3719667,7487
0.3736333,7412
0.3753,6019
0.3769667,5797
0.3786167,4978
0.3803,4409
0.38195,2894
0.3836167,2848
0.3853,2019
0.3869667,1629
0.3886333,1492
0.3903,1339
0.39195,1221
0.3936333,1180
0.3953,1284
0.3969667,1303
0.3986167,1062
0.4003,1341
0.40195,1224
0.4036333,1519
0.4053,1662
0.4069667,1726
0.4086333,1918
0.4103,2205
0.4119667,2203
0.4136333,2537
0.4152833,2515
0.4169667,2515
0.4186167,2432
0.4203,2115
0.4219667,2397
0.4236333,2223
0.4253,2318
0.4269667,2413
0.4286333,2586
0.4303,3207
0.4319667,3857
0.4336333,4817
0.4353,5847
0.4369667,7473
0.4386333,9588
0.4403,13184
0.4419667,16684
0.4436333,20776
0.4453,28648
0.4469667,36384
0.4486333,47328
0.4503,59408
0.4519667,72880
0.4536333,88512
0.4553,107904
0.4569667,123168
0.4586333,148544
0.4603,173504
0.4619667,205568
0.4636333,235008
0.4653,275520
0.4669667,313088
0.4686333,344128
0.4703,372288
0.4719667,383744
0.4736333,386688
0.4753,380416
0.4769667,358080
0.4786333,320576
0.4803,281984
0.4819667,244864
0.4836333,196928
0.4853,161344
0.4869667,128688
0.4886333,100672
0.4903,78448
0.4919667,59696
0.4936333,46976
0.4953,37888
0.4969667,27148
0.4986333,22040
0.5003,18388
0.5019667,15224
0.5036333,13396
0.5053,10712
0.5069667,9988
0.5086333,9056
0.5103,8452
0.5119666,7318
0.5136333,6818
0.5153,6723
0.5169666,6066
0.5186333,5417
0.5203,4762
0.5219667,5020
0.5236334,4630
0.5253,5162
0.5269667,4310
0.5286334,3977
0.5303,4231
0.5319667,3611
0.5336334,3695
0.5353,4143
0.5369667,3954
0.5386333,3615
0.5403,3540
0.5419667,3299
0.5436333,3189
0.5453,3387
0.5469667,3129
0.5486333,2924
0.5503,2629
0.5519667,2622
0.5536333,2796
0.5553,2293
0.5569667,2310
0.5586333,2692
0.5603,2266
0.5619667,1860
0.5636333,2420
0.5653,2179
0.5669667,2284
0.5686333,2196
0.5703,1870
0.5719666,2234
0.5736333,2075
0.5753,1774
0.5769666,1719
0.5786333,2123
0.5803,2018
0.5819666,2119
0.5836333,1884
0.5853,1954
0.5869667,1801
0.5886334,1779
0.5903,1994
0.5919667,1882
0.5936334,1978
0.5953,1687
0.5969667,1775
0.5986333,1831
0.6003,1785
0.6019667,1927
0.6036333,1920
0.6053,1912
0.6069667,1782
0.6086333,1723
0.6103,1977
0.6119667,1657
0.6136333,2100
0.6153,1917
0.6169667,1824
0.6186333,1610
0.6203,1528
0.6219667,1540
0.6236333,1673
0.6253,1429
0.6269667,1469
0.6286333,1581
0.6303,1456
0.6319667,1332
0.6336333,1208
0.6353,1529
0.6369666,1134
0.6386333,1170
0.6403,1270
0.6419666,1362
0.6436333,1292
0.6453,1189
0.6469667,1346
0.6486334,983
0.6503,1199
0.6519667,1308
0.6536334,1263
0.6553,978
0.6569667,1165
0.6586334,1371
0.6603,1041
0.6619667,1250
0.6636333,1009
0.6653,1114
0.6669667,1209
0.6686333,1007
0.6703,1095
0.6719667,1035
0.6736333,1053
0.6753,1090
0.6769667,1047
0.6786333,1004
0.6803,1085
0.6819667,1063
0.6836333,1041
0.6853,921
0.6869667,1012
0.6886333,831
0.6903,1069
0.6919667,1023
0.6936333,922
0.6953,864
0.6969666,1006
0.6986333,971
0.7003,798
0.7019666,1089
0.7036333,1073
0.7053,1067
0.7069666,1125
0.7086333,914
0.7103,861
0.7119667,894
0.7136334,946
0.7153,1019
0.7169667,976
0.7186334,934
0.7203,742
0.7219667,801
0.7236333,932
0.7253,968
0.7269667,812
0.7286333,925
0.7303,793
0.7319667,991
0.7336333,899
0.7353,918
0.7369667,753
0.7386333,938
0.7403,950
0.7419667,926
0.7436333,939
0.7453,952
0.7469667,830
0.7486333,876
0.7503,986
0.7519667,929
0.7536333,871
0.7553,933
0.7569667,853
0.7586333,883
0.7603,883
0.7619666,876
0.7636333,870
0.7653,813
0.7669666,793
0.7686333,773
0.7703,791
0.7719667,847
0.7736334,903
0.7753,910
0.7769667,890
0.7786334,893
0.7803,896
0.7819667,953
0.7836334,664
0.7853,864
0.7869667,829
0.7886333,795
0.7903,812
0.7919667,679
0.7936333,774
0.7953,869
0.7969667,928
0.7986333,840
0.8003,753
0.8019667,757
0.8036333,824
0.8053,891
0.8069667,958
0.8086333,898
0.8103,848
0.8119667,749
0.8136333,646
0.8153,701
0.8169667,781
0.8186333,860
0.8203,865
0.8219666,860
0.8236333,856
0.8253,858
0.8269666,860
0.8286333,732
0.8303,828
0.8319666,714
0.8336333,768
0.8353,821
0.8369667,809
0.8386334,797
0.8403,715
0.8419667,632
0.8436334,813
0.8453,799
0.8469667,798
0.8486333,794
0.8503,790
0.8519667,831
0.8536333,846
0.8553,755
0.8569667,834
0.8586333,852
0.8603,828
0.8619667,800
0.8636333,970
0.8653,1402
0.8669667,1472
0.8686333,2028
0.8703,2287
0.8719667,2652
0.8736333,2979
0.8753,3287
0.8769667,3308
0.8786333,3254
0.8803,3307
0.8819667,3360
0.8836333,2962
0.8853,3071
0.8869666,3086
0.8886333,2804
0.8903,3050
0.8919666,2642
0.8936333,2944
0.8953,2764
0.8969667,2557
0.8986334,2880
0.9003,2893
0.9019667,2994
0.9036334,2915
0.9053,2869
0.9069667,2908
0.9086334,2978
0.9103,3049
0.9119667,3286
0.9136333,3314
0.9153,3109
0.9169667,3007
0.9186333,3094
0.9203,2867
0.9219667,2909
0.9236333,2951
0.9253,2989
0.9269667,3011
0.9286333,2730
0.9303,2897
0.9319667,2621
0.9336333,2598
0.9353,2621
0.9369667,2182
0.9386333,2577
0.9403,2272
0.9419667,2297
0.9436333,2159
0.9453,1941
0.9469666,1786
0.9486333,2020
0.9503,1879
0.9519666,1783
0.9536333,1664
0.9553,1559
0.9569666,1271
0.9586333,1572
0.9603,1392
0.9619667,1156
0.9636334,1083
0.9653,1279
0.9669667,948
0.9686334,1002
0.9703,1106
0.9719667,925
0.9736333,909
0.9753,844
0.9769667,905
0.9786333,612
0.9803,812
0.9819667,838
0.9836333,867
0.9853,679
0.9869667,661
0.9886333,659
0.9903,567
0.9919667,610
0.9936333,630
0.9953,634
0.9969667,593
0.9986333,552
1.0003,607
1.001967,594
1.003633,611
1.0053,611
1.006967,611
1.008633,559
1.0103,543
1.011967,571
1.013633,599
1.0153,621
1.016967,644
1.018633,644
1.0203,619
1.021967,595
1.023633,585
1.0253,576
1.026967,565
1.028633,554
1.0303,559
1.031967,565
1.033633,700
1.0353,727
1.036967,606
1.038633,576
1.0403,526
1.041967,524
1.043633,551
1.0453,578
1.046967,597
1.048633,617
1.0503,605
1.051967,592
1.053633,605
1.0553,617
1.056967,614
1.058633,612
1.0603,562
1.061967,656
1.063633,621
1.0653,634
1.066967,646
1.068633,565
1.0703,652
1.071967,691
1.073633,709
1.0753,673
1.076967,706
1.078633,487
1.0803,578
1.081967,669
1.083633,523
1.0853,448
1.086967,604
1.088633,563
1.0903,521
1.091967,539
1.093633,557
1.0953,572
1.096967,681
1.098633,712
1.1003,636
1.101967,749
1.103633,569
1.1053,720
1.106967,624
1.108633,597
1.1103,683
1.111967,731
1.113633,519
1.1153,551
1.116967,620
1.118633,621
1.1203,678
1.121967,651
1.123633,624
1.1253,413
1.126967,482
1.128633,723
1.1303,706
1.131967,734
1.133633,648
1.1353,767
1.136967,622
1.138633,642
1.1403,619
1.141967,660
1.143633,594
1.1453,635
1.146967,530
1.148633,640
1.1503,639
1.151967,624
1.153633,609
1.1553,623
1.156967,637
1.158633,603
1.1603,633
1.161967,456
1.163633,538
1.1653,639
1.166967,580
1.168633,632
1.1703,846
1.171967,812
1.173633,598
1.1753,584
1.176967,758
1.178633,686
1.1803,637
1.181967,703
1.183633,658
1.1853,612
1.186967,675
1.188633,756
1.1903,518
1.191967,747
1.193633,765
1.1953,563
1.196967,604
1.198633,745
