"SampleName","A2Rd2_01-96"
"Target Mass 1",
"Column Name","IA-3 (3um, 4.6X100)"
"Channel","QDa 1: SIR Ch2"
0.00195,507
0.003616667,673
0.005283333,651
0.00695,789
0.008616666,665
0.01028333,697
0.01195,850
0.01361667,834
0.01528333,817
0.01695,811
0.01861667,866
0.02028333,951
0.02195,903
0.02361667,855
0.02528333,709
0.02695,859
0.02861667,796
0.03028333,951
0.03195,872
0.03361667,925
0.03528333,1024
0.03695,701
0.03861667,1046
0.04028333,860
0.04195,753
0.04361667,880
0.04528333,950
0.04695,917
0.04861667,871
0.05028334,949
0.05195,930
0.05361667,910
0.05528333,939
0.05695,967
0.05861667,707
0.06028333,931
0.06195,910
0.06361666,793
0.06528334,847
0.06695,901
0.06861667,904
0.07028333,923
0.07195,724
0.07361667,762
0.07528333,776
0.07695,871
0.07861666,841
0.08028334,837
0.08195,860
0.08361667,883
0.08528333,786
0.08695,798
0.08861667,885
0.09028333,867
0.09195,850
0.09361666,813
0.09528334,858
0.09695,902
0.09861667,879
0.1002833,881
0.10195,883
0.1036167,725
0.1052833,757
0.10695,789
0.1086167,934
0.1102833,893
0.11195,880
0.1136167,654
0.1152833,862
0.11695,784
0.1186167,680
0.1202833,855
0.12195,675
0.1236167,779
0.1252833,882
0.12695,791
0.1286167,873
0.1302833,829
0.13195,785
0.1336167,829
0.1352833,831
0.13695,833
0.1386167,844
0.1402833,854
0.14195,894
0.1436167,787
0.1452833,801
0.14695,883
0.1486167,754
0.1502833,848
0.15195,679
0.1536167,855
0.1552833,816
0.15695,794
0.1586167,683
0.1602833,663
0.16195,818
0.1636167,789
0.1652833,918
0.16695,854
0.1686167,815
0.1702833,755
0.17195,645
0.1736167,793
0.1752833,739
0.17695,749
0.1786167,759
0.1802833,802
0.18195,845
0.1836167,857
0.1852833,754
0.18695,651
0.1886167,789
0.1902833,1028
0.19195,1045
0.1936167,691
0.1952833,702
0.19695,865
0.1986167,921
0.2002833,659
0.20195,798
0.2036167,982
0.2052833,936
0.20695,822
0.2086167,903
0.2102833,869
0.21195,835
0.2136167,917
0.2152833,899
0.21695,820
0.2186167,995
0.2202833,1019
0.22195,918
0.2236167,1068
0.2252833,1026
0.22695,1073
0.2286167,964
0.2302833,1240
0.23195,1323
0.2336167,1206
0.2352833,1279
0.23695,986
0.2386167,1004
0.2402833,1193
0.24195,1208
0.2436167,1223
0.2452833,1182
0.24695,1110
0.2486167,1017
0.2502833,1202
0.25195,1142
0.2536167,1083
0.2552833,1043
0.25695,1003
0.2586167,962
0.2602833,991
0.26195,1020
0.2636167,1073
0.2652833,1271
0.26695,1234
0.2686167,1087
0.2702833,1111
0.27195,1266
0.2736167,1121
0.2752833,1057
0.27695,1036
0.2786167,1136
0.2803,918
0.28195,865
0.2836167,900
0.2852833,962
0.28695,1172
0.2886333,1094
0.2902833,1010
0.2919667,1057
0.2936167,1132
0.2952833,919
0.29695,998
0.2986333,1014
0.3002833,1026
0.30195,945
0.3036167,980
0.3053,1015
0.30695,1095
0.3086167,1052
0.3102833,1010
0.31195,1274
0.3136167,1250
0.3153,1194
0.31695,1158
0.3186167,1264
0.3202833,1266
0.32195,1294
0.3236167,1334
0.3252833,1203
0.32695,1254
0.3286167,1228
0.3302833,1226
0.33195,1198
0.3336333,1155
0.3352833,935
0.33695,952
0.3386333,1124
0.3402833,1093
0.3419667,1061
0.3436167,1126
0.3452833,1191
0.3469667,1211
0.3486333,883
0.3503,1237
0.35195,1180
0.3536333,1021
0.3553,1198
0.3569667,1356
0.3586167,1349
0.3602833,1224
0.36195,1295
0.3636333,1487
0.3652833,1629
0.36695,2834
0.3686333,3493
0.3702833,3721
0.3719667,3942
0.3736333,3903
0.3752833,3864
0.37695,3694
0.3786167,3606
0.3803,3275
0.38195,2872
0.3836167,2523
0.3853,2061
0.3869667,2042
0.3886333,1808
0.3902833,1469
0.3919667,846
0.3936167,908
0.3952833,679
0.3969667,504
0.3986167,581
0.4002833,655
0.40195,595
0.4036333,574
0.4053,682
0.4069667,499
0.4086333,532
0.4103,624
0.41195,840
0.4136333,839
0.4152833,836
0.41695,818
0.4186167,718
0.4203,864
0.4219667,836
0.4236333,833
0.4253,742
0.4269667,581
0.4286167,878
0.4303,921
0.4319667,721
0.4336167,887
0.4352833,941
0.43695,746
0.4386333,963
0.4403,960
0.4419667,1033
0.4436333,1012
0.4453,989
0.4469667,965
0.4486333,1213
0.4503,1174
0.4519667,1178
0.4536333,1100
0.4553,1213
0.4569667,1163
0.4586333,1242
0.4603,1458
0.4619667,1430
0.4636333,1301
0.4653,1477
0.4669667,1360
0.4686333,1579
0.4703,1464
0.4719667,1667
0.4736333,1222
0.4753,1273
0.4769667,1239
0.4786333,1244
0.4803,1186
0.4819667,1142
0.4836333,1211
0.4853,1106
0.4869667,1147
0.4886333,1156
0.4903,1149
0.4919667,1013
0.4936333,1141
0.4953,1052
0.4969667,982
0.4986333,1171
0.5003,1076
0.5019667,1020
0.5036333,928
0.5053,1053
0.5069667,945
0.5086333,965
0.5103,1011
0.5119666,916
0.5136333,821
0.5153,1002
0.5169666,781
0.5186333,959
0.5203,1054
0.5219667,1169
0.5236334,933
0.5253,814
0.5269667,960
0.5286334,924
0.5303,908
0.5319667,1025
0.5336334,1097
0.5353,1047
0.5369667,1090
0.5386333,900
0.5403,1139
0.5419667,1088
0.5436333,954
0.5453,857
0.5469667,993
0.5486333,1065
0.5503,1132
0.5519667,891
0.5536333,902
0.5553,950
0.5569667,1005
0.5586333,968
0.5603,931
0.5619667,1011
0.5636333,942
0.5653,909
0.5669667,941
0.5686333,853
0.5703,867
0.5719666,881
0.5736333,1023
0.5753,1069
0.5769666,1045
0.5786333,953
0.5803,1104
0.5819666,989
0.5836333,859
0.5853,907
0.5869667,920
0.5886334,905
0.5903,920
0.5919667,935
0.5936334,944
0.5953,953
0.5969667,1132
0.5986333,1117
0.6003,853
0.6019667,1037
0.6036333,995
0.6053,904
0.6069667,1046
0.6086333,584
0.6103,941
0.6119667,1008
0.6136333,985
0.6153,961
0.6169667,915
0.6186333,984
0.6203,877
0.6219667,852
0.6236333,983
0.6253,942
0.6269667,1015
0.6286333,926
0.6303,905
0.6319667,950
0.6336333,924
0.6353,899
0.6369666,890
0.6386333,880
0.6403,1111
0.6419666,1145
0.6436333,909
0.6453,1010
0.6469667,844
0.6486334,960
0.6503,1077
0.6519667,1119
0.6536334,807
0.6553,1045
0.6569667,954
0.6586334,900
0.6603,944
0.6619667,868
0.6636333,841
0.6653,973
0.6669667,946
0.6686333,795
0.6703,775
0.6719667,806
0.6736333,795
0.6753,783
0.6769667,1003
0.6786333,1181
0.6803,1369
0.6819667,1154
0.6836333,1044
0.6853,1359
0.6869667,1559
0.6886333,1471
0.6903,1759
0.6919667,1847
0.6936333,2399
0.6953,2689
0.6969666,2481
0.6986333,2464
0.7003,2675
0.7019666,2886
0.7036333,2906
0.7053,3442
0.7069666,3457
0.7086333,3728
0.7103,3243
0.7119667,3440
0.7136334,3575
0.7153,3458
0.7169667,3470
0.7186334,3392
0.7203,3154
0.7219667,3088
0.7236333,2998
0.7253,3194
0.7269667,3041
0.7286333,2760
0.7303,2394
0.7319667,2302
0.7336333,1938
0.7353,2003
0.7369667,1850
0.7386333,1549
0.7403,1724
0.7419667,1322
0.7436333,1458
0.7453,1099
0.7469667,1070
0.7486333,1297
0.7503,834
0.7519667,1112
0.7536333,910
0.7553,1036
0.7569667,842
0.7586333,1101
0.7603,953
0.7619666,890
0.7636333,1044
0.7653,1088
0.7669666,1078
0.7686333,797
0.7703,936
0.7719667,916
0.7736334,987
0.7753,979
0.7769667,970
0.7786334,963
0.7803,1013
0.7819667,1064
0.7836334,1341
0.7853,1338
0.7869667,1761
0.7886333,1887
0.7903,2161
0.7919667,2558
0.7936333,3077
0.7953,3362
0.7969667,3694
0.7986333,3605
0.8003,4467
0.8019667,5042
0.8036333,4877
0.8053,5334
0.8069667,4959
0.8086333,5286
0.8103,5613
0.8119667,6124
0.8136333,6052
0.8153,6362
0.8169667,6256
0.8186333,5928
0.8203,6352
0.8219666,6303
0.8236333,6139
0.8253,6225
0.8269666,6140
0.8286333,5798
0.8303,5776
0.8319666,5780
0.8336333,4588
0.8353,4788
0.8369667,3980
0.8386334,3816
0.8403,3796
0.8419667,3021
0.8436334,2972
0.8453,2712
0.8469667,2391
0.8486333,2071
0.8503,1901
0.8519667,1908
0.8536333,1872
0.8553,1957
0.8569667,1349
0.8586333,1437
0.8603,1345
0.8619667,1389
0.8636333,1152
0.8653,1150
0.8669667,1222
0.8686333,1038
0.8703,1061
0.8719667,1084
0.8736333,1091
0.8753,1099
0.8769667,893
0.8786333,1029
0.8803,1095
0.8819667,1289
0.8836333,1543
0.8853,1625
0.8869666,1566
0.8886333,1550
0.8903,1529
0.8919666,1509
0.8936333,1497
0.8953,1484
0.8969667,1480
0.8986334,1470
0.9003,1388
0.9019667,1500
0.9036334,1692
0.9053,1675
0.9069667,1483
0.9086334,1783
0.9103,1304
0.9119667,1421
0.9136333,1539
0.9153,1215
0.9169667,1409
0.9186333,1522
0.9203,1473
0.9219667,1190
0.9236333,1385
0.9253,1455
0.9269667,1327
0.9286333,1176
0.9303,1551
0.9319667,1599
0.9336333,1253
0.9353,1341
0.9369667,1494
0.9386333,1236
0.9403,1361
0.9419667,1517
0.9436333,1412
0.9453,1229
0.9469666,1375
0.9486333,1323
0.9503,1270
0.9519666,1349
0.9536333,1219
0.9553,1271
0.9569666,1420
0.9586333,1355
0.9603,1262
0.9619667,1476
0.9636334,1470
0.9653,1498
0.9669667,1880
0.9686334,1857
0.9703,1791
0.9719667,1869
0.9736333,1947
0.9753,2226
0.9769667,2466
0.9786333,2637
0.9803,2888
0.9819667,2877
0.9836333,2866
0.9853,3422
0.9869667,3827
0.9886333,3460
0.9903,4483
0.9919667,4263
0.9936333,4386
0.9953,4596
0.9969667,4554
0.9986333,4512
1.0003,4538
1.001967,4708
1.003633,4877
1.0053,4873
1.006967,5177
1.008633,4948
1.0103,4720
1.011967,5462
1.013633,5380
1.0153,4934
1.016967,5622
1.018633,4665
1.0203,5019
1.021967,4705
1.023633,4933
1.0253,4948
1.026967,4331
1.028633,4543
1.0303,4077
1.031967,3568
1.033633,3346
1.0353,2988
1.036967,2693
1.038633,2469
1.0403,2494
1.041967,2130
1.043633,2209
1.0453,2301
1.046967,2174
1.048633,2023
1.0503,1989
1.051967,1819
1.053633,1722
1.0553,1840
1.056967,1780
1.058633,1787
1.0603,1833
1.061967,1929
1.063633,2026
1.0653,1978
1.066967,2025
1.068633,2072
1.0703,2260
1.071967,2194
1.073633,2429
1.0753,2342
1.076967,2255
1.078633,2769
1.0803,2977
1.081967,3094
1.083633,2590
1.0853,2885
1.086967,2554
1.088633,2973
1.0903,2607
1.091967,2745
1.093633,2746
1.0953,2939
1.096967,2835
1.098633,3004
1.1003,2578
1.101967,2919
1.103633,3146
1.1053,2948
1.106967,2891
1.108633,3247
1.1103,3073
1.111967,2873
1.113633,2951
1.1153,2485
1.116967,2584
1.118633,2405
1.1203,2424
1.121967,2110
1.123633,2180
1.1253,2478
1.126967,2184
1.128633,1896
1.1303,2119
1.131967,2062
1.133633,1895
1.1353,1574
1.136967,1650
1.138633,1348
1.1403,1392
1.141967,1397
1.143633,1443
1.1453,1373
1.146967,1302
1.148633,1314
1.1503,1371
1.151967,1147
1.153633,1063
1.1553,1016
1.156967,1097
1.158633,1075
1.1603,1053
1.161967,971
1.163633,1086
1.1653,1091
1.166967,1097
1.168633,945
1.1703,966
1.171967,988
1.173633,1041
1.1753,1094
1.176967,895
1.178633,859
1.1803,1097
1.181967,924
1.183633,1090
1.1853,937
1.186967,1103
1.188633,897
1.1903,1080
1.191967,901
1.193633,1037
1.1953,968
1.196967,899
1.198633,869
