"SampleName","A2Rd2_01-94"
"Target Mass 1",
"Column Name","IA-3 (3um, 4.6X100)"
"Channel","QDa 1: SIR Ch2"
0.00195,484
0.003616667,539
0.005283333,535
0.00695,635
0.008616666,672
0.01028333,709
0.01195,869
0.01361667,957
0.01528333,881
0.01695,805
0.01861667,813
0.02028333,897
0.02195,785
0.02361667,771
0.02528333,674
0.02695,937
0.02861667,870
0.03028333,802
0.03195,870
0.03361667,830
0.03528333,867
0.03695,855
0.03861667,842
0.04028333,801
0.04195,761
0.04361667,864
0.04528333,849
0.04695,938
0.04861667,943
0.05028334,823
0.05195,842
0.05361667,1010
0.05528333,649
0.05695,824
0.05861667,805
0.06028333,866
0.06195,870
0.06361666,874
0.06528334,1012
0.06695,670
0.06861667,888
0.07028333,742
0.07195,931
0.07361667,1023
0.07528333,830
0.07695,983
0.07861666,1095
0.08028334,796
0.08195,820
0.08361667,794
0.08528333,702
0.08695,772
0.08861667,857
0.09028333,875
0.09195,883
0.09361666,866
0.09528334,848
0.09695,894
0.09861667,851
0.1002833,888
0.10195,925
0.1036167,921
0.1052833,908
0.10695,822
0.1086167,724
0.1102833,877
0.11195,814
0.1136333,880
0.1152833,875
0.11695,890
0.1186167,719
0.1202833,969
0.12195,874
0.1236167,985
0.1252833,863
0.12695,949
0.1286167,818
0.1302833,982
0.13195,895
0.1336167,791
0.1352833,884
0.13695,897
0.1386167,670
0.1402833,807
0.14195,810
0.1436167,774
0.1452833,846
0.14695,866
0.1486167,844
0.1502833,864
0.15195,920
0.1536167,877
0.1552833,834
0.15695,799
0.1586167,793
0.1602833,787
0.16195,742
0.1636167,821
0.1652833,758
0.16695,695
0.1686167,873
0.1702833,869
0.17195,652
0.1736167,828
0.1752833,780
0.17695,732
0.1786167,645
0.1802833,780
0.18195,796
0.1836167,812
0.1852833,738
0.18695,793
0.1886167,862
0.1902833,933
0.19195,948
0.1936167,819
0.1952833,812
0.19695,813
0.1986167,824
0.2002833,835
0.20195,840
0.2036167,733
0.2052833,915
0.20695,813
0.2086167,711
0.2102833,772
0.21195,864
0.2136167,817
0.2152833,878
0.21695,888
0.2186167,899
0.2202833,1078
0.22195,1038
0.2236167,1026
0.2252833,937
0.22695,911
0.2286167,963
0.2302833,855
0.23195,977
0.2336167,1100
0.2352833,1087
0.23695,1074
0.2386167,994
0.2402833,1131
0.24195,1129
0.2436167,1127
0.2452833,1418
0.24695,1441
0.2486167,1162
0.2502833,1126
0.25195,1050
0.2536167,1250
0.2552833,1224
0.25695,1094
0.2586167,936
0.2602833,1124
0.26195,1099
0.2636333,1076
0.2652833,986
0.26695,1103
0.2686167,898
0.2702833,957
0.27195,971
0.2736167,991
0.2752833,1012
0.27695,1053
0.2786167,1074
0.2803,1096
0.28195,1015
0.2836333,839
0.2852833,714
0.28695,975
0.2886167,943
0.2902833,911
0.29195,1005
0.2936167,1099
0.2952833,1110
0.29695,991
0.2986333,1249
0.3002833,873
0.30195,1128
0.3036167,1132
0.3052833,1104
0.30695,1168
0.3086167,1157
0.3102833,1298
0.31195,1304
0.3136167,1151
0.3153,1163
0.31695,1155
0.3186167,1148
0.3203,1104
0.32195,1061
0.3236167,1141
0.3252833,1187
0.32695,1234
0.3286167,1113
0.3302833,1128
0.33195,1318
0.3336333,1353
0.3352833,1211
0.33695,982
0.3386333,1327
0.3402833,1343
0.34195,1485
0.3436167,1325
0.3453,1361
0.34695,1222
0.3486167,1345
0.3503,1360
0.35195,1502
0.3536167,1077
0.3552833,1298
0.35695,1247
0.3586167,1308
0.3602833,1365
0.36195,1439
0.3636333,1708
0.3652833,2427
0.36695,3169
0.3686333,4130
0.3702833,4304
0.3719667,4506
0.3736167,4394
0.3753,4282
0.37695,4401
0.3786333,4041
0.3803,3172
0.38195,3312
0.3836333,2556
0.3853,2119
0.38695,1667
0.3886333,1529
0.3902833,1091
0.3919667,993
0.3936333,692
0.3953,695
0.3969667,673
0.3986167,519
0.4002833,591
0.40195,630
0.4036333,333
0.4053,610
0.4069667,473
0.4086167,638
0.4103,648
0.4119667,574
0.4136333,729
0.4153,706
0.4169667,663
0.4186333,760
0.4203,785
0.4219667,810
0.4236333,782
0.4253,652
0.4269667,681
0.4286333,666
0.4303,799
0.4319667,911
0.4336333,964
0.4353,959
0.4369667,939
0.4386333,985
0.4403,910
0.4419667,1247
0.4436333,1226
0.4453,1010
0.4469667,1347
0.4486333,983
0.4503,1171
0.4519667,1300
0.4536333,1236
0.4553,1295
0.4569667,1213
0.4586333,1132
0.4603,1146
0.4619667,1291
0.4636333,1375
0.4653,1032
0.4669667,1505
0.4686333,1238
0.4703,1409
0.4719667,1186
0.4736333,1276
0.4753,1171
0.4769667,1275
0.4786333,1257
0.4803,1235
0.4819667,1279
0.4836333,1099
0.4853,1164
0.4869667,1150
0.4886333,1114
0.4903,1176
0.4919667,976
0.4936333,1123
0.4953,1163
0.4969667,959
0.4986333,991
0.5003,941
0.5019667,1061
0.5036333,1062
0.5053,753
0.5069667,1013
0.5086333,930
0.5103,1090
0.5119666,1033
0.5136333,1046
0.5153,989
0.5169666,933
0.5186333,876
0.5203,1019
0.5219667,982
0.5236334,1069
0.5253,766
0.5269667,789
0.5286334,991
0.5303,925
0.5319667,1057
0.5336334,965
0.5353,991
0.5369667,1018
0.5386333,964
0.5403,1017
0.5419667,839
0.5436333,959
0.5453,912
0.5469667,818
0.5486333,724
0.5503,979
0.5519667,847
0.5536333,700
0.5553,890
0.5569667,972
0.5586333,885
0.5603,947
0.5619667,905
0.5636333,948
0.5653,955
0.5669667,963
0.5686333,1070
0.5703,674
0.5719666,926
0.5736333,1057
0.5753,906
0.5769666,1048
0.5786333,1041
0.5803,1198
0.5819666,1160
0.5836333,765
0.5853,1148
0.5869667,882
0.5886334,964
0.5903,982
0.5919667,908
0.5936334,947
0.5953,903
0.5969667,948
0.5986333,935
0.6003,922
0.6019667,909
0.6036333,895
0.6053,750
0.6069667,903
0.6086333,1055
0.6103,952
0.6119667,893
0.6136333,927
0.6153,827
0.6169667,1024
0.6186333,966
0.6203,865
0.6219667,847
0.6236333,804
0.6253,936
0.6269667,920
0.6286333,998
0.6303,916
0.6319667,910
0.6336333,868
0.6353,905
0.6369666,943
0.6386333,842
0.6403,741
0.6419666,851
0.6436333,767
0.6453,815
0.6469667,863
0.6486334,872
0.6503,915
0.6519667,887
0.6536334,858
0.6553,791
0.6569667,824
0.6586334,858
0.6603,957
0.6619667,924
0.6636333,808
0.6653,792
0.6669667,863
0.6686333,746
0.6703,775
0.6719667,977
0.6736333,899
0.6753,640
0.6769667,973
0.6786333,811
0.6803,796
0.6819667,874
0.6836333,962
0.6853,989
0.6869667,844
0.6886333,1036
0.6903,862
0.6919667,738
0.6936333,683
0.6953,721
0.6969666,760
0.6986333,805
0.7003,851
0.7019666,835
0.7036333,818
0.7053,863
0.7069666,948
0.7086333,883
0.7103,818
0.7119667,815
0.7136334,812
0.7153,809
0.7169667,807
0.7186334,856
0.7203,906
0.7219667,917
0.7236333,864
0.7253,812
0.7269667,795
0.7286333,779
0.7303,798
0.7319667,824
0.7336333,849
0.7353,807
0.7369667,764
0.7386333,833
0.7403,668
0.7419667,844
0.7436333,904
0.7453,941
0.7469667,978
0.7486333,803
0.7503,854
0.7519667,905
0.7536333,908
0.7553,840
0.7569667,790
0.7586333,789
0.7603,663
0.7619666,769
0.7636333,780
0.7653,791
0.7669666,963
0.7686333,976
0.7703,803
0.7719667,736
0.7736334,857
0.7753,878
0.7769667,817
0.7786334,871
0.7803,929
0.7819667,891
0.7836334,907
0.7853,872
0.7869667,816
0.7886333,986
0.7903,927
0.7919667,868
0.7936333,885
0.7953,870
0.7969667,921
0.7986333,875
0.8003,829
0.8019667,1183
0.8036333,1192
0.8053,1054
0.8069667,1036
0.8086333,674
0.8103,1126
0.8119667,1278
0.8136333,1225
0.8153,1018
0.8169667,1002
0.8186333,1044
0.8203,988
0.8219666,932
0.8236333,893
0.8253,846
0.8269666,871
0.8286333,892
0.8303,853
0.8319666,813
0.8336333,903
0.8353,907
0.8369667,938
0.8386334,1061
0.8403,1088
0.8419667,900
0.8436334,822
0.8453,987
0.8469667,998
0.8486333,997
0.8503,973
0.8519667,866
0.8536333,892
0.8553,904
0.8569667,776
0.8586333,881
0.8603,847
0.8619667,874
0.8636333,831
0.8653,840
0.8669667,784
0.8686333,793
0.8703,802
0.8719667,739
0.8736333,860
0.8753,947
0.8769667,923
0.8786333,835
0.8803,849
0.8819667,814
0.8836333,1059
0.8853,1050
0.8869666,1096
0.8886333,1142
0.8903,1111
0.8919666,1079
0.8936333,1152
0.8953,1058
0.8969667,963
0.8986334,1104
0.9003,1038
0.9019667,1116
0.9036334,937
0.9053,1225
0.9069667,1227
0.9086334,1227
0.9103,986
0.9119667,1081
0.9136333,1020
0.9153,995
0.9169667,995
0.9186333,938
0.9203,1019
0.9219667,1100
0.9236333,1164
0.9253,1068
0.9269667,967
0.9286333,1176
0.9303,1209
0.9319667,1099
0.9336333,903
0.9353,1033
0.9369667,1148
0.9386333,1052
0.9403,956
0.9419667,1108
0.9436333,834
0.9453,956
0.9469666,1079
0.9486333,1145
0.9503,1164
0.9519666,1198
0.9536333,1119
0.9553,803
0.9569666,977
0.9586333,1113
0.9603,1153
0.9619667,884
0.9636334,963
0.9653,1076
0.9669667,935
0.9686334,841
0.9703,963
0.9719667,924
0.9736333,802
0.9753,827
0.9769667,737
0.9786333,799
0.9803,860
0.9819667,920
0.9836333,837
0.9853,759
0.9869667,965
0.9886333,778
0.9903,905
0.9919667,809
0.9936333,877
0.9953,802
0.9969667,723
0.9986333,913
1.0003,872
1.001967,832
1.003633,850
1.0053,868
1.006967,768
1.008633,1003
1.0103,970
1.011967,815
1.013633,1047
1.0153,764
1.016967,966
1.018633,1001
1.0203,714
1.021967,856
1.023633,905
1.0253,951
1.026967,929
1.028633,833
1.0303,731
1.031967,777
1.033633,823
1.0353,802
1.036967,781
1.038633,799
1.0403,818
1.041967,867
1.043633,864
1.0453,861
1.046967,811
1.048633,841
1.0503,872
1.051967,890
1.053633,841
1.0553,826
1.056967,811
1.058633,808
1.0603,806
1.061967,801
1.063633,770
1.0653,845
1.066967,830
1.068633,815
1.0703,998
1.071967,1032
1.073633,760
1.0753,930
1.076967,769
1.078633,820
1.0803,1027
1.081967,990
1.083633,899
1.0853,913
1.086967,946
1.088633,992
1.0903,1006
1.091967,986
1.093633,779
1.0953,603
1.096967,823
1.098633,938
1.1003,870
1.101967,729
1.103633,838
1.1053,863
1.106967,820
1.108633,858
1.1103,895
1.111967,635
1.113633,724
1.1153,802
1.116967,953
1.118633,943
1.1203,1056
1.121967,769
1.123633,922
1.1253,757
1.126967,628
1.128633,620
1.1303,918
1.131967,925
1.133633,869
1.1353,840
1.136967,947
1.138633,964
1.1403,800
1.141967,869
1.143633,803
1.1453,927
1.146967,969
1.148633,1036
1.1503,714
1.151967,750
1.153633,883
1.1553,789
1.156967,881
1.158633,707
1.1603,860
1.161967,788
1.163633,850
1.1653,683
1.166967,910
1.168633,686
1.1703,730
1.171967,885
1.173633,822
1.1753,838
1.176967,847
1.178633,1052
1.1803,1049
1.181967,699
1.183633,1003
1.1853,757
1.186967,879
1.188633,699
1.1903,749
1.191967,873
1.193633,841
1.1953,857
1.196967,748
1.198633,755
