"SampleName","A2Rd2_01-33"
"Target Mass 1",
"Column Name","IA-3 (3um, 4.6X100)"
"Channel","QDa 1: SIR Ch1"
0.00195,436
0.003616667,567
0.005283333,480
0.00695,663
0.008616666,577
0.01028333,469
0.01195,648
0.01361667,671
0.01528333,645
0.01695,588
0.01861667,532
0.02028333,729
0.02195,653
0.02361667,577
0.02528333,535
0.02695,766
0.02861667,815
0.03028333,806
0.03195,615
0.03361667,575
0.03528333,598
0.03695,548
0.03861667,554
0.04028333,565
0.04195,577
0.04361667,685
0.04528333,654
0.04695,633
0.04861667,735
0.05028334,546
0.05195,643
0.05361667,660
0.05528333,760
0.05695,752
0.05861667,533
0.06028333,507
0.06195,633
0.06361666,501
0.06528334,608
0.06695,608
0.06861667,582
0.07028333,591
0.07195,600
0.07361667,519
0.07528333,576
0.07695,562
0.07861666,609
0.08028334,609
0.08195,609
0.08361667,537
0.08528333,456
0.08695,627
0.08861667,512
0.09028333,654
0.09195,638
0.09361666,622
0.09528334,552
0.09695,630
0.09861667,679
0.1002833,625
0.10195,529
0.1036167,450
0.1052833,503
0.10695,612
0.1086167,596
0.1102833,625
0.11195,506
0.1136167,594
0.1152833,688
0.11695,714
0.1186167,565
0.1202833,558
0.12195,504
0.1236167,542
0.1252833,580
0.12695,573
0.1286167,558
0.1302833,543
0.13195,447
0.1336167,641
0.1352833,694
0.13695,700
0.1386167,583
0.1402833,611
0.14195,638
0.1436167,654
0.1452833,670
0.14695,577
0.1486167,365
0.1502833,632
0.15195,689
0.1536167,613
0.1552833,563
0.15695,601
0.1586167,547
0.1602833,493
0.16195,530
0.1636167,568
0.1652833,540
0.16695,513
0.1686167,573
0.1702833,566
0.17195,571
0.1736167,575
0.1752833,549
0.17695,455
0.1786167,501
0.1802833,528
0.18195,555
0.1836167,559
0.1852833,563
0.18695,503
0.1886167,488
0.1902833,473
0.19195,438
0.1936167,402
0.1952833,467
0.19695,531
0.1986167,525
0.2002833,476
0.20195,428
0.2036167,571
0.2052833,566
0.20695,619
0.2086167,572
0.2102833,632
0.21195,582
0.2136167,706
0.2152833,694
0.21695,631
0.2186167,532
0.2202833,662
0.22195,575
0.2236167,595
0.2252833,463
0.22695,671
0.2286167,686
0.2302833,642
0.23195,565
0.2336167,566
0.2352833,599
0.23695,488
0.2386167,497
0.2402833,550
0.24195,414
0.2436167,499
0.2452833,584
0.24695,526
0.2486167,467
0.2502833,622
0.25195,551
0.2536167,610
0.2552833,675
0.25695,517
0.2586167,640
0.2602833,572
0.26195,504
0.2636333,590
0.2652833,475
0.26695,532
0.2686167,590
0.2702833,517
0.27195,448
0.2736333,610
0.2752833,456
0.27695,591
0.2786167,568
0.2803,496
0.28195,433
0.2836167,453
0.2852833,497
0.28695,612
0.2886167,580
0.2902833,581
0.29195,500
0.2936167,629
0.2952833,564
0.29695,448
0.2986333,564
0.3002833,490
0.30195,499
0.3036167,509
0.3052833,585
0.3069667,661
0.3086167,637
0.3102833,716
0.31195,550
0.3136167,563
0.3153,453
0.31695,554
0.3186167,596
0.3203,409
0.32195,694
0.3236333,659
0.3252833,500
0.32695,387
0.3286167,532
0.3302833,604
0.3319667,668
0.3336333,563
0.3352833,609
0.33695,578
0.3386167,547
0.3403,636
0.34195,515
0.3436167,472
0.3452833,459
0.34695,431
0.3486333,404
0.3503,626
0.3519667,602
0.3536333,442
0.3553,567
0.3569667,477
0.3586333,650
0.3602833,697
0.3619667,969
0.3636167,1058
0.3653,2097
0.36695,4255
0.3686333,7480
0.3702833,8532
0.3719667,7877
0.3736333,7275
0.3753,6501
0.37695,4995
0.3786333,4043
0.3802833,3498
0.3819667,2493
0.3836167,2245
0.3853,1636
0.3869667,1454
0.3886333,1275
0.3903,1420
0.3919667,1272
0.3936333,1236
0.3953,1405
0.3969667,1536
0.3986333,1509
0.4003,1599
0.4019667,1815
0.4036333,2078
0.4053,2306
0.4069667,2297
0.4086333,2391
0.4103,2290
0.4119667,2351
0.4136333,2255
0.4153,2159
0.4169667,2265
0.4186333,2454
0.4203,2419
0.4219667,1778
0.4236333,2215
0.4253,1821
0.4269667,1791
0.4286333,1742
0.4303,1748
0.4319667,1692
0.4336333,1779
0.4353,2310
0.4369667,3145
0.4386333,3826
0.4403,5320
0.4419667,7488
0.4436333,10552
0.4453,12368
0.4469667,17420
0.4486333,24396
0.4503,31896
0.4519667,43264
0.4536333,57664
0.4553,73328
0.4569667,96384
0.4586333,121920
0.4603,156736
0.4619667,197952
0.4636333,241088
0.4653,290240
0.4669667,337920
0.4686333,370304
0.4703,401344
0.4719667,412416
0.4736333,407424
0.4753,393472
0.4769667,360960
0.4786333,318016
0.4803,274624
0.4819667,228928
0.4836333,180288
0.4853,143616
0.4869667,112016
0.4886333,88336
0.4903,66656
0.4919667,51632
0.4936333,39008
0.4953,31328
0.4969667,26716
0.4986333,20796
0.5003,18372
0.5019667,15092
0.5036333,13424
0.5053,10448
0.5069667,9980
0.5086333,8340
0.5103,7614
0.5119666,6845
0.5136333,6646
0.5153,5539
0.5169666,5801
0.5186333,5387
0.5203,5105
0.5219667,4517
0.5236334,4635
0.5253,4448
0.5269667,4359
0.5286334,4003
0.5303,3537
0.5319667,4103
0.5336334,3629
0.5353,3710
0.5369667,3424
0.5386333,3175
0.5403,2897
0.5419667,2901
0.5436333,2993
0.5453,2743
0.5469667,2910
0.5486333,2570
0.5503,2633
0.5519667,2505
0.5536333,2181
0.5553,2593
0.5569667,2436
0.5586333,2092
0.5603,2149
0.5619667,2196
0.5636333,2095
0.5653,2199
0.5669667,2199
0.5686333,1750
0.5703,2090
0.5719666,2136
0.5736333,1970
0.5753,2033
0.5769666,2096
0.5786333,2021
0.5803,1844
0.5819666,2211
0.5836333,2185
0.5853,2391
0.5869667,2146
0.5886334,2112
0.5903,2184
0.5919667,2127
0.5936334,2063
0.5953,2075
0.5969667,2088
0.5986333,1919
0.6003,2174
0.6019667,2077
0.6036333,2015
0.6053,1966
0.6069667,1922
0.6086333,2027
0.6103,1835
0.6119667,1868
0.6136333,1611
0.6153,1989
0.6169667,1832
0.6186333,1843
0.6203,1909
0.6219667,1593
0.6236333,1654
0.6253,1789
0.6269667,1488
0.6286333,1521
0.6303,1786
0.6319667,1676
0.6336333,1582
0.6353,1382
0.6369666,1520
0.6386333,1454
0.6403,1079
0.6419666,1612
0.6436333,1368
0.6453,1373
0.6469667,1365
0.6486334,1293
0.6503,1205
0.6519667,1195
0.6536334,1201
0.6553,1162
0.6569667,1118
0.6586334,1200
0.6603,1283
0.6619667,1234
0.6636333,1166
0.6653,1191
0.6669667,1216
0.6686333,1152
0.6703,1117
0.6719667,1245
0.6736333,1168
0.6753,1091
0.6769667,1158
0.6786333,1106
0.6803,1134
0.6819667,1191
0.6836333,1205
0.6853,1218
0.6869667,992
0.6886333,1149
0.6903,1355
0.6919667,1215
0.6936333,1140
0.6953,1168
0.6969666,1185
0.6986333,1269
0.7003,1333
0.7019666,925
0.7036333,1249
0.7053,1091
0.7069666,1204
0.7086333,1135
0.7103,1196
0.7119667,1155
0.7136334,1183
0.7153,1000
0.7169667,1147
0.7186334,987
0.7203,1034
0.7219667,1063
0.7236333,1091
0.7253,1118
0.7269667,1157
0.7286333,1124
0.7303,997
0.7319667,1015
0.7336333,1164
0.7353,1171
0.7369667,1118
0.7386333,1143
0.7403,1262
0.7419667,972
0.7436333,1062
0.7453,1315
0.7469667,999
0.7486333,891
0.7503,1157
0.7519667,1036
0.7536333,1074
0.7553,1010
0.7569667,920
0.7586333,830
0.7603,1173
0.7619666,1081
0.7636333,990
0.7653,1244
0.7669666,1079
0.7686333,945
0.7703,1044
0.7719667,1027
0.7736334,1066
0.7753,1161
0.7769667,873
0.7786334,978
0.7803,1082
0.7819667,952
0.7836334,1090
0.7853,926
0.7869667,977
0.7886333,1012
0.7903,1048
0.7919667,994
0.7936333,992
0.7953,1080
0.7969667,1087
0.7986333,950
0.8003,1165
0.8019667,1089
0.8036333,1215
0.8053,1337
0.8069667,1295
0.8086333,1363
0.8103,1198
0.8119667,1219
0.8136333,1269
0.8153,1348
0.8169667,1427
0.8186333,1429
0.8203,1493
0.8219666,1496
0.8236333,1204
0.8253,1365
0.8269666,1408
0.8286333,1376
0.8303,1214
0.8319666,1190
0.8336333,1163
0.8353,1192
0.8369667,1343
0.8386334,1382
0.8403,1202
0.8419667,1148
0.8436334,1330
0.8453,1081
0.8469667,1160
0.8486333,1002
0.8503,991
0.8519667,1029
0.8536333,1049
0.8553,1198
0.8569667,1238
0.8586333,940
0.8603,1202
0.8619667,1504
0.8636333,1872
0.8653,2269
0.8669667,2854
0.8686333,3787
0.8703,3851
0.8719667,4339
0.8736333,5064
0.8753,5362
0.8769667,5244
0.8786333,5126
0.8803,5023
0.8819667,4604
0.8836333,4817
0.8853,4711
0.8869666,4606
0.8886333,4438
0.8903,4626
0.8919666,4686
0.8936333,4746
0.8953,4831
0.8969667,4314
0.8986334,4567
0.9003,4647
0.9019667,4647
0.9036334,4648
0.9053,4815
0.9069667,4618
0.9086334,4421
0.9103,4778
0.9119667,4917
0.9136333,4630
0.9153,4328
0.9169667,4563
0.9186333,4476
0.9203,4562
0.9219667,4125
0.9236333,4457
0.9253,4504
0.9269667,4391
0.9286333,3834
0.9303,3871
0.9319667,3557
0.9336333,3869
0.9353,3339
0.9369667,3599
0.9386333,3223
0.9403,2939
0.9419667,3162
0.9436333,3028
0.9453,2909
0.9469666,2942
0.9486333,2632
0.9503,2182
0.9519666,2480
0.9536333,2155
0.9553,2073
0.9569666,2220
0.9586333,2046
0.9603,1733
0.9619667,1376
0.9636334,1483
0.9653,1225
0.9669667,1602
0.9686334,1214
0.9703,1351
0.9719667,1126
0.9736333,1309
0.9753,1080
0.9769667,1023
0.9786333,972
0.9803,814
0.9819667,990
0.9836333,872
0.9853,841
0.9869667,887
0.9886333,858
0.9903,812
0.9919667,697
0.9936333,859
0.9953,728
0.9969667,702
0.9986333,703
1.0003,703
1.001967,676
1.003633,648
1.0053,710
1.006967,771
1.008633,708
1.0103,645
1.011967,738
1.013633,678
1.0153,619
1.016967,654
1.018633,625
1.0203,596
1.021967,864
1.023633,824
1.0253,775
1.026967,732
1.028633,679
1.0303,663
1.031967,663
1.033633,649
1.0353,690
1.036967,667
1.038633,644
1.0403,878
1.041967,914
1.043633,825
1.0453,662
1.046967,747
1.048633,773
1.0503,672
1.051967,682
1.053633,698
1.0553,685
1.056967,671
1.058633,754
1.0603,814
1.061967,781
1.063633,654
1.0653,651
1.066967,786
1.068633,716
1.0703,730
1.071967,695
1.073633,661
1.0753,696
1.076967,620
1.078633,640
1.0803,626
1.081967,612
1.083633,710
1.0853,695
1.086967,662
1.088633,628
1.0903,701
1.091967,631
1.093633,759
1.0953,778
1.096967,745
1.098633,823
1.1003,787
1.101967,750
1.103633,647
1.1053,841
1.106967,745
1.108633,802
1.1103,747
1.111967,756
1.113633,693
1.1153,785
1.116967,764
1.118633,775
1.1203,785
1.121967,772
1.123633,687
1.1253,807
1.126967,672
1.128633,720
1.1303,715
1.131967,974
1.133633,855
1.1353,736
1.136967,991
1.138633,965
1.1403,759
1.141967,1095
1.143633,772
1.1453,1033
1.146967,793
1.148633,960
1.1503,1076
1.151967,1106
1.153633,1094
1.1553,1028
1.156967,961
1.158633,1128
1.1603,820
1.161967,1043
1.163633,1197
1.1653,1308
1.166967,1086
1.168633,1033
1.1703,1163
1.171967,1261
1.173633,1310
1.1753,1167
1.176967,1172
1.178633,1251
1.1803,1216
1.181967,1598
1.183633,1525
1.1853,1726
1.186967,1464
1.188633,1384
1.1903,1240
1.191967,1145
1.193633,1091
1.1953,1100
1.196967,1122
1.198633,1143
