"SampleName","A2Rd2_01-53"
"Target Mass 1",
"Column Name","IA-3 (3um, 4.6X100)"
"Channel","QDa 1: SIR Ch1"
0.00195,282
0.003616667,525
0.005283333,593
0.00695,605
0.008616666,585
0.01028333,573
0.01195,561
0.01361667,570
0.01528333,562
0.01695,554
0.01861667,687
0.02028333,687
0.02195,545
0.02361667,581
0.02528333,646
0.02695,513
0.02861667,579
0.03028333,559
0.03195,588
0.03361667,556
0.03528333,500
0.03695,542
0.03861667,540
0.04028333,583
0.04195,593
0.04361667,528
0.04528333,515
0.04695,531
0.04861667,496
0.05028334,434
0.05195,536
0.05361667,452
0.05528333,545
0.05695,509
0.05861667,472
0.06028333,502
0.06195,587
0.06361666,589
0.06528334,586
0.06695,523
0.06861667,439
0.07028333,423
0.07195,488
0.07361667,519
0.07528333,557
0.07695,534
0.07861666,511
0.08028334,525
0.08195,549
0.08361667,382
0.08528333,545
0.08695,608
0.08861667,599
0.09028333,606
0.09195,613
0.09361666,465
0.09528334,654
0.09695,639
0.09861667,500
0.1002833,687
0.10195,550
0.1036167,480
0.1052833,596
0.10695,520
0.1086167,508
0.1102833,455
0.11195,431
0.1136167,407
0.1152833,437
0.11695,467
0.1186167,444
0.1202833,422
0.12195,492
0.1236167,469
0.1252833,475
0.12695,482
0.1286167,496
0.1302833,534
0.13195,571
0.1336167,557
0.1352833,530
0.13695,522
0.1386167,514
0.1402833,530
0.14195,546
0.1436167,541
0.1452833,536
0.14695,545
0.1486167,565
0.1502833,499
0.15195,472
0.1536167,564
0.1552833,538
0.15695,479
0.1586167,504
0.1602833,520
0.16195,464
0.1636167,441
0.1652833,417
0.16695,496
0.1686167,390
0.1702833,520
0.17195,485
0.1736167,527
0.1752833,470
0.17695,512
0.1786167,554
0.1802833,574
0.18195,553
0.1836167,514
0.1852833,486
0.18695,524
0.1886167,461
0.1902833,388
0.19195,464
0.1936167,527
0.1952833,544
0.19695,520
0.1986167,479
0.2002833,512
0.20195,497
0.2036167,481
0.2052833,503
0.20695,502
0.2086167,478
0.2102833,464
0.21195,543
0.2136167,562
0.2152833,532
0.21695,541
0.2186167,523
0.2202833,491
0.22195,461
0.2236167,500
0.2252833,424
0.22695,503
0.2286333,403
0.2302833,464
0.23195,559
0.2336167,367
0.2352833,498
0.23695,523
0.2386167,380
0.2402833,614
0.24195,583
0.2436167,514
0.2453,525
0.24695,536
0.2486167,515
0.2502833,519
0.25195,490
0.2536167,630
0.2553,616
0.25695,695
0.2586333,472
0.2602833,484
0.26195,612
0.2636333,574
0.2652833,535
0.26695,544
0.2686167,534
0.2702833,523
0.2719667,540
0.2736333,556
0.2753,604
0.2769667,466
0.2786167,528
0.2803,515
0.2819667,447
0.2836333,575
0.2852833,572
0.28695,465
0.2886333,597
0.2903,556
0.29195,635
0.2936167,492
0.2952833,546
0.2969667,517
0.2986333,612
0.3002833,636
0.30195,610
0.3036167,512
0.3053,649
0.3069667,436
0.3086167,598
0.3102833,590
0.31195,652
0.3136333,526
0.3153,549
0.3169667,556
0.3186333,519
0.3203,504
0.3219667,488
0.3236333,524
0.3252833,473
0.3269667,421
0.3286167,433
0.3303,525
0.33195,555
0.3336333,384
0.3352833,534
0.3369667,592
0.3386333,493
0.3403,459
0.3419667,664
0.3436167,578
0.3452833,543
0.3469667,591
0.3486167,515
0.3503,540
0.3519667,565
0.3536333,495
0.3553,480
0.3569667,583
0.3586333,554
0.3603,714
0.3619667,808
0.3636333,1048
0.3653,1451
0.3669667,2014
0.3686333,3560
0.3703,4502
0.3719667,5008
0.3736333,4967
0.3753,4672
0.3769667,4118
0.3786333,3237
0.3803,3442
0.3819667,2406
0.3836333,2393
0.3853,1885
0.3869667,1467
0.3886333,1183
0.3903,1174
0.3919667,980
0.3936333,1041
0.3953,965
0.3969667,1019
0.3986333,1074
0.4003,1266
0.4019667,1253
0.4036333,1583
0.4053,1649
0.4069667,1766
0.4086333,1799
0.4103,1787
0.4119667,1891
0.4136333,1995
0.4153,1972
0.4169667,1948
0.4186333,2062
0.4203,2177
0.4219667,2160
0.4236333,2144
0.4253,2274
0.4269667,2000
0.4286333,2504
0.4303,2680
0.4319667,2950
0.4336333,3659
0.4353,5356
0.4369667,6583
0.4386333,9632
0.4403,13084
0.4419667,16860
0.4436333,21936
0.4453,29448
0.4469667,36336
0.4486333,47680
0.4503,60864
0.4519667,74704
0.4536333,91328
0.4553,108688
0.4569667,128304
0.4586333,149632
0.4603,171584
0.4619667,204608
0.4636333,236288
0.4653,267200
0.4669667,301696
0.4686333,342208
0.4703,369856
0.4719667,390400
0.4736333,395584
0.4753,386304
0.4769667,369664
0.4786333,339840
0.4803,306240
0.4819667,265600
0.4836333,222208
0.4853,185408
0.4869667,147392
0.4886333,117520
0.4903,90304
0.4919667,68272
0.4936333,50016
0.4953,39920
0.4969667,30084
0.4986333,22640
0.5003,19236
0.5019667,15676
0.5036333,12136
0.5053,10484
0.5069667,9624
0.5086333,8536
0.5103,7319
0.5119666,7099
0.5136333,5493
0.5153,5808
0.5169666,5217
0.5186333,5351
0.5203,5272
0.5219667,4812
0.5236334,4664
0.5253,4575
0.5269667,4626
0.5286334,3573
0.5303,3853
0.5319667,3768
0.5336334,3705
0.5353,3642
0.5369667,3668
0.5386333,3195
0.5403,3520
0.5419667,2942
0.5436333,2977
0.5453,3123
0.5469667,2858
0.5486333,2810
0.5503,2525
0.5519667,2808
0.5536333,2499
0.5553,2482
0.5569667,2333
0.5586333,2498
0.5603,2455
0.5619667,2323
0.5636333,2271
0.5653,2278
0.5669667,1950
0.5686333,2179
0.5703,2238
0.5719666,1974
0.5736333,2239
0.5753,2387
0.5769666,1804
0.5786333,1864
0.5803,1887
0.5819666,2009
0.5836333,2227
0.5853,2343
0.5869667,2179
0.5886334,2215
0.5903,2259
0.5919667,2262
0.5936334,1990
0.5953,2143
0.5969667,1724
0.5986333,2164
0.6003,2450
0.6019667,2013
0.6036333,2078
0.6053,1973
0.6069667,1791
0.6086333,1882
0.6103,2223
0.6119667,2215
0.6136333,1855
0.6153,2079
0.6169667,1824
0.6186333,1796
0.6203,1747
0.6219667,1492
0.6236333,1761
0.6253,1698
0.6269667,1636
0.6286333,1677
0.6303,1703
0.6319667,1702
0.6336333,1570
0.6353,1465
0.6369666,1786
0.6386333,1759
0.6403,1439
0.6419666,1434
0.6436333,1445
0.6453,1448
0.6469667,1451
0.6486334,1294
0.6503,1369
0.6519667,1539
0.6536334,1502
0.6553,1369
0.6569667,1271
0.6586334,1278
0.6603,1197
0.6619667,1229
0.6636333,1261
0.6653,1114
0.6669667,1221
0.6686333,1328
0.6703,1355
0.6719667,1272
0.6736333,1256
0.6753,1269
0.6769667,1282
0.6786333,1117
0.6803,953
0.6819667,1210
0.6836333,1273
0.6853,1106
0.6869667,1218
0.6886333,973
0.6903,978
0.6919667,984
0.6936333,1086
0.6953,1279
0.6969666,1349
0.6986333,1068
0.7003,1257
0.7019666,1235
0.7036333,1147
0.7053,935
0.7069666,1116
0.7086333,1125
0.7103,1120
0.7119667,1105
0.7136334,1089
0.7153,1100
0.7169667,1111
0.7186334,1049
0.7203,1114
0.7219667,1057
0.7236333,1011
0.7253,1018
0.7269667,1014
0.7286333,1056
0.7303,1053
0.7319667,1051
0.7336333,975
0.7353,899
0.7369667,935
0.7386333,1002
0.7403,1069
0.7419667,1112
0.7436333,1154
0.7453,1146
0.7469667,1137
0.7486333,1134
0.7503,1131
0.7519667,915
0.7536333,1047
0.7553,1070
0.7569667,1143
0.7586333,908
0.7603,1176
0.7619666,1272
0.7636333,1193
0.7653,1290
0.7669666,1170
0.7686333,1132
0.7703,1013
0.7719667,1191
0.7736334,976
0.7753,1249
0.7769667,939
0.7786334,1012
0.7803,820
0.7819667,1175
0.7836334,1095
0.7853,1128
0.7869667,1151
0.7886333,1039
0.7903,1049
0.7919667,1166
0.7936333,1185
0.7953,1132
0.7969667,1078
0.7986333,1193
0.8003,1002
0.8019667,1107
0.8036333,1241
0.8053,1156
0.8069667,943
0.8086333,1059
0.8103,956
0.8119667,972
0.8136333,1028
0.8153,1084
0.8169667,1135
0.8186333,1093
0.8203,1082
0.8219666,1072
0.8236333,941
0.8253,1013
0.8269666,1099
0.8286333,1084
0.8303,1038
0.8319666,966
0.8336333,991
0.8353,1074
0.8369667,1049
0.8386334,1023
0.8403,983
0.8419667,1062
0.8436334,1068
0.8453,1130
0.8469667,1108
0.8486333,1090
0.8503,965
0.8519667,1118
0.8536333,1057
0.8553,854
0.8569667,896
0.8586333,1037
0.8603,870
0.8619667,881
0.8636333,1051
0.8653,865
0.8669667,876
0.8686333,922
0.8703,1219
0.8719667,1598
0.8736333,1917
0.8753,2133
0.8769667,2800
0.8786333,3141
0.8803,3400
0.8819667,4385
0.8836333,4049
0.8853,3955
0.8869666,4486
0.8886333,4408
0.8903,4797
0.8919666,4455
0.8936333,4777
0.8953,4524
0.8969667,4828
0.8986334,4791
0.9003,4753
0.9019667,4931
0.9036334,4265
0.9053,4587
0.9069667,4613
0.9086334,4691
0.9103,4687
0.9119667,4683
0.9136333,4624
0.9153,4601
0.9169667,4702
0.9186333,4299
0.9203,4779
0.9219667,4134
0.9236333,4232
0.9253,4202
0.9269667,3838
0.9286333,3773
0.9303,3771
0.9319667,3736
0.9336333,3701
0.9353,3096
0.9369667,2969
0.9386333,3015
0.9403,3052
0.9419667,2875
0.9436333,2719
0.9453,2836
0.9469666,2511
0.9486333,2021
0.9503,2257
0.9519666,2301
0.9536333,1783
0.9553,2050
0.9569666,1915
0.9586333,1735
0.9603,1574
0.9619667,1739
0.9636334,1294
0.9653,1601
0.9669667,1130
0.9686334,1326
0.9703,1551
0.9719667,1182
0.9736333,1371
0.9753,937
0.9769667,1028
0.9786333,926
0.9803,869
0.9819667,799
0.9836333,706
0.9853,777
0.9869667,747
0.9886333,695
0.9903,642
0.9919667,677
0.9936333,711
0.9953,775
0.9969667,762
0.9986333,748
1.0003,655
1.001967,1016
1.003633,926
1.0053,771
1.006967,796
1.008633,684
1.0103,753
1.011967,752
1.013633,659
1.0153,723
1.016967,683
1.018633,643
1.0203,680
1.021967,721
1.023633,731
1.0253,708
1.026967,684
1.028633,725
1.0303,727
1.031967,715
1.033633,629
1.0353,542
1.036967,642
1.038633,662
1.0403,863
1.041967,955
1.043633,960
1.0453,668
1.046967,819
1.048633,797
1.0503,676
1.051967,689
1.053633,678
1.0553,601
1.056967,690
1.058633,774
1.0603,725
1.061967,675
1.063633,720
1.0653,652
1.066967,628
1.068633,675
1.0703,721
1.071967,736
1.073633,739
1.0753,792
1.076967,854
1.078633,876
1.0803,677
1.081967,848
1.083633,734
1.0853,796
1.086967,750
1.088633,704
1.0903,800
1.091967,756
1.093633,756
1.0953,791
1.096967,845
1.098633,804
1.1003,764
1.101967,784
1.103633,690
1.1053,830
1.106967,634
1.108633,732
1.1103,726
1.111967,700
1.113633,653
1.1153,667
1.116967,680
1.118633,705
1.1203,730
1.121967,762
1.123633,745
1.1253,726
1.126967,732
1.128633,738
1.1303,670
1.131967,701
1.133633,816
1.1353,782
1.136967,672
1.138633,843
1.1403,719
1.141967,796
1.143633,882
1.1453,653
1.146967,775
1.148633,693
1.1503,771
1.151967,694
1.153633,734
1.1553,707
1.156967,735
1.158633,710
1.1603,715
1.161967,721
1.163633,828
1.1653,818
1.166967,865
1.168633,847
1.1703,829
1.171967,764
1.173633,883
1.1753,813
1.176967,868
1.178633,731
1.1803,744
1.181967,827
1.183633,688
1.1853,799
1.186967,745
1.188633,840
1.1903,670
1.191967,728
1.193633,879
1.1953,774
1.196967,684
1.198633,788
