"SampleName","A2Rd2_01-70"
"Target Mass 1",
"Column Name","IA-3 (3um, 4.6X100)"
"Channel","QDa 1: SIR Ch2"
0.00195,437
0.003616667,615
0.005283333,694
0.00695,665
0.008616666,757
0.01028333,848
0.01195,828
0.01361667,891
0.01528333,749
0.01695,841
0.01861667,838
0.02028333,837
0.02195,796
0.02361667,755
0.02528333,807
0.02695,941
0.02861667,912
0.03028333,877
0.03195,864
0.03361667,851
0.03528333,927
0.03695,766
0.03861667,968
0.04028333,862
0.04195,756
0.04361667,807
0.04528333,891
0.04695,834
0.04861667,776
0.05028334,749
0.05195,803
0.05361667,913
0.05528333,1009
0.05695,934
0.05861667,788
0.06028333,904
0.06195,999
0.06361666,907
0.06528334,927
0.06695,825
0.06861667,811
0.07028333,797
0.07195,861
0.07361667,926
0.07528333,966
0.07695,1007
0.07861666,856
0.08028334,921
0.08195,769
0.08361667,778
0.08528333,876
0.08695,899
0.08861667,820
0.09028333,818
0.09195,856
0.09361666,885
0.09528334,915
0.09695,702
0.09861667,977
0.1002833,708
0.10195,954
0.1036167,695
0.1052833,867
0.10695,1059
0.1086167,868
0.1102833,955
0.11195,794
0.1136167,801
0.1152833,970
0.11695,977
0.1186167,798
0.1202833,784
0.12195,766
0.1236167,821
0.1252833,751
0.12695,682
0.1286167,777
0.1302833,741
0.13195,756
0.1336167,772
0.1352833,793
0.13695,793
0.1386167,793
0.1402833,849
0.14195,836
0.1436167,823
0.1452833,921
0.14695,931
0.1486167,781
0.1502833,776
0.15195,805
0.1536167,825
0.1552833,700
0.15695,896
0.1586167,947
0.1602833,807
0.16195,825
0.1636167,786
0.1652833,922
0.16695,1004
0.1686167,696
0.1702833,933
0.17195,908
0.1736167,767
0.1752833,784
0.17695,766
0.1786167,831
0.1802833,790
0.18195,749
0.1836167,809
0.1852833,789
0.18695,769
0.1886167,708
0.1902833,781
0.19195,892
0.1936167,910
0.1952833,714
0.19695,754
0.1986167,816
0.2002833,808
0.20195,1012
0.2036167,1000
0.2052833,826
0.20695,795
0.2086167,869
0.2102833,942
0.21195,996
0.2136167,1041
0.2152833,830
0.21695,893
0.2186167,935
0.2202833,958
0.22195,980
0.2236167,904
0.2252833,1085
0.22695,1081
0.2286167,1043
0.2302833,1074
0.23195,1105
0.2336167,1032
0.2352833,1078
0.23695,1043
0.2386167,1333
0.2402833,1225
0.24195,1117
0.2436167,1214
0.2452833,1208
0.24695,1287
0.2486167,1097
0.2502833,1006
0.25195,1061
0.2536167,1115
0.2552833,1024
0.25695,933
0.2586167,945
0.2602833,957
0.26195,964
0.2636167,1005
0.2652833,983
0.26695,962
0.2686167,1087
0.2702833,985
0.27195,884
0.2736167,904
0.2752833,924
0.27695,901
0.2786167,1097
0.2803,1203
0.28195,1075
0.2836167,1009
0.2852833,1174
0.28695,737
0.2886167,865
0.2902833,961
0.29195,1095
0.2936167,1092
0.2952833,862
0.29695,1040
0.2986333,988
0.3002833,899
0.30195,846
0.3036167,949
0.3052833,1234
0.30695,1208
0.3086167,1097
0.3102833,1064
0.31195,1227
0.3136167,1124
0.3153,1137
0.31695,1040
0.3186167,1067
0.3202833,1094
0.3219667,1131
0.3236167,1127
0.3253,1123
0.32695,1006
0.3286167,1249
0.3302833,1166
0.33195,1114
0.3336333,1223
0.3352833,1212
0.33695,1257
0.3386167,1369
0.3402833,1327
0.3419667,1285
0.3436333,1267
0.3452833,1237
0.34695,1206
0.3486167,1321
0.3503,1318
0.35195,1315
0.3536167,1341
0.3552833,1235
0.3569667,1418
0.3586167,1567
0.3602833,1108
0.36195,1110
0.3636167,1624
0.3652833,1904
0.36695,3617
0.3686333,4504
0.3703,4615
0.37195,4782
0.3736167,4467
0.3752833,4330
0.37695,4417
0.3786167,4310
0.3802833,3599
0.38195,2916
0.3836167,2298
0.3853,1899
0.38695,1740
0.3886333,1480
0.3902833,1076
0.3919667,1234
0.3936167,802
0.3952833,790
0.39695,532
0.3986167,531
0.4002833,581
0.40195,503
0.4036333,476
0.4053,450
0.4069667,554
0.4086333,709
0.4102833,667
0.4119667,570
0.4136167,565
0.4152833,678
0.41695,652
0.4186167,667
0.4203,591
0.4219667,728
0.4236333,732
0.4253,831
0.4269667,731
0.4286333,734
0.4303,837
0.4319667,879
0.4336333,990
0.4353,907
0.4369667,863
0.4386333,887
0.4403,1142
0.4419667,1121
0.4436333,1333
0.4453,852
0.4469667,1185
0.4486333,978
0.4503,1236
0.4519667,1072
0.4536333,1310
0.4553,1207
0.4569667,1321
0.4586333,1187
0.4603,1381
0.4619667,1400
0.4636333,1419
0.4653,1544
0.4669667,1560
0.4686333,1373
0.4703,1508
0.4719667,1426
0.4736333,1475
0.4753,1266
0.4769667,1449
0.4786333,1322
0.4803,1166
0.4819667,1253
0.4836333,974
0.4853,1278
0.4869667,1257
0.4886333,1113
0.4903,1118
0.4919667,1048
0.4936333,1001
0.4953,979
0.4969667,873
0.4986333,1101
0.5003,796
0.5019667,1053
0.5036333,706
0.5053,933
0.5069667,917
0.5086333,879
0.5103,861
0.5119666,730
0.5136333,934
0.5153,806
0.5169666,964
0.5186333,953
0.5203,833
0.5219667,761
0.5236334,847
0.5253,830
0.5269667,841
0.5286334,852
0.5303,905
0.5319667,959
0.5336334,985
0.5353,815
0.5369667,816
0.5386333,777
0.5403,891
0.5419667,877
0.5436333,778
0.5453,812
0.5469667,846
0.5486333,998
0.5503,1000
0.5519667,927
0.5536333,888
0.5553,859
0.5569667,837
0.5586333,816
0.5603,847
0.5619667,895
0.5636333,884
0.5653,1062
0.5669667,1081
0.5686333,925
0.5703,1098
0.5719666,1043
0.5736333,976
0.5753,854
0.5769666,856
0.5786333,819
0.5803,983
0.5819666,964
0.5836333,945
0.5853,797
0.5869667,976
0.5886334,1053
0.5903,1032
0.5919667,877
0.5936334,937
0.5953,934
0.5969667,942
0.5986333,950
0.6003,986
0.6019667,951
0.6036333,916
0.6053,855
0.6069667,1038
0.6086333,1011
0.6103,888
0.6119667,1054
0.6136333,981
0.6153,848
0.6169667,688
0.6186333,765
0.6203,747
0.6219667,939
0.6236333,876
0.6253,1046
0.6269667,1150
0.6286333,1055
0.6303,1067
0.6319667,946
0.6336333,951
0.6353,925
0.6369666,931
0.6386333,936
0.6403,1043
0.6419666,1076
0.6436333,1114
0.6453,1033
0.6469667,1016
0.6486334,913
0.6503,1038
0.6519667,1016
0.6536334,995
0.6553,1015
0.6569667,901
0.6586334,1077
0.6603,1123
0.6619667,995
0.6636333,907
0.6653,961
0.6669667,822
0.6686333,1037
0.6703,1090
0.6719667,856
0.6736333,921
0.6753,804
0.6769667,930
0.6786333,873
0.6803,934
0.6819667,803
0.6836333,910
0.6853,1017
0.6869667,920
0.6886333,1092
0.6903,1264
0.6919667,1159
0.6936333,1378
0.6953,1324
0.6969666,1458
0.6986333,1472
0.7003,1485
0.7019666,1449
0.7036333,1509
0.7053,1569
0.7069666,1648
0.7086333,1595
0.7103,1542
0.7119667,1950
0.7136334,1864
0.7153,1704
0.7169667,1651
0.7186334,1574
0.7203,1564
0.7219667,1622
0.7236333,1534
0.7253,1596
0.7269667,1403
0.7286333,1443
0.7303,1382
0.7319667,1310
0.7336333,1290
0.7353,1271
0.7369667,902
0.7386333,1280
0.7403,977
0.7419667,1026
0.7436333,862
0.7453,1003
0.7469667,831
0.7486333,1047
0.7503,1073
0.7519667,908
0.7536333,763
0.7553,870
0.7569667,936
0.7586333,809
0.7603,923
0.7619666,920
0.7636333,910
0.7653,901
0.7669666,870
0.7686333,838
0.7703,910
0.7719667,844
0.7736334,875
0.7753,873
0.7769667,899
0.7786334,774
0.7803,704
0.7819667,634
0.7836334,778
0.7853,922
0.7869667,933
0.7886333,1167
0.7903,1357
0.7919667,1439
0.7936333,1530
0.7953,1436
0.7969667,1540
0.7986333,1645
0.8003,1713
0.8019667,1971
0.8036333,1895
0.8053,1819
0.8069667,2414
0.8086333,2398
0.8103,2431
0.8119667,2379
0.8136333,2412
0.8153,2544
0.8169667,2675
0.8186333,2650
0.8203,2625
0.8219666,2616
0.8236333,2409
0.8253,2436
0.8269666,2388
0.8286333,2486
0.8303,2087
0.8319666,2165
0.8336333,2066
0.8353,1862
0.8369667,2214
0.8386334,1733
0.8403,1489
0.8419667,1357
0.8436334,1276
0.8453,1273
0.8469667,1265
0.8486333,1098
0.8503,1334
0.8519667,949
0.8536333,1024
0.8553,1012
0.8569667,944
0.8586333,967
0.8603,951
0.8619667,935
0.8636333,970
0.8653,1034
0.8669667,844
0.8686333,1039
0.8703,1000
0.8719667,1112
0.8736333,1012
0.8753,911
0.8769667,1084
0.8786333,1151
0.8803,1195
0.8819667,1222
0.8836333,1151
0.8853,1251
0.8869666,1321
0.8886333,1335
0.8903,1349
0.8919666,1343
0.8936333,1379
0.8953,1053
0.8969667,1423
0.8986334,1610
0.9003,1337
0.9019667,1183
0.9036334,1342
0.9053,1379
0.9069667,1255
0.9086334,1330
0.9103,1198
0.9119667,1185
0.9136333,1179
0.9153,1173
0.9169667,1149
0.9186333,1125
0.9203,1071
0.9219667,1216
0.9236333,956
0.9253,1284
0.9269667,1166
0.9286333,1278
0.9303,1010
0.9319667,1256
0.9336333,1156
0.9353,1147
0.9369667,1245
0.9386333,995
0.9403,1243
0.9419667,1116
0.9436333,1201
0.9453,1284
0.9469666,1308
0.9486333,1279
0.9503,1329
0.9519666,1232
0.9536333,1201
0.9553,936
0.9569666,1284
0.9586333,1224
0.9603,1062
0.9619667,945
0.9636334,1029
0.9653,1111
0.9669667,1052
0.9686334,993
0.9703,1149
0.9719667,1194
0.9736333,1330
0.9753,1308
0.9769667,1286
0.9786333,1210
0.9803,1609
0.9819667,1650
0.9836333,1707
0.9853,1659
0.9869667,1611
0.9886333,1733
0.9903,1768
0.9919667,1870
0.9936333,1840
0.9953,1870
0.9969667,1733
0.9986333,2083
1.0003,2036
1.001967,1989
1.003633,2040
1.0053,2092
1.006967,2253
1.008633,2426
1.0103,2413
1.011967,2200
1.013633,2437
1.0153,2550
1.016967,2181
1.018633,2362
1.0203,2117
1.021967,2224
1.023633,2034
1.0253,1964
1.026967,1645
1.028633,1789
1.0303,1839
1.031967,1455
1.033633,1452
1.0353,1268
1.036967,1561
1.038633,1412
1.0403,1263
1.041967,1355
1.043633,1243
1.0453,1070
1.046967,1228
1.048633,1089
1.0503,1133
1.051967,901
1.053633,1035
1.0553,1241
1.056967,1192
1.058633,1351
1.0603,1270
1.061967,1060
1.063633,1183
1.0653,1175
1.066967,1162
1.068633,1172
1.0703,1109
1.071967,1396
1.073633,1329
1.0753,1276
1.076967,1247
1.078633,1171
1.0803,1249
1.081967,1505
1.083633,1432
1.0853,1527
1.086967,1304
1.088633,1156
1.0903,1659
1.091967,1319
1.093633,1369
1.0953,1580
1.096967,1566
1.098633,1670
1.1003,1651
1.101967,1487
1.103633,1327
1.1053,1460
1.106967,1531
1.108633,1406
1.1103,1182
1.111967,1278
1.113633,1434
1.1153,1279
1.116967,1236
1.118633,1505
1.1203,1130
1.121967,1258
1.123633,1046
1.1253,1337
1.126967,1268
1.128633,1059
1.1303,1132
1.131967,1109
1.133633,1043
1.1353,813
1.136967,1283
1.138633,1035
1.1403,1131
1.141967,1065
1.143633,998
1.1453,875
1.146967,999
1.148633,896
1.1503,804
1.151967,905
1.153633,710
1.1553,802
1.156967,883
1.158633,789
1.1603,806
1.161967,824
1.163633,882
1.1653,827
1.166967,772
1.168633,711
1.1703,865
1.171967,828
1.173633,791
1.1753,865
1.176967,846
1.178633,826
1.1803,832
1.181967,820
1.183633,808
1.1853,846
1.186967,884
1.188633,904
1.1903,925
1.191967,934
1.193633,858
1.1953,874
1.196967,891
1.198633,791
