"SampleName","A2Rd2_01-59"
"Target Mass 1",
"Column Name","IA-3 (3um, 4.6X100)"
"Channel","QDa 1: SIR Ch2"
0.00195,555
0.003616667,659
0.005283333,657
0.00695,763
0.008616666,862
0.01028333,866
0.01195,818
0.01361667,770
0.01528333,871
0.01695,985
0.01861667,919
0.02028333,1060
0.02195,989
0.02361667,895
0.02528333,1103
0.02695,968
0.02861667,856
0.03028333,1125
0.03195,971
0.03361667,1093
0.03528333,862
0.03695,1038
0.03861667,1018
0.04028333,1020
0.04195,972
0.04361667,1000
0.04528333,950
0.04695,912
0.04861667,901
0.05028334,1189
0.05195,1152
0.05361667,1063
0.05528333,956
0.05695,1101
0.05861667,1006
0.06028333,1026
0.06195,1054
0.06361666,906
0.06528334,1016
0.06695,1126
0.06861667,998
0.07028333,978
0.07195,958
0.07361667,872
0.07528333,939
0.07695,1006
0.07861666,989
0.08028334,1009
0.08195,779
0.08361667,958
0.08528333,1082
0.08695,1017
0.08861667,961
0.09028333,801
0.09195,895
0.09361666,961
0.09528334,885
0.09695,939
0.09861667,1056
0.1002833,1043
0.10195,1022
0.1036167,876
0.1052833,960
0.10695,928
0.1086167,735
0.1102833,1017
0.11195,862
0.1136167,1107
0.1152833,1031
0.11695,956
0.1186167,797
0.1202833,913
0.12195,942
0.1236167,1008
0.1252833,951
0.12695,989
0.1286167,1026
0.1302833,1058
0.13195,1000
0.1336167,953
0.1352833,901
0.13695,952
0.1386167,1004
0.1402833,994
0.14195,980
0.1436167,965
0.1452833,1026
0.14695,1078
0.1486167,869
0.1502833,954
0.15195,879
0.1536167,969
0.1552833,926
0.15695,883
0.1586167,757
0.1602833,1019
0.16195,911
0.1636167,1123
0.1652833,963
0.16695,917
0.1686167,929
0.1702833,843
0.17195,1018
0.1736167,932
0.1752833,846
0.17695,892
0.1786167,808
0.1802833,834
0.18195,861
0.1836167,954
0.1852833,1022
0.18695,1025
0.1886167,1029
0.1902833,815
0.19195,827
0.1936167,997
0.1952833,938
0.19695,878
0.1986167,847
0.2002833,903
0.20195,849
0.2036167,916
0.2052833,940
0.20695,965
0.2086167,968
0.2102833,970
0.21195,969
0.2136167,1019
0.2152833,1030
0.21695,1040
0.2186167,1137
0.2202833,826
0.22195,1187
0.2236167,1185
0.2252833,1075
0.22695,1103
0.2286167,1089
0.2302833,1233
0.23195,1216
0.2336167,1105
0.2352833,1353
0.23695,1288
0.2386167,1133
0.2402833,1301
0.24195,1411
0.2436167,1288
0.2452833,1138
0.24695,1147
0.2486167,1229
0.2502833,1102
0.25195,1087
0.2536167,1072
0.2552833,922
0.25695,1004
0.2586167,1086
0.2602833,1206
0.26195,1103
0.2636333,1235
0.2652833,1142
0.26695,1049
0.2686167,1106
0.2702833,1141
0.27195,1132
0.2736167,1072
0.2752833,1204
0.27695,1125
0.2786167,1045
0.2803,1122
0.28195,947
0.2836167,1116
0.2852833,1050
0.28695,1003
0.2886167,1067
0.2902833,1103
0.29195,1139
0.2936167,1083
0.2952833,1026
0.29695,1094
0.2986333,1062
0.3002833,1031
0.30195,1048
0.3036167,1168
0.3052833,1142
0.30695,1370
0.3086167,1303
0.3102833,1402
0.31195,1081
0.3136333,1332
0.3153,1393
0.31695,1521
0.3186333,1160
0.3202833,1411
0.3219667,1177
0.3236167,1055
0.3252833,1463
0.32695,1394
0.3286167,1162
0.3303,1300
0.3319667,1296
0.3336333,1277
0.3353,1302
0.33695,1327
0.3386333,1258
0.3402833,1264
0.3419667,1269
0.3436167,1345
0.3452833,1421
0.3469667,1423
0.3486333,1417
0.3503,1410
0.3519667,1462
0.3536333,1249
0.3553,1242
0.3569667,1379
0.3586333,1358
0.3602833,1337
0.3619667,1377
0.3636333,1925
0.3653,2834
0.36695,4164
0.3686333,4407
0.3703,5109
0.3719667,5165
0.3736333,4915
0.3753,4741
0.3769667,4216
0.3786333,3201
0.3803,2375
0.3819667,1820
0.3836333,1523
0.3853,1092
0.3869667,841
0.3886333,641
0.3903,553
0.3919667,581
0.3936333,447
0.3953,321
0.3969667,503
0.3986333,425
0.4003,477
0.4019667,375
0.4036333,610
0.4053,639
0.4069667,586
0.4086333,666
0.4103,926
0.4119667,952
0.4136333,1006
0.4153,836
0.4169667,1016
0.4186333,836
0.4203,851
0.4219667,941
0.4236333,836
0.4253,929
0.4269667,848
0.4286333,863
0.4303,828
0.4319667,792
0.4336333,1003
0.4353,1053
0.4369667,980
0.4386333,954
0.4403,955
0.4419667,981
0.4436333,962
0.4453,989
0.4469667,1016
0.4486333,1069
0.4503,1273
0.4519667,1292
0.4536333,1146
0.4553,1267
0.4569667,1230
0.4586333,1250
0.4603,1333
0.4619667,1151
0.4636333,1092
0.4653,1164
0.4669667,1231
0.4686333,1184
0.4703,1160
0.4719667,1140
0.4736333,1135
0.4753,1131
0.4769667,1088
0.4786333,1100
0.4803,1028
0.4819667,1128
0.4836333,1103
0.4853,1035
0.4869667,1141
0.4886333,893
0.4903,1047
0.4919667,1198
0.4936333,1084
0.4953,961
0.4969667,1026
0.4986333,918
0.5003,952
0.5019667,987
0.5036333,982
0.5053,978
0.5069667,927
0.5086333,877
0.5103,949
0.5119666,858
0.5136333,962
0.5153,970
0.5169666,788
0.5186333,937
0.5203,1003
0.5219667,908
0.5236334,813
0.5253,1075
0.5269667,1101
0.5286334,1102
0.5303,1093
0.5319667,888
0.5336334,1261
0.5353,1086
0.5369667,1306
0.5386333,1075
0.5403,1106
0.5419667,1116
0.5436333,969
0.5453,1251
0.5469667,1275
0.5486333,1171
0.5503,1302
0.5519667,1059
0.5536333,1021
0.5553,1225
0.5569667,995
0.5586333,1172
0.5603,1025
0.5619667,1002
0.5636333,1036
0.5653,1053
0.5669667,834
0.5686333,948
0.5703,938
0.5719666,929
0.5736333,889
0.5753,906
0.5769666,883
0.5786333,943
0.5803,969
0.5819666,802
0.5836333,1023
0.5853,860
0.5869667,764
0.5886334,826
0.5903,888
0.5919667,664
0.5936334,1003
0.5953,915
0.5969667,741
0.5986333,664
0.6003,846
0.6019667,932
0.6036333,886
0.6053,892
0.6069667,877
0.6086333,861
0.6103,819
0.6119667,778
0.6136333,710
0.6153,848
0.6169667,873
0.6186333,1008
0.6203,891
0.6219667,765
0.6236333,884
0.6253,751
0.6269667,961
0.6286333,935
0.6303,966
0.6319667,773
0.6336333,802
0.6353,834
0.6369666,789
0.6386333,888
0.6403,949
0.6419666,916
0.6436333,749
0.6453,942
0.6469667,945
0.6486334,840
0.6503,985
0.6519667,853
0.6536334,923
0.6553,932
0.6569667,679
0.6586334,857
0.6603,729
0.6619667,769
0.6636333,810
0.6653,775
0.6669667,734
0.6686333,845
0.6703,842
0.6719667,838
0.6736333,833
0.6753,828
0.6769667,706
0.6786333,705
0.6803,703
0.6819667,757
0.6836333,755
0.6853,754
0.6869667,716
0.6886333,679
0.6903,722
0.6919667,704
0.6936333,832
0.6953,927
0.6969666,889
0.6986333,860
0.7003,876
0.7019666,813
0.7036333,759
0.7053,864
0.7069666,842
0.7086333,777
0.7103,830
0.7119667,805
0.7136334,858
0.7153,742
0.7169667,829
0.7186334,820
0.7203,811
0.7219667,802
0.7236333,814
0.7253,711
0.7269667,829
0.7286333,946
0.7303,912
0.7319667,756
0.7336333,812
0.7353,846
0.7369667,779
0.7386333,679
0.7403,878
0.7419667,888
0.7436333,645
0.7453,796
0.7469667,967
0.7486333,841
0.7503,743
0.7519667,976
0.7536333,712
0.7553,641
0.7569667,837
0.7586333,804
0.7603,771
0.7619666,871
0.7636333,727
0.7653,789
0.7669666,1062
0.7686333,976
0.7703,810
0.7719667,788
0.7736334,939
0.7753,769
0.7769667,649
0.7786334,739
0.7803,909
0.7819667,875
0.7836334,866
0.7853,857
0.7869667,734
0.7886333,752
0.7903,738
0.7919667,714
0.7936333,710
0.7953,706
0.7969667,728
0.7986333,751
0.8003,915
0.8019667,800
0.8036333,686
0.8053,813
0.8069667,759
0.8086333,983
0.8103,951
0.8119667,920
0.8136333,857
0.8153,786
0.8169667,977
0.8186333,903
0.8203,830
0.8219666,769
0.8236333,988
0.8253,957
0.8269666,926
0.8286333,827
0.8303,989
0.8319666,1054
0.8336333,912
0.8353,707
0.8369667,1023
0.8386334,720
0.8403,852
0.8419667,821
0.8436334,864
0.8453,850
0.8469667,837
0.8486333,748
0.8503,797
0.8519667,846
0.8536333,819
0.8553,849
0.8569667,832
0.8586333,837
0.8603,996
0.8619667,1017
0.8636333,1167
0.8653,1695
0.8669667,1832
0.8686333,1872
0.8703,1738
0.8719667,1913
0.8736333,1866
0.8753,1819
0.8769667,1977
0.8786333,1953
0.8803,1957
0.8819667,1676
0.8836333,1431
0.8853,1554
0.8869666,1411
0.8886333,1649
0.8903,1952
0.8919666,1989
0.8936333,1792
0.8953,1635
0.8969667,1693
0.8986334,1882
0.9003,1853
0.9019667,1708
0.9036334,1959
0.9053,1988
0.9069667,1729
0.9086334,1934
0.9103,1930
0.9119667,1932
0.9136333,2020
0.9153,2014
0.9169667,2008
0.9186333,1715
0.9203,1678
0.9219667,1924
0.9236333,1827
0.9253,1832
0.9269667,1837
0.9286333,1859
0.9303,1837
0.9319667,1814
0.9336333,1895
0.9353,1909
0.9369667,1631
0.9386333,1945
0.9403,1633
0.9419667,1850
0.9436333,1711
0.9453,1931
0.9469666,1811
0.9486333,1728
0.9503,1891
0.9519666,1590
0.9536333,1388
0.9553,1518
0.9569666,1419
0.9586333,1462
0.9603,1315
0.9619667,1120
0.9636334,1101
0.9653,1067
0.9669667,1246
0.9686334,1343
0.9703,878
0.9719667,958
0.9736333,1146
0.9753,948
0.9769667,960
0.9786333,991
0.9803,917
0.9819667,903
0.9836333,889
0.9853,925
0.9869667,647
0.9886333,931
0.9903,817
0.9919667,925
0.9936333,867
0.9953,809
0.9969667,874
0.9986333,929
1.0003,955
1.001967,915
1.003633,904
1.0053,848
1.006967,791
1.008633,743
1.0103,944
1.011967,991
1.013633,956
1.0153,1015
1.016967,1025
1.018633,1034
1.0203,858
1.021967,935
1.023633,926
1.0253,1032
1.026967,1088
1.028633,1020
1.0303,1011
1.031967,832
1.033633,1008
1.0353,962
1.036967,901
1.038633,806
1.0403,807
1.041967,835
1.043633,837
1.0453,838
1.046967,859
1.048633,848
1.0503,838
1.051967,849
1.053633,861
1.0553,879
1.056967,898
1.058633,868
1.0603,838
1.061967,776
1.063633,779
1.0653,783
1.066967,856
1.068633,929
1.0703,654
1.071967,805
1.073633,1035
1.0753,961
1.076967,913
1.078633,888
1.0803,870
1.081967,945
1.083633,963
1.0853,982
1.086967,883
1.088633,909
1.0903,986
1.091967,1063
1.093633,1110
1.0953,809
1.096967,1044
1.098633,1215
1.1003,905
1.101967,934
1.103633,791
1.1053,861
1.106967,980
1.108633,782
1.1103,834
1.111967,859
1.113633,997
1.1153,1047
1.116967,748
1.118633,989
1.1203,1077
1.121967,944
1.123633,1002
1.1253,734
1.126967,1020
1.128633,969
1.1303,918
1.131967,865
1.133633,941
1.1353,878
1.136967,800
1.138633,828
1.1403,855
1.141967,821
1.143633,787
1.1453,745
1.146967,1030
1.148633,1018
1.1503,1031
1.151967,807
1.153633,1063
1.1553,874
1.156967,756
1.158633,925
1.1603,863
1.161967,858
1.163633,852
1.1653,882
1.166967,883
1.168633,885
1.1703,897
1.171967,771
1.173633,728
1.1753,918
1.176967,785
1.178633,943
1.1803,878
1.181967,979
1.183633,891
1.1853,878
1.186967,872
1.188633,833
1.1903,895
1.191967,837
1.193633,853
1.1953,869
1.196967,949
1.198633,1025
