"SampleName","A2Rd2_01-87"
"Target Mass 1",
"Column Name","IA-3 (3um, 4.6X100)"
"Channel","QDa 1: SIR Ch2"
0.00195,540
0.003616667,533
0.005283333,566
0.00695,814
0.008616666,984
0.01028333,818
0.01195,947
0.01361667,948
0.01528333,949
0.01695,751
0.01861667,815
0.02028333,920
0.02195,880
0.02361667,803
0.02528333,810
0.02695,816
0.02861667,815
0.03028333,814
0.03195,789
0.03361667,763
0.03528333,819
0.03695,766
0.03861667,713
0.04028333,831
0.04195,950
0.04361667,988
0.04528333,1059
0.04695,875
0.04861667,913
0.05028334,944
0.05195,867
0.05361667,728
0.05528333,962
0.05695,871
0.05861667,874
0.06028333,804
0.06195,943
0.06361666,968
0.06528334,828
0.06695,1068
0.06861667,1082
0.07028333,1029
0.07195,914
0.07361667,738
0.07528333,880
0.07695,989
0.07861666,997
0.08028334,783
0.08195,1005
0.08361667,729
0.08528333,1074
0.08695,1045
0.08861667,903
0.09028333,1020
0.09195,954
0.09361666,1034
0.09528334,927
0.09695,889
0.09861667,766
0.1002833,820
0.10195,873
0.1036167,940
0.1052833,903
0.10695,878
0.1086167,832
0.1102833,694
0.11195,759
0.1136167,826
0.1152833,995
0.11695,913
0.1186167,766
0.1202833,850
0.12195,855
0.1236167,837
0.1252833,941
0.12695,1027
0.1286167,666
0.1302833,688
0.13195,847
0.1336167,889
0.1352833,865
0.13695,773
0.1386167,917
0.1402833,907
0.14195,896
0.1436167,849
0.1452833,917
0.14695,770
0.1486167,800
0.1502833,829
0.15195,663
0.1536167,778
0.1552833,728
0.15695,812
0.1586167,746
0.1602833,710
0.16195,687
0.1636167,886
0.1652833,943
0.16695,1008
0.1686167,803
0.1702833,929
0.17195,1039
0.1736167,855
0.1752833,792
0.17695,877
0.1786167,738
0.1802833,821
0.18195,903
0.1836167,922
0.1852833,712
0.18695,1085
0.1886167,992
0.1902833,821
0.19195,807
0.1936167,738
0.1952833,762
0.19695,787
0.1986167,964
0.2002833,945
0.20195,887
0.2036167,897
0.2052833,978
0.20695,738
0.2086167,893
0.2102833,936
0.21195,964
0.2136167,869
0.2152833,1001
0.21695,1024
0.2186167,1053
0.2202833,1019
0.22195,1051
0.2236167,1006
0.2252833,1136
0.22695,1178
0.2286167,1063
0.2302833,947
0.23195,979
0.2336167,1151
0.2352833,1242
0.23695,1300
0.2386167,1261
0.2402833,1257
0.24195,1341
0.2436167,1345
0.2453,1349
0.24695,1204
0.2486167,1155
0.2502833,1030
0.25195,1080
0.2536167,1113
0.2552833,1146
0.25695,1172
0.2586167,1359
0.2602833,1422
0.26195,859
0.2636333,1112
0.2652833,1095
0.26695,1071
0.2686167,1095
0.2702833,1115
0.27195,1166
0.2736167,1096
0.2752833,1026
0.27695,1151
0.2786167,973
0.2803,1033
0.28195,926
0.2836167,939
0.2853,952
0.28695,961
0.2886167,993
0.2902833,805
0.29195,869
0.2936333,933
0.2952833,994
0.29695,966
0.2986333,1010
0.3002833,971
0.3019667,1008
0.3036167,1045
0.3053,1149
0.30695,1142
0.3086167,1054
0.3103,1071
0.31195,1236
0.3136167,1176
0.3153,1116
0.31695,1150
0.3186333,1183
0.3202833,1176
0.3219667,1594
0.3236167,1494
0.3252833,1234
0.3269667,1122
0.3286167,1186
0.3302833,1320
0.33195,1266
0.3336333,1256
0.3353,1245
0.3369667,1195
0.3386333,1145
0.3402833,1234
0.34195,1275
0.3436333,1317
0.3452833,1461
0.34695,1532
0.3486167,1190
0.3503,1166
0.3519667,1325
0.3536333,1208
0.3553,1373
0.3569667,1428
0.3586167,1425
0.3603,1630
0.36195,1049
0.3636167,1719
0.3652833,2393
0.3669667,3615
0.3686333,3668
0.3703,4475
0.3719667,4892
0.3736333,4762
0.3753,4695
0.3769667,4452
0.3786333,3876
0.3803,4002
0.3819667,3050
0.3836333,2350
0.3853,2029
0.3869667,1645
0.3886333,1378
0.3903,1165
0.3919667,717
0.3936333,702
0.3953,602
0.3969667,531
0.3986333,556
0.4003,636
0.4019667,454
0.4036333,460
0.4053,514
0.4069667,516
0.4086333,518
0.4103,644
0.4119667,744
0.4136333,662
0.4153,631
0.4169667,551
0.4186333,673
0.4203,590
0.4219667,778
0.4236333,770
0.4253,634
0.4269667,701
0.4286333,809
0.4303,824
0.4319667,932
0.4336333,981
0.4353,919
0.4369667,839
0.4386333,891
0.4403,931
0.4419667,853
0.4436333,1060
0.4453,1020
0.4469667,1087
0.4486333,1031
0.4503,1041
0.4519667,1269
0.4536333,1330
0.4553,1202
0.4569667,1299
0.4586333,1324
0.4603,1349
0.4619667,1429
0.4636333,1509
0.4653,1712
0.4669667,1649
0.4686333,1814
0.4703,1806
0.4719667,1629
0.4736333,1575
0.4753,1686
0.4769667,1432
0.4786333,1520
0.4803,1520
0.4819667,1466
0.4836333,1671
0.4853,1293
0.4869667,1427
0.4886333,1367
0.4903,1294
0.4919667,1117
0.4936333,1095
0.4953,1168
0.4969667,1052
0.4986333,1127
0.5003,1036
0.5019667,1157
0.5036333,1015
0.5053,847
0.5069667,973
0.5086333,931
0.5103,879
0.5119666,827
0.5136333,816
0.5153,1070
0.5169666,1036
0.5186333,735
0.5203,652
0.5219667,1018
0.5236334,1094
0.5253,904
0.5269667,881
0.5286334,971
0.5303,1052
0.5319667,1025
0.5336334,882
0.5353,955
0.5369667,925
0.5386333,868
0.5403,951
0.5419667,1035
0.5436333,986
0.5453,879
0.5469667,667
0.5486333,723
0.5503,839
0.5519667,787
0.5536333,847
0.5553,874
0.5569667,941
0.5586333,980
0.5603,786
0.5619667,811
0.5636333,981
0.5653,958
0.5669667,935
0.5686333,959
0.5703,984
0.5719666,904
0.5736333,844
0.5753,820
0.5769666,821
0.5786333,849
0.5803,876
0.5819666,937
0.5836333,855
0.5853,772
0.5869667,876
0.5886334,920
0.5903,929
0.5919667,854
0.5936334,940
0.5953,909
0.5969667,878
0.5986333,773
0.6003,795
0.6019667,845
0.6036333,869
0.6053,893
0.6069667,786
0.6086333,914
0.6103,930
0.6119667,927
0.6136333,943
0.6153,959
0.6169667,955
0.6186333,946
0.6203,761
0.6219667,881
0.6236333,838
0.6253,814
0.6269667,791
0.6286333,787
0.6303,887
0.6319667,886
0.6336333,933
0.6353,825
0.6369666,685
0.6386333,835
0.6403,929
0.6419666,826
0.6436333,877
0.6453,888
0.6469667,874
0.6486334,812
0.6503,898
0.6519667,810
0.6536334,857
0.6553,840
0.6569667,866
0.6586334,880
0.6603,860
0.6619667,973
0.6636333,933
0.6653,894
0.6669667,767
0.6686333,887
0.6703,973
0.6719667,807
0.6736333,654
0.6753,905
0.6769667,1000
0.6786333,770
0.6803,1047
0.6819667,974
0.6836333,868
0.6853,810
0.6869667,801
0.6886333,853
0.6903,856
0.6919667,846
0.6936333,828
0.6953,788
0.6969666,812
0.6986333,829
0.7003,841
0.7019666,854
0.7036333,802
0.7053,750
0.7069666,894
0.7086333,791
0.7103,687
0.7119667,968
0.7136334,780
0.7153,911
0.7169667,845
0.7186334,836
0.7203,826
0.7219667,831
0.7236333,837
0.7253,853
0.7269667,869
0.7286333,736
0.7303,750
0.7319667,763
0.7336333,1006
0.7353,957
0.7369667,795
0.7386333,754
0.7403,929
0.7419667,922
0.7436333,767
0.7453,727
0.7469667,830
0.7486333,747
0.7503,664
0.7519667,938
0.7536333,903
0.7553,889
0.7569667,677
0.7586333,728
0.7603,1012
0.7619666,899
0.7636333,782
0.7653,944
0.7669666,1004
0.7686333,868
0.7703,798
0.7719667,931
0.7736334,927
0.7753,922
0.7769667,729
0.7786334,835
0.7803,976
0.7819667,826
0.7836334,785
0.7853,744
0.7869667,602
0.7886333,899
0.7903,901
0.7919667,759
0.7936333,971
0.7953,897
0.7969667,773
0.7986333,775
0.8003,904
0.8019667,964
0.8036333,882
0.8053,740
0.8069667,817
0.8086333,876
0.8103,912
0.8119667,856
0.8136333,1030
0.8153,1129
0.8169667,752
0.8186333,974
0.8203,804
0.8219666,851
0.8236333,898
0.8253,904
0.8269666,760
0.8286333,947
0.8303,808
0.8319666,766
0.8336333,758
0.8353,748
0.8369667,884
0.8386334,897
0.8403,852
0.8419667,829
0.8436334,968
0.8453,989
0.8469667,959
0.8486333,809
0.8503,823
0.8519667,882
0.8536333,914
0.8553,888
0.8569667,863
0.8586333,882
0.8603,901
0.8619667,812
0.8636333,846
0.8653,881
0.8669667,837
0.8686333,832
0.8703,739
0.8719667,795
0.8736333,810
0.8753,824
0.8769667,778
0.8786333,977
0.8803,955
0.8819667,991
0.8836333,1137
0.8853,1186
0.8869666,1235
0.8886333,1326
0.8903,1416
0.8919666,1395
0.8936333,1094
0.8953,1271
0.8969667,1477
0.8986334,1110
0.9003,1353
0.9019667,1330
0.9036334,1326
0.9053,1435
0.9069667,1603
0.9086334,1633
0.9103,1313
0.9119667,1363
0.9136333,1301
0.9153,1217
0.9169667,1435
0.9186333,1324
0.9203,1212
0.9219667,1260
0.9236333,1386
0.9253,1333
0.9269667,1280
0.9286333,1462
0.9303,1403
0.9319667,1415
0.9336333,1431
0.9353,1447
0.9369667,1289
0.9386333,1525
0.9403,1475
0.9419667,1418
0.9436333,1542
0.9453,1506
0.9469666,1195
0.9486333,1340
0.9503,1127
0.9519666,1043
0.9536333,1294
0.9553,1249
0.9569666,1101
0.9586333,1248
0.9603,1131
0.9619667,909
0.9636334,1049
0.9653,1045
0.9669667,1005
0.9686334,1140
0.9703,801
0.9719667,995
0.9736333,957
0.9753,1069
0.9769667,937
0.9786333,854
0.9803,1032
0.9819667,916
0.9836333,1046
0.9853,889
0.9869667,637
0.9886333,802
0.9903,824
0.9919667,841
0.9936333,787
0.9953,838
0.9969667,710
0.9986333,801
1.0003,744
1.001967,686
1.003633,738
1.0053,741
1.006967,744
1.008633,786
1.0103,760
1.011967,734
1.013633,807
1.0153,766
1.016967,726
1.018633,1019
1.0203,972
1.021967,939
1.023633,872
1.0253,961
1.026967,950
1.028633,792
1.0303,1007
1.031967,991
1.033633,879
1.0353,881
1.036967,750
1.038633,825
1.0403,899
1.041967,806
1.043633,848
1.0453,912
1.046967,781
1.048633,985
1.0503,912
1.051967,838
1.053633,843
1.0553,670
1.056967,824
1.058633,901
1.0603,888
1.061967,726
1.063633,847
1.0653,778
1.066967,708
1.068633,935
1.0703,830
1.071967,725
1.073633,754
1.0753,782
1.076967,783
1.078633,783
1.0803,839
1.081967,895
1.083633,1016
1.0853,961
1.086967,906
1.088633,729
1.0903,936
1.091967,867
1.093633,650
1.0953,803
1.096967,733
1.098633,814
1.1003,895
1.101967,879
1.103633,752
1.1053,803
1.106967,854
1.108633,588
1.1103,714
1.111967,840
1.113633,943
1.1153,838
1.116967,780
1.118633,829
1.1203,689
1.121967,745
1.123633,758
1.1253,770
1.126967,769
1.128633,660
1.1303,828
1.131967,846
1.133633,864
1.1353,818
1.136967,837
1.138633,823
1.1403,809
1.141967,799
1.143633,742
1.1453,884
1.146967,565
1.148633,831
1.1503,852
1.151967,796
1.153633,876
1.1553,833
1.156967,693
1.158633,868
1.1603,611
1.161967,905
1.163633,867
1.1653,710
1.166967,735
1.168633,929
1.1703,922
1.171967,749
1.173633,739
1.1753,770
1.176967,802
1.178633,854
1.1803,804
1.181967,754
1.183633,913
1.1853,947
1.186967,779
1.188633,971
1.1903,883
1.191967,819
1.193633,844
1.1953,838
1.196967,854
1.198633,870
