"SampleName","A2Rd2_01-9"
"Target Mass 1",
"Column Name","IA-3 (3um, 4.6X100)"
"Channel","QDa 1: SIR Ch1"
0.00195,390
0.003616667,473
0.005283333,523
0.00695,565
0.008616666,440
0.01028333,367
0.01195,428
0.01361667,411
0.01528333,334
0.01695,384
0.01861667,390
0.02028333,395
0.02195,321
0.02361667,547
0.02528333,559
0.02695,525
0.02861667,512
0.03028333,433
0.03195,471
0.03361667,416
0.03528333,430
0.03695,443
0.03861667,480
0.04028333,464
0.04195,449
0.04361667,380
0.04528333,372
0.04695,363
0.04861667,428
0.05028334,492
0.05195,547
0.05361667,483
0.05528333,496
0.05695,452
0.05861667,397
0.06028333,404
0.06195,371
0.06361666,400
0.06528334,388
0.06695,376
0.06861667,391
0.07028333,413
0.07195,339
0.07361667,424
0.07528333,388
0.07695,351
0.07861666,381
0.08028334,441
0.08195,428
0.08361667,416
0.08528333,397
0.08695,379
0.08861667,405
0.09028333,361
0.09195,526
0.09361666,505
0.09528334,481
0.09695,518
0.09861667,457
0.1002833,370
0.10195,380
0.1036167,375
0.1052833,342
0.10695,527
0.1086167,493
0.1102833,622
0.11195,441
0.1136167,353
0.1152833,468
0.11695,413
0.1186167,358
0.1202833,447
0.12195,393
0.1236167,339
0.1252833,387
0.12695,435
0.1286167,438
0.1302833,403
0.13195,369
0.1336167,317
0.1352833,477
0.13695,477
0.1386167,413
0.1402833,350
0.14195,390
0.1436167,388
0.1452833,442
0.14695,444
0.1486167,446
0.1502833,392
0.15195,438
0.1536167,485
0.1552833,449
0.15695,447
0.1586167,418
0.1602833,470
0.16195,486
0.1636167,436
0.1652833,442
0.16695,468
0.1686167,440
0.1702833,413
0.17195,477
0.1736167,487
0.1752833,539
0.17695,314
0.1786167,484
0.1802833,480
0.18195,460
0.1836167,344
0.1852833,423
0.18695,395
0.1886167,411
0.1902833,427
0.19195,372
0.1936167,388
0.1952833,390
0.19695,391
0.1986167,384
0.2002833,388
0.20195,442
0.2036167,462
0.2052833,437
0.20695,440
0.2086167,427
0.2102833,414
0.21195,402
0.2136167,366
0.2152833,330
0.21695,341
0.2186167,353
0.2202833,345
0.22195,411
0.2236167,476
0.2252833,437
0.22695,429
0.2286167,422
0.2302833,353
0.23195,395
0.2336167,381
0.2352833,403
0.23695,390
0.2386167,376
0.2402833,315
0.24195,403
0.2436167,313
0.2452833,484
0.24695,424
0.2486167,397
0.2502833,436
0.25195,368
0.2536167,407
0.2552833,390
0.25695,450
0.2586167,511
0.2602833,479
0.26195,508
0.2636333,491
0.2652833,386
0.26695,454
0.2686167,405
0.2702833,449
0.27195,566
0.2736167,570
0.2752833,529
0.27695,502
0.2786167,568
0.2803,320
0.28195,404
0.2836167,377
0.2852833,503
0.28695,519
0.2886167,432
0.2902833,318
0.29195,461
0.2936167,479
0.2952833,505
0.2969667,407
0.2986333,461
0.3002833,469
0.30195,478
0.3036333,432
0.3052833,519
0.30695,344
0.3086167,553
0.3102833,484
0.31195,409
0.3136167,470
0.3153,436
0.31695,402
0.3186333,496
0.3203,395
0.32195,509
0.3236333,501
0.3252833,455
0.32695,409
0.3286167,353
0.3302833,603
0.3319667,697
0.3336333,565
0.3352833,467
0.3369667,401
0.3386167,512
0.3402833,555
0.34195,568
0.3436333,562
0.3453,542
0.3469667,537
0.3486333,531
0.3503,593
0.3519667,542
0.3536333,490
0.3552833,481
0.3569667,521
0.3586167,560
0.3602833,739
0.36195,936
0.3636333,1348
0.3653,3013
0.3669667,5512
0.3686333,7336
0.3703,8161
0.3719667,7398
0.3736333,7770
0.3753,5216
0.3769667,4334
0.3786333,4088
0.3803,3524
0.3819667,3711
0.3836333,3178
0.3853,2642
0.3869667,2047
0.3886333,2096
0.3903,2072
0.3919667,1993
0.3936333,1848
0.3953,1810
0.3969667,2060
0.3986333,1970
0.4003,1408
0.4019667,1608
0.4036333,1756
0.4053,1708
0.4069667,1582
0.4086333,1395
0.4103,1697
0.4119667,1792
0.4136333,1775
0.4153,1621
0.4169667,1695
0.4186333,1684
0.4203,1721
0.4219667,1711
0.4236333,1438
0.4253,1453
0.4269667,1744
0.4286333,1402
0.4303,1569
0.4319667,1531
0.4336333,1552
0.4353,1631
0.4369667,1396
0.4386333,1918
0.4403,1966
0.4419667,2642
0.4436333,3731
0.4453,5342
0.4469667,7684
0.4486333,11280
0.4503,15860
0.4519667,23540
0.4536333,37520
0.4553,56096
0.4569667,83184
0.4586333,122944
0.4603,165632
0.4619667,219776
0.4636333,283264
0.4653,338048
0.4669667,379648
0.4686333,413696
0.4703,432832
0.4719667,428096
0.4736333,409600
0.4753,377024
0.4769667,331520
0.4786333,286208
0.4803,240192
0.4819667,196160
0.4836333,160320
0.4853,130176
0.4869667,103520
0.4886333,84208
0.4903,66752
0.4919667,54320
0.4936333,44928
0.4953,34960
0.4969667,30660
0.4986333,24824
0.5003,21336
0.5019667,18620
0.5036333,15492
0.5053,13172
0.5069667,11620
0.5086333,9832
0.5103,8748
0.5119666,7410
0.5136333,7398
0.5153,6401
0.5169666,5982
0.5186333,5662
0.5203,4973
0.5219667,4756
0.5236334,4709
0.5253,3278
0.5269667,4072
0.5286334,3399
0.5303,4019
0.5319667,3491
0.5336334,3560
0.5353,3256
0.5369667,2833
0.5386333,2968
0.5403,2860
0.5419667,2889
0.5436333,2499
0.5453,2382
0.5469667,2445
0.5486333,2336
0.5503,2376
0.5519667,2413
0.5536333,2240
0.5553,2009
0.5569667,2045
0.5586333,1970
0.5603,1554
0.5619667,1759
0.5636333,1913
0.5653,1641
0.5669667,1590
0.5686333,1680
0.5703,1824
0.5719666,1216
0.5736333,1474
0.5753,1205
0.5769666,1407
0.5786333,1336
0.5803,1316
0.5819666,1295
0.5836333,1342
0.5853,1294
0.5869667,1247
0.5886334,1470
0.5903,1419
0.5919667,1264
0.5936334,1359
0.5953,1354
0.5969667,1286
0.5986333,1382
0.6003,1338
0.6019667,1295
0.6036333,1335
0.6053,1376
0.6069667,1210
0.6086333,1044
0.6103,1432
0.6119667,1316
0.6136333,1348
0.6153,1422
0.6169667,1317
0.6186333,1136
0.6203,1303
0.6219667,1004
0.6236333,1019
0.6253,1203
0.6269667,1095
0.6286333,1153
0.6303,1065
0.6319667,934
0.6336333,806
0.6353,1046
0.6369666,895
0.6386333,827
0.6403,881
0.6419666,869
0.6436333,865
0.6453,662
0.6469667,765
0.6486334,822
0.6503,691
0.6519667,632
0.6536334,889
0.6553,735
0.6569667,655
0.6586334,906
0.6603,925
0.6619667,723
0.6636333,763
0.6653,635
0.6669667,570
0.6686333,594
0.6703,715
0.6719667,760
0.6736333,760
0.6753,721
0.6769667,748
0.6786333,787
0.6803,756
0.6819667,725
0.6836333,603
0.6853,689
0.6869667,688
0.6886333,720
0.6903,546
0.6919667,654
0.6936333,634
0.6953,573
0.6969666,627
0.6986333,623
0.7003,618
0.7019666,629
0.7036333,639
0.7053,651
0.7069666,677
0.7086333,703
0.7103,494
0.7119667,543
0.7136334,603
0.7153,690
0.7169667,664
0.7186334,526
0.7203,586
0.7219667,636
0.7236333,616
0.7253,599
0.7269667,528
0.7286333,490
0.7303,522
0.7319667,590
0.7336333,593
0.7353,687
0.7369667,666
0.7386333,495
0.7403,597
0.7419667,398
0.7436333,495
0.7453,510
0.7469667,542
0.7486333,582
0.7503,582
0.7519667,582
0.7536333,572
0.7553,571
0.7569667,543
0.7586333,566
0.7603,589
0.7619666,540
0.7636333,623
0.7653,716
0.7669666,675
0.7686333,576
0.7703,626
0.7719667,527
0.7736334,701
0.7753,703
0.7769667,738
0.7786334,668
0.7803,491
0.7819667,502
0.7836334,652
0.7853,575
0.7869667,452
0.7886333,539
0.7903,567
0.7919667,490
0.7936333,522
0.7953,516
0.7969667,492
0.7986333,467
0.8003,500
0.8019667,533
0.8036333,421
0.8053,493
0.8069667,601
0.8086333,636
0.8103,478
0.8119667,388
0.8136333,510
0.8153,541
0.8169667,582
0.8186333,451
0.8203,513
0.8219666,547
0.8236333,509
0.8253,549
0.8269666,420
0.8286333,565
0.8303,370
0.8319666,513
0.8336333,449
0.8353,411
0.8369667,463
0.8386334,455
0.8403,446
0.8419667,482
0.8436334,449
0.8453,416
0.8469667,507
0.8486333,512
0.8503,518
0.8519667,618
0.8536333,546
0.8553,474
0.8569667,456
0.8586333,437
0.8603,601
0.8619667,602
0.8636333,547
0.8653,455
0.8669667,576
0.8686333,431
0.8703,591
0.8719667,558
0.8736333,433
0.8753,376
0.8769667,468
0.8786333,673
0.8803,777
0.8819667,690
0.8836333,1048
0.8853,1287
0.8869666,1561
0.8886333,1499
0.8903,1538
0.8919666,1667
0.8936333,1615
0.8953,1563
0.8969667,1863
0.8986334,1796
0.9003,1930
0.9019667,1915
0.9036334,1664
0.9053,1742
0.9069667,1863
0.9086334,1948
0.9103,1814
0.9119667,1857
0.9136333,1815
0.9153,1774
0.9169667,1956
0.9186333,1948
0.9203,1998
0.9219667,1698
0.9236333,1662
0.9253,1831
0.9269667,1730
0.9286333,1804
0.9303,1757
0.9319667,1709
0.9336333,1746
0.9353,1783
0.9369667,1705
0.9386333,1801
0.9403,1711
0.9419667,1711
0.9436333,1557
0.9453,1593
0.9469666,1648
0.9486333,1463
0.9503,1380
0.9519666,1344
0.9536333,1281
0.9553,1111
0.9569666,1109
0.9586333,1265
0.9603,985
0.9619667,891
0.9636334,1053
0.9653,940
0.9669667,964
0.9686334,756
0.9703,697
0.9719667,742
0.9736333,784
0.9753,690
0.9769667,527
0.9786333,538
0.9803,631
0.9819667,634
0.9836333,538
0.9853,559
0.9869667,642
0.9886333,384
0.9903,390
0.9919667,570
0.9936333,465
0.9953,570
0.9969667,386
0.9986333,465
1.0003,523
1.001967,553
1.003633,440
1.0053,454
1.006967,308
1.008633,419
1.0103,523
1.011967,458
1.013633,449
1.0153,394
1.016967,362
1.018633,388
1.0203,414
1.021967,470
1.023633,483
1.0253,320
1.026967,498
1.028633,452
1.0303,394
1.031967,482
1.033633,351
1.0353,551
1.036967,544
1.038633,413
1.0403,462
1.041967,598
1.043633,595
1.0453,493
1.046967,502
1.048633,396
1.0503,587
1.051967,584
1.053633,547
1.0553,450
1.056967,573
1.058633,589
1.0603,558
1.061967,407
1.063633,526
1.0653,459
1.066967,485
1.068633,454
1.0703,423
1.071967,386
1.073633,444
1.0753,416
1.076967,388
1.078633,421
1.0803,408
1.081967,395
1.083633,437
1.0853,498
1.086967,480
1.088633,533
1.0903,494
1.091967,498
1.093633,503
1.0953,467
1.096967,543
1.098633,468
1.1003,392
1.101967,479
1.103633,446
1.1053,437
1.106967,429
1.108633,443
1.1103,457
1.111967,446
1.113633,435
1.1153,496
1.116967,476
1.118633,455
1.1203,403
1.121967,481
1.123633,448
1.1253,415
1.126967,443
1.128633,452
1.1303,461
1.131967,497
1.133633,485
1.1353,473
1.136967,436
1.138633,545
1.1403,520
1.141967,498
1.143633,477
1.1453,483
1.146967,535
1.148633,535
1.1503,536
1.151967,515
1.153633,500
1.1553,538
1.156967,577
1.158633,523
1.1603,470
1.161967,494
1.163633,440
1.1653,462
1.166967,477
1.168633,445
1.1703,413
1.171967,462
1.173633,511
1.1753,496
1.176967,481
1.178633,458
1.1803,435
1.181967,449
1.183633,482
1.1853,474
1.186967,465
1.188633,532
1.1903,402
1.191967,597
1.193633,566
1.1953,589
1.196967,492
1.198633,635
