"SampleName","A2Rd2_01-37"
"Target Mass 1",
"Column Name","IA-3 (3um, 4.6X100)"
"Channel","QDa 1: SIR Ch2"
0.00195,667
0.003616667,534
0.005283333,650
0.00695,691
0.008616666,920
0.01028333,1050
0.01195,865
0.01361667,813
0.01528333,1020
0.01695,949
0.01861667,818
0.02028333,1062
0.02195,761
0.02361667,785
0.02528333,775
0.02695,811
0.02861667,816
0.03028333,820
0.03195,809
0.03361667,901
0.03528333,913
0.03695,881
0.03861667,848
0.04028333,901
0.04195,749
0.04361667,787
0.04528333,826
0.04695,702
0.04861667,758
0.05028334,815
0.05195,898
0.05361667,878
0.05528333,867
0.05695,746
0.05861667,852
0.06028333,803
0.06195,754
0.06361666,792
0.06528334,802
0.06695,812
0.06861667,858
0.07028333,722
0.07195,929
0.07361667,849
0.07528333,840
0.07695,857
0.07861666,795
0.08028334,883
0.08195,739
0.08361667,847
0.08528333,817
0.08695,874
0.08861667,851
0.09028333,828
0.09195,816
0.09361666,703
0.09528334,852
0.09695,704
0.09861667,679
0.1002833,654
0.10195,876
0.1036167,943
0.1052833,951
0.10695,854
0.1086167,684
0.1102833,863
0.11195,734
0.1136167,810
0.1152833,824
0.11695,937
0.1186167,620
0.1202833,879
0.12195,732
0.1236167,892
0.1252833,834
0.12695,799
0.1286167,779
0.1302833,692
0.13195,605
0.1336167,782
0.1352833,693
0.13695,931
0.1386167,822
0.1402833,827
0.14195,863
0.1436167,844
0.1452833,824
0.14695,804
0.1486167,784
0.1502833,847
0.15195,867
0.1536167,887
0.1552833,791
0.15695,792
0.1586167,777
0.1602833,786
0.16195,795
0.1636167,832
0.1652833,720
0.16695,672
0.1686167,775
0.1702833,877
0.17195,840
0.1736167,798
0.1752833,626
0.17695,775
0.1786167,862
0.1802833,886
0.18195,783
0.1836167,878
0.1852833,744
0.18695,798
0.1886167,927
0.1902833,863
0.19195,861
0.1936167,782
0.1952833,832
0.19695,744
0.1986167,648
0.2002833,840
0.20195,911
0.2036167,860
0.2052833,723
0.20695,956
0.2086167,993
0.2102833,963
0.21195,935
0.2136167,933
0.2152833,900
0.2169667,1058
0.2186167,1021
0.2202833,794
0.22195,1121
0.2236167,946
0.2252833,1055
0.22695,1209
0.2286167,1094
0.2302833,940
0.23195,1097
0.2336167,957
0.2352833,1181
0.23695,1116
0.2386167,1307
0.2402833,1246
0.24195,1115
0.2436167,1211
0.2453,1155
0.24695,979
0.2486167,1007
0.2502833,1148
0.25195,1071
0.2536167,1171
0.2553,1110
0.25695,1050
0.2586167,1097
0.2602833,1060
0.26195,1023
0.2636333,950
0.2652833,985
0.26695,1021
0.2686167,1035
0.2703,833
0.27195,942
0.2736167,904
0.2752833,1039
0.27695,1076
0.2786167,1163
0.2803,822
0.28195,974
0.2836167,1265
0.2852833,1003
0.28695,761
0.2886167,884
0.2902833,1018
0.29195,1153
0.2936167,1128
0.2952833,1017
0.29695,1046
0.2986333,1094
0.3002833,924
0.30195,1126
0.3036167,1006
0.3052833,1030
0.30695,1185
0.3086167,1199
0.3102833,1147
0.31195,1215
0.3136167,1081
0.3153,1134
0.31695,1235
0.3186167,1104
0.3203,1206
0.32195,1221
0.3236167,1283
0.3252833,1064
0.32695,1321
0.3286167,1119
0.3303,1382
0.3319667,1462
0.3336333,1172
0.3352833,1279
0.3369667,1095
0.3386333,1416
0.3403,1301
0.34195,1206
0.3436333,1213
0.3452833,1228
0.34695,1236
0.3486333,1169
0.3503,1370
0.35195,1357
0.3536333,1150
0.3552833,1248
0.3569667,1371
0.3586167,1413
0.3602833,1332
0.36195,1400
0.3636167,1426
0.3653,3243
0.36695,4285
0.3686333,5549
0.3703,6187
0.3719667,6668
0.3736333,6304
0.3753,6005
0.3769667,5033
0.3786333,4163
0.3803,3346
0.3819667,2685
0.3836333,1809
0.3853,1437
0.3869667,1083
0.3886333,1014
0.3903,805
0.3919667,707
0.3936333,617
0.3953,507
0.3969667,696
0.3986333,638
0.4003,606
0.4019667,657
0.4036333,708
0.4053,518
0.4069667,563
0.4086333,698
0.4103,478
0.4119667,884
0.4136333,773
0.4153,710
0.4169667,710
0.4186333,592
0.4203,618
0.4219667,689
0.4236333,786
0.4253,810
0.4269667,764
0.4286333,837
0.4303,824
0.4319667,850
0.4336333,894
0.4353,890
0.4369667,824
0.4386333,958
0.4403,935
0.4419667,911
0.4436333,768
0.4453,915
0.4469667,1063
0.4486333,1179
0.4503,1117
0.4519667,1186
0.4536333,1255
0.4553,1456
0.4569667,1355
0.4586333,1253
0.4603,1284
0.4619667,1397
0.4636333,1510
0.4653,1731
0.4669667,1762
0.4686333,1670
0.4703,1516
0.4719667,1741
0.4736333,1483
0.4753,1727
0.4769667,1557
0.4786333,1612
0.4803,1623
0.4819667,1634
0.4836333,1409
0.4853,1438
0.4869667,1528
0.4886333,1369
0.4903,958
0.4919667,1288
0.4936333,1392
0.4953,1170
0.4969667,1147
0.4986333,1184
0.5003,1018
0.5019667,978
0.5036333,1225
0.5053,900
0.5069667,1052
0.5086333,1091
0.5103,1017
0.5119666,1104
0.5136333,1121
0.5153,843
0.5169666,896
0.5186333,1074
0.5203,803
0.5219667,1017
0.5236334,836
0.5253,734
0.5269667,864
0.5286334,772
0.5303,680
0.5319667,724
0.5336334,768
0.5353,817
0.5369667,866
0.5386333,924
0.5403,951
0.5419667,930
0.5436333,964
0.5453,998
0.5469667,820
0.5486333,1022
0.5503,976
0.5519667,926
0.5536333,877
0.5553,1010
0.5569667,1005
0.5586333,955
0.5603,803
0.5619667,805
0.5636333,804
0.5653,762
0.5669667,776
0.5686333,885
0.5703,1025
0.5719666,937
0.5736333,1130
0.5753,1076
0.5769666,1024
0.5786333,724
0.5803,1077
0.5819666,1202
0.5836333,979
0.5853,994
0.5869667,1024
0.5886334,776
0.5903,955
0.5919667,1027
0.5936334,953
0.5953,941
0.5969667,985
0.5986333,1029
0.6003,1073
0.6019667,908
0.6036333,987
0.6053,986
0.6069667,820
0.6086333,841
0.6103,790
0.6119667,851
0.6136333,912
0.6153,882
0.6169667,852
0.6186333,860
0.6203,867
0.6219667,756
0.6236333,727
0.6253,697
0.6269667,744
0.6286333,791
0.6303,809
0.6319667,827
0.6336333,749
0.6353,916
0.6369666,952
0.6386333,892
0.6403,903
0.6419666,873
0.6436333,844
0.6453,894
0.6469667,883
0.6486334,780
0.6503,861
0.6519667,942
0.6536334,859
0.6553,856
0.6569667,853
0.6586334,619
0.6603,986
0.6619667,830
0.6636333,970
0.6653,1035
0.6669667,800
0.6686333,791
0.6703,650
0.6719667,716
0.6736333,814
0.6753,907
0.6769667,879
0.6786333,759
0.6803,864
0.6819667,730
0.6836333,739
0.6853,749
0.6869667,766
0.6886333,761
0.6903,840
0.6919667,615
0.6936333,820
0.6953,801
0.6969666,963
0.6986333,859
0.7003,727
0.7019666,824
0.7036333,921
0.7053,625
0.7069666,655
0.7086333,746
0.7103,807
0.7119667,909
0.7136334,860
0.7153,811
0.7169667,846
0.7186334,872
0.7203,836
0.7219667,801
0.7236333,696
0.7253,797
0.7269667,738
0.7286333,749
0.7303,760
0.7319667,750
0.7336333,741
0.7353,718
0.7369667,696
0.7386333,816
0.7403,838
0.7419667,860
0.7436333,868
0.7453,780
0.7469667,787
0.7486333,793
0.7503,776
0.7519667,758
0.7536333,761
0.7553,763
0.7569667,680
0.7586333,738
0.7603,796
0.7619666,783
0.7636333,888
0.7653,855
0.7669666,816
0.7686333,768
0.7703,931
0.7719667,683
0.7736334,925
0.7753,988
0.7769667,789
0.7786334,1088
0.7803,748
0.7819667,651
0.7836334,729
0.7853,810
0.7869667,911
0.7886333,839
0.7903,864
0.7919667,812
0.7936333,759
0.7953,773
0.7969667,889
0.7986333,968
0.8003,1009
0.8019667,754
0.8036333,874
0.8053,850
0.8069667,864
0.8086333,878
0.8103,872
0.8119667,867
0.8136333,865
0.8153,757
0.8169667,793
0.8186333,829
0.8203,841
0.8219666,853
0.8236333,958
0.8253,936
0.8269666,913
0.8286333,889
0.8303,992
0.8319666,754
0.8336333,1006
0.8353,757
0.8369667,917
0.8386334,778
0.8403,834
0.8419667,890
0.8436334,829
0.8453,714
0.8469667,666
0.8486333,896
0.8503,958
0.8519667,878
0.8536333,879
0.8553,879
0.8569667,909
0.8586333,824
0.8603,768
0.8619667,839
0.8636333,913
0.8653,878
0.8669667,903
0.8686333,760
0.8703,810
0.8719667,852
0.8736333,800
0.8753,857
0.8769667,881
0.8786333,906
0.8803,930
0.8819667,1157
0.8836333,1246
0.8853,1264
0.8869666,1331
0.8886333,1304
0.8903,1277
0.8919666,1066
0.8936333,1071
0.8953,1038
0.8969667,1084
0.8986334,955
0.9003,1018
0.9019667,1080
0.9036334,1084
0.9053,1088
0.9069667,1087
0.9086334,1087
0.9103,1117
0.9119667,1110
0.9136333,1104
0.9153,1118
0.9169667,1114
0.9186333,1096
0.9203,1078
0.9219667,1155
0.9236333,1163
0.9253,1170
0.9269667,1125
0.9286333,1079
0.9303,1166
0.9319667,1254
0.9336333,1258
0.9353,1253
0.9369667,1264
0.9386333,1275
0.9403,939
0.9419667,1050
0.9436333,1180
0.9453,1011
0.9469666,1099
0.9486333,1124
0.9503,1089
0.9519666,1053
0.9536333,1024
0.9553,995
0.9569666,994
0.9586333,953
0.9603,942
0.9619667,931
0.9636334,928
0.9653,891
0.9669667,828
0.9686334,833
0.9703,838
0.9719667,1029
0.9736333,1094
0.9753,980
0.9769667,822
0.9786333,780
0.9803,892
0.9819667,754
0.9836333,685
0.9853,871
0.9869667,747
0.9886333,763
0.9903,798
0.9919667,778
0.9936333,823
0.9953,868
0.9969667,886
0.9986333,904
1.0003,788
1.001967,690
1.003633,1058
1.0053,973
1.006967,750
1.008633,996
1.0103,660
1.011967,810
1.013633,754
1.0153,803
1.016967,845
1.018633,887
1.0203,816
1.021967,722
1.023633,1006
1.0253,920
1.026967,1031
1.028633,787
1.0303,733
1.031967,817
1.033633,869
1.0353,920
1.036967,996
1.038633,954
1.0403,952
1.041967,1006
1.043633,851
1.0453,777
1.046967,904
1.048633,706
1.0503,854
1.051967,931
1.053633,776
1.0553,913
1.056967,816
1.058633,788
1.0603,725
1.061967,916
1.063633,895
1.0653,927
1.066967,771
1.068633,874
1.0703,823
1.071967,881
1.073633,873
1.0753,864
1.076967,860
1.078633,615
1.0803,652
1.081967,948
1.083633,976
1.0853,738
1.086967,744
1.088633,794
1.0903,841
1.091967,833
1.093633,825
1.0953,815
1.096967,805
1.098633,834
1.1003,787
1.101967,740
1.103633,760
1.1053,845
1.106967,842
1.108633,834
1.1103,871
1.111967,908
1.113633,920
1.1153,806
1.116967,908
1.118633,842
1.1203,922
1.121967,824
1.123633,840
1.1253,840
1.126967,839
1.128633,758
1.1303,752
1.131967,747
1.133633,753
1.1353,762
1.136967,771
1.138633,877
1.1403,839
1.141967,801
1.143633,789
1.1453,776
1.146967,819
1.148633,861
1.1503,714
1.151967,665
1.153633,887
1.1553,948
1.156967,681
1.158633,912
1.1603,772
1.161967,680
1.163633,799
1.1653,676
1.166967,693
1.168633,709
1.1703,778
1.171967,846
1.173633,867
1.1753,877
1.176967,706
1.178633,919
1.1803,695
1.181967,811
1.183633,858
1.1853,837
1.186967,819
1.188633,696
1.1903,781
1.191967,803
1.193633,848
1.1953,854
1.196967,823
1.198633,796
