"SampleName","A2Rd2_01-48"
"Target Mass 1",
"Column Name","IA-3 (3um, 4.6X100)"
"Channel","QDa 1: SIR Ch1"
0.00195,351
0.003616667,450
0.005283333,445
0.00695,603
0.008616666,559
0.01028333,390
0.01195,649
0.01361667,593
0.01528333,503
0.01695,520
0.01861667,568
0.02028333,613
0.02195,632
0.02361667,585
0.02528333,534
0.02695,540
0.02861667,423
0.03028333,561
0.03195,430
0.03361667,462
0.03528333,497
0.03695,429
0.03861667,525
0.04028333,512
0.04195,527
0.04361667,418
0.04528333,558
0.04695,537
0.04861667,570
0.05028334,550
0.05195,493
0.05361667,492
0.05528333,490
0.05695,421
0.05861667,537
0.06028333,509
0.06195,470
0.06361666,514
0.06528334,558
0.06695,418
0.06861667,461
0.07028333,382
0.07195,401
0.07361667,419
0.07528333,506
0.07695,503
0.07861666,507
0.08028334,393
0.08195,424
0.08361667,445
0.08528333,466
0.08695,553
0.08861667,580
0.09028333,305
0.09195,452
0.09361666,675
0.09528334,461
0.09695,506
0.09861667,645
0.1002833,515
0.10195,541
0.1036167,516
0.1052833,492
0.10695,502
0.1086167,487
0.1102833,462
0.11195,392
0.1136167,522
0.1152833,549
0.11695,595
0.1186167,410
0.1202833,577
0.12195,540
0.1236167,490
0.1252833,548
0.12695,550
0.1286167,506
0.1302833,528
0.13195,541
0.1336167,529
0.1352833,537
0.13695,466
0.1386167,489
0.1402833,477
0.14195,465
0.1436167,479
0.1452833,520
0.14695,509
0.1486167,457
0.1502833,530
0.15195,453
0.1536167,402
0.1552833,554
0.15695,584
0.1586167,550
0.1602833,491
0.16195,625
0.1636167,566
0.1652833,516
0.16695,546
0.1686167,547
0.1702833,441
0.17195,407
0.1736167,411
0.1752833,541
0.17695,553
0.1786167,546
0.1802833,542
0.18195,538
0.1836167,535
0.1852833,533
0.18695,536
0.1886167,552
0.1902833,485
0.19195,428
0.1936167,554
0.1952833,292
0.19695,514
0.1986167,444
0.2002833,512
0.20195,550
0.2036167,569
0.2052833,468
0.20695,490
0.2086167,513
0.2102833,503
0.21195,493
0.2136167,474
0.2152833,429
0.21695,391
0.2186167,353
0.2202833,430
0.22195,507
0.2236167,524
0.2252833,446
0.22695,553
0.2286167,431
0.2302833,488
0.23195,483
0.2336167,493
0.2352833,476
0.23695,460
0.2386167,445
0.2402833,472
0.24195,453
0.2436167,435
0.2452833,455
0.24695,451
0.2486167,447
0.2502833,422
0.25195,576
0.2536167,628
0.2552833,539
0.25695,503
0.2586167,486
0.2602833,555
0.26195,413
0.2636167,574
0.2652833,589
0.26695,472
0.2686167,421
0.2702833,460
0.27195,359
0.2736167,449
0.2752833,451
0.27695,452
0.2786167,467
0.2802833,481
0.28195,558
0.2836167,555
0.2852833,441
0.28695,542
0.2886167,590
0.2902833,397
0.29195,681
0.2936167,562
0.2952833,496
0.29695,432
0.2986167,501
0.3002833,603
0.30195,620
0.3036167,520
0.3052833,568
0.30695,588
0.3086167,613
0.3102833,444
0.31195,576
0.3136167,530
0.3152833,574
0.31695,586
0.3186167,410
0.3202833,568
0.32195,520
0.3236333,519
0.3252833,595
0.32695,612
0.3286167,595
0.3302833,574
0.33195,606
0.3336333,438
0.3352833,618
0.33695,605
0.3386167,491
0.3402833,498
0.34195,390
0.3436167,430
0.3452833,471
0.34695,577
0.3486167,529
0.3503,500
0.35195,520
0.3536167,539
0.3552833,569
0.35695,585
0.3586167,568
0.3602833,551
0.36195,808
0.3636167,1032
0.3652833,1676
0.36695,3916
0.3686333,5718
0.3703,7320
0.3719667,7841
0.3736167,8416
0.3752833,8049
0.37695,7770
0.3786167,7625
0.3802833,5727
0.38195,4812
0.3836167,4406
0.3853,4041
0.38695,3208
0.3886333,2594
0.3903,2010
0.39195,1744
0.3936167,1390
0.3952833,1640
0.3969667,1318
0.3986167,1309
0.4002833,1111
0.40195,1334
0.4036333,1557
0.4053,1480
0.4069667,1456
0.4086167,1911
0.4102833,1930
0.41195,2080
0.4136333,1917
0.4152833,1954
0.41695,2119
0.4186167,2181
0.4203,1940
0.4219667,1896
0.4236333,1945
0.4252833,1988
0.4269667,1876
0.4286167,1583
0.4303,1572
0.43195,1879
0.4336333,2089
0.4352833,2917
0.43695,3813
0.4386333,5040
0.4403,7202
0.4419667,10776
0.4436333,15560
0.4453,20728
0.4469667,27328
0.4486167,37344
0.4503,48592
0.45195,63520
0.4536333,76912
0.4553,95088
0.4569667,114128
0.4586333,134272
0.4603,157568
0.4619667,179712
0.4636333,203712
0.4652833,234048
0.4669667,259520
0.4686167,283328
0.4703,297600
0.4719667,308224
0.4736333,300928
0.4753,289088
0.4769667,261504
0.4786333,231744
0.4803,200576
0.4819667,167360
0.4836333,138880
0.4853,109440
0.4869667,83680
0.4886333,62800
0.4903,51136
0.4919667,36912
0.4936333,28708
0.4953,21136
0.4969667,17500
0.4986333,13936
0.5003,11200
0.5019667,9120
0.5036333,8292
0.5053,6781
0.5069667,6235
0.5086333,5962
0.5103,4878
0.5119666,4704
0.5136333,4280
0.5153,4261
0.5169666,3863
0.5186333,3746
0.5203,3058
0.5219667,3255
0.5236334,3175
0.5253,3018
0.5269667,2818
0.5286334,2571
0.5303,2517
0.5319667,2838
0.5336334,2368
0.5353,2556
0.5369667,2484
0.5386333,2419
0.5403,2086
0.5419667,2032
0.5436333,2083
0.5453,2139
0.5469667,2148
0.5486333,1971
0.5503,1784
0.5519667,1609
0.5536333,1779
0.5553,1381
0.5569667,1392
0.5586333,1721
0.5603,1579
0.5619667,1462
0.5636333,1220
0.5653,1688
0.5669667,1296
0.5686333,1405
0.5703,1429
0.5719666,1103
0.5736333,1051
0.5753,1171
0.5769666,1169
0.5786333,970
0.5803,917
0.5819666,1082
0.5836333,1063
0.5853,1052
0.5869667,1053
0.5886334,1121
0.5903,1189
0.5919667,1327
0.5936334,1273
0.5953,1294
0.5969667,1214
0.5986333,1248
0.6003,1282
0.6019667,1549
0.6036333,1571
0.6053,1454
0.6069667,1307
0.6086333,1216
0.6103,1457
0.6119667,1421
0.6136333,1346
0.6153,1179
0.6169667,1458
0.6186333,1162
0.6203,1246
0.6219667,1116
0.6236333,1088
0.6253,1245
0.6269667,1010
0.6286333,1020
0.6303,972
0.6319667,957
0.6336333,943
0.6353,1090
0.6369666,1054
0.6386333,698
0.6403,795
0.6419666,937
0.6436333,836
0.6453,1035
0.6469667,1117
0.6486334,787
0.6503,776
0.6519667,681
0.6536334,845
0.6553,701
0.6569667,670
0.6586334,776
0.6603,573
0.6619667,798
0.6636333,797
0.6653,797
0.6669667,756
0.6686333,781
0.6703,688
0.6719667,802
0.6736333,628
0.6753,648
0.6769667,861
0.6786333,739
0.6803,748
0.6819667,525
0.6836333,744
0.6853,802
0.6869667,712
0.6886333,769
0.6903,538
0.6919667,760
0.6936333,697
0.6953,592
0.6969666,751
0.6986333,738
0.7003,630
0.7019666,631
0.7036333,673
0.7053,669
0.7069666,556
0.7086333,793
0.7103,775
0.7119667,466
0.7136334,536
0.7153,832
0.7169667,666
0.7186334,541
0.7203,511
0.7219667,613
0.7236333,590
0.7253,607
0.7269667,639
0.7286333,671
0.7303,555
0.7319667,686
0.7336333,547
0.7353,578
0.7369667,609
0.7386333,657
0.7403,463
0.7419667,736
0.7436333,666
0.7453,648
0.7469667,681
0.7486333,662
0.7503,643
0.7519667,606
0.7536333,659
0.7553,599
0.7569667,643
0.7586333,686
0.7603,683
0.7619666,680
0.7636333,614
0.7653,646
0.7669666,678
0.7686333,735
0.7703,539
0.7719667,668
0.7736334,688
0.7753,643
0.7769667,682
0.7786334,721
0.7803,515
0.7819667,700
0.7836334,568
0.7853,587
0.7869667,686
0.7886333,658
0.7903,631
0.7919667,558
0.7936333,621
0.7953,659
0.7969667,684
0.7986333,638
0.8003,683
0.8019667,579
0.8036333,600
0.8053,620
0.8069667,667
0.8086333,512
0.8103,742
0.8119667,619
0.8136333,681
0.8153,775
0.8169667,665
0.8186333,516
0.8203,696
0.8219666,673
0.8236333,862
0.8253,795
0.8269666,662
0.8286333,795
0.8303,721
0.8319666,734
0.8336333,819
0.8353,686
0.8369667,765
0.8386334,844
0.8403,767
0.8419667,729
0.8436334,744
0.8453,807
0.8469667,832
0.8486333,763
0.8503,788
0.8519667,769
0.8536333,700
0.8553,639
0.8569667,627
0.8586333,656
0.8603,685
0.8619667,698
0.8636333,600
0.8653,752
0.8669667,619
0.8686333,620
0.8703,679
0.8719667,666
0.8736333,653
0.8753,644
0.8769667,710
0.8786333,1118
0.8803,1203
0.8819667,1794
0.8836333,1911
0.8853,2224
0.8869666,2601
0.8886333,2838
0.8903,3611
0.8919666,3325
0.8936333,3097
0.8953,3782
0.8969667,3624
0.8986334,3840
0.9003,3633
0.9019667,3738
0.9036334,3767
0.9053,3624
0.9069667,3291
0.9086334,3362
0.9103,3466
0.9119667,3419
0.9136333,3289
0.9153,3300
0.9169667,3311
0.9186333,3382
0.9203,3506
0.9219667,3130
0.9236333,3442
0.9253,3582
0.9269667,3231
0.9286333,3396
0.9303,2970
0.9319667,3370
0.9336333,3329
0.9353,2988
0.9369667,3023
0.9386333,2927
0.9403,2621
0.9419667,2654
0.9436333,2746
0.9453,2754
0.9469666,2552
0.9486333,2324
0.9503,2449
0.9519666,2115
0.9536333,2340
0.9553,1991
0.9569666,1670
0.9586333,1878
0.9603,1586
0.9619667,1362
0.9636334,1485
0.9653,1312
0.9669667,1437
0.9686334,1206
0.9703,993
0.9719667,1163
0.9736333,962
0.9753,831
0.9769667,798
0.9786333,858
0.9803,647
0.9819667,627
0.9836333,720
0.9853,721
0.9869667,670
0.9886333,620
0.9903,716
0.9919667,573
0.9936333,587
0.9953,601
0.9969667,458
0.9986333,539
1.0003,553
1.001967,511
1.003633,689
1.0053,602
1.006967,514
1.008633,623
1.0103,607
1.011967,637
1.013633,574
1.0153,456
1.016967,611
1.018633,537
1.0203,627
1.021967,617
1.023633,678
1.0253,526
1.026967,417
1.028633,458
1.0303,387
1.031967,449
1.033633,511
1.0353,595
1.036967,585
1.038633,489
1.0403,634
1.041967,654
1.043633,364
1.0453,592
1.046967,561
1.048633,562
1.0503,527
1.051967,491
1.053633,621
1.0553,588
1.056967,430
1.058633,660
1.0603,528
1.061967,430
1.063633,482
1.0653,650
1.066967,594
1.068633,599
1.0703,570
1.071967,461
1.073633,597
1.0753,695
1.076967,620
1.078633,590
1.0803,581
1.081967,585
1.083633,590
1.0853,478
1.086967,534
1.088633,543
1.0903,550
1.091967,557
1.093633,557
1.0953,577
1.096967,582
1.098633,587
1.1003,513
1.101967,595
1.103633,572
1.1053,550
1.106967,570
1.108633,568
1.1103,567
1.111967,512
1.113633,444
1.1153,377
1.116967,443
1.118633,509
1.1203,466
1.121967,607
1.123633,604
1.1253,680
1.126967,584
1.128633,576
1.1303,702
1.131967,465
1.133633,698
1.1353,503
1.136967,654
1.138633,665
1.1403,592
1.141967,560
1.143633,559
1.1453,557
1.146967,533
1.148633,509
1.1503,627
1.151967,657
1.153633,715
1.1553,765
1.156967,720
1.158633,652
1.1603,777
1.161967,807
1.163633,573
1.1653,766
1.166967,661
1.168633,540
1.1703,806
1.171967,769
1.173633,855
1.1753,888
1.176967,920
1.178633,728
1.1803,716
1.181967,723
1.183633,740
1.1853,962
1.186967,1001
1.188633,746
1.1903,970
1.191967,801
1.193633,703
1.1953,829
1.196967,848
1.198633,828
