"SampleName","A2Rd2_01-89"
"Target Mass 1",
"Column Name","IA-3 (3um, 4.6X100)"
"Channel","QDa 1: SIR Ch2"
0.00195,498
0.003616667,578
0.005283333,677
0.00695,751
0.008616666,837
0.01028333,827
0.01195,625
0.01361667,896
0.01528333,909
0.01695,1058
0.01861667,775
0.02028333,722
0.02195,828
0.02361667,745
0.02528333,999
0.02695,963
0.02861667,886
0.03028333,792
0.03195,835
0.03361667,922
0.03528333,890
0.03695,836
0.03861667,957
0.04028333,933
0.04195,955
0.04361667,933
0.04528333,672
0.04695,918
0.04861667,986
0.05028334,974
0.05195,693
0.05361667,972
0.05528333,1027
0.05695,913
0.05861667,795
0.06028333,957
0.06195,780
0.06361666,780
0.06528334,848
0.06695,847
0.06861667,845
0.07028333,887
0.07195,849
0.07361667,812
0.07528333,757
0.07695,757
0.07861666,1000
0.08028334,1082
0.08195,747
0.08361667,911
0.08528333,795
0.08695,846
0.08861667,897
0.09028333,865
0.09195,834
0.09361666,822
0.09528334,809
0.09695,932
0.09861667,921
0.1002833,750
0.10195,925
0.1036167,823
0.1052833,881
0.10695,950
0.1086167,849
0.1102833,945
0.11195,847
0.1136167,863
0.1152833,992
0.11695,805
0.1186167,768
0.1202833,997
0.12195,943
0.1236167,754
0.1252833,862
0.12695,886
0.1286167,774
0.1302833,838
0.13195,810
0.1336167,988
0.1352833,967
0.13695,986
0.1386167,705
0.1402833,896
0.14195,781
0.1436167,675
0.1452833,813
0.14695,913
0.1486167,1093
0.1502833,977
0.15195,886
0.1536167,791
0.1552833,958
0.15695,875
0.1586167,793
0.1602833,778
0.16195,783
0.1636167,781
0.1652833,779
0.16695,665
0.1686167,743
0.1702833,693
0.17195,737
0.1736167,781
0.1752833,777
0.17695,773
0.1786167,780
0.1802833,749
0.18195,728
0.1836167,791
0.1852833,854
0.18695,853
0.1886167,870
0.1902833,832
0.19195,820
0.1936167,808
0.1952833,819
0.19695,819
0.1986167,880
0.2002833,909
0.20195,1126
0.2036167,1160
0.2052833,810
0.20695,825
0.2086167,879
0.2102833,817
0.21195,843
0.2136167,915
0.2152833,957
0.21695,917
0.2186167,948
0.2202833,962
0.22195,977
0.2236167,985
0.2252833,992
0.22695,892
0.2286167,1119
0.2302833,1046
0.23195,972
0.2336167,1188
0.2352833,1223
0.23695,1135
0.2386167,1214
0.2402833,1269
0.24195,1284
0.2436167,895
0.2453,1290
0.24695,1108
0.2486167,1209
0.2502833,1141
0.25195,1140
0.2536167,1048
0.2552833,931
0.25695,1124
0.2586167,970
0.2602833,1218
0.26195,1115
0.2636333,1166
0.2652833,833
0.26695,882
0.2686167,1118
0.2702833,921
0.27195,846
0.2736167,1056
0.2752833,911
0.27695,1116
0.2786167,1015
0.2803,1070
0.28195,1035
0.2836167,1001
0.2852833,961
0.28695,979
0.2886167,927
0.2902833,911
0.2919667,1001
0.2936167,954
0.2953,990
0.29695,1027
0.2986333,1098
0.3002833,1106
0.30195,1179
0.3036167,961
0.3053,961
0.30695,961
0.3086333,1204
0.3102833,1129
0.31195,1053
0.3136167,868
0.3153,1131
0.3169667,1225
0.3186167,1416
0.3202833,1206
0.3219667,1276
0.3236333,1273
0.3253,1178
0.32695,1028
0.3286167,1162
0.3302833,1127
0.3319667,1158
0.3336333,1113
0.3353,1149
0.3369667,1193
0.3386333,1237
0.3403,1335
0.3419667,991
0.3436167,1116
0.3453,1215
0.34695,1274
0.3486333,1334
0.3503,1310
0.3519667,1372
0.3536333,1292
0.3553,1212
0.3569667,1335
0.3586333,1386
0.3602833,1288
0.3619667,1427
0.3636167,1498
0.3653,2707
0.3669667,3321
0.3686333,3606
0.3703,4355
0.3719667,4049
0.3736333,4338
0.3753,4048
0.3769667,4188
0.3786333,4044
0.3803,4159
0.3819667,3136
0.3836333,2137
0.3853,1888
0.3869667,1758
0.3886333,1396
0.3903,1043
0.3919667,969
0.3936333,866
0.3953,735
0.3969667,518
0.3986333,479
0.4003,551
0.4019667,580
0.4036333,597
0.4053,468
0.4069667,606
0.4086333,629
0.4103,658
0.4119667,621
0.4136333,543
0.4153,673
0.4169667,694
0.4186333,668
0.4203,619
0.4219667,617
0.4236333,774
0.4253,772
0.4269667,697
0.4286333,771
0.4303,846
0.4319667,853
0.4336333,723
0.4353,1051
0.4369667,1181
0.4386333,976
0.4403,1093
0.4419667,1022
0.4436333,996
0.4453,990
0.4469667,1290
0.4486333,1272
0.4503,1156
0.4519667,1119
0.4536333,1396
0.4553,1325
0.4569667,1254
0.4586333,1442
0.4603,1390
0.4619667,1368
0.4636333,1454
0.4653,1368
0.4669667,1440
0.4686333,1301
0.4703,1163
0.4719667,1201
0.4736333,1239
0.4753,1287
0.4769667,1277
0.4786333,1267
0.4803,1397
0.4819667,1390
0.4836333,1445
0.4853,1391
0.4869667,1241
0.4886333,1200
0.4903,1116
0.4919667,1266
0.4936333,1078
0.4953,1107
0.4969667,1057
0.4986333,961
0.5003,1017
0.5019667,956
0.5036333,894
0.5053,1055
0.5069667,971
0.5086333,1088
0.5103,914
0.5119666,1007
0.5136333,1047
0.5153,885
0.5169666,1025
0.5186333,911
0.5203,796
0.5219667,870
0.5236334,923
0.5253,941
0.5269667,966
0.5286334,956
0.5303,905
0.5319667,924
0.5336334,807
0.5353,1005
0.5369667,977
0.5386333,1015
0.5403,1053
0.5419667,840
0.5436333,1022
0.5453,965
0.5469667,970
0.5486333,998
0.5503,1025
0.5519667,918
0.5536333,1115
0.5553,796
0.5569667,1054
0.5586333,791
0.5603,1069
0.5619667,892
0.5636333,1000
0.5653,937
0.5669667,882
0.5686333,878
0.5703,1006
0.5719666,976
0.5736333,947
0.5753,992
0.5769666,987
0.5786333,922
0.5803,982
0.5819666,941
0.5836333,899
0.5853,857
0.5869667,1047
0.5886334,1065
0.5903,907
0.5919667,968
0.5936334,943
0.5953,897
0.5969667,968
0.5986333,963
0.6003,1004
0.6019667,987
0.6036333,993
0.6053,896
0.6069667,952
0.6086333,884
0.6103,817
0.6119667,943
0.6136333,955
0.6153,915
0.6169667,874
0.6186333,995
0.6203,851
0.6219667,863
0.6236333,876
0.6253,939
0.6269667,1003
0.6286333,1007
0.6303,809
0.6319667,1028
0.6336333,1001
0.6353,817
0.6369666,822
0.6386333,897
0.6403,947
0.6419666,997
0.6436333,886
0.6453,840
0.6469667,954
0.6486334,988
0.6503,949
0.6519667,876
0.6536334,994
0.6553,872
0.6569667,750
0.6586334,741
0.6603,889
0.6619667,839
0.6636333,954
0.6653,925
0.6669667,973
0.6686333,939
0.6703,862
0.6719667,728
0.6736333,914
0.6753,814
0.6769667,933
0.6786333,794
0.6803,944
0.6819667,1011
0.6836333,1011
0.6853,835
0.6869667,1038
0.6886333,1017
0.6903,903
0.6919667,956
0.6936333,952
0.6953,911
0.6969666,1040
0.6986333,1169
0.7003,1103
0.7019666,923
0.7036333,1175
0.7053,1084
0.7069666,1016
0.7086333,924
0.7103,972
0.7119667,938
0.7136334,1169
0.7153,1290
0.7169667,1218
0.7186334,1160
0.7203,1168
0.7219667,931
0.7236333,983
0.7253,959
0.7269667,771
0.7286333,863
0.7303,925
0.7319667,849
0.7336333,834
0.7353,806
0.7369667,816
0.7386333,826
0.7403,800
0.7419667,820
0.7436333,840
0.7453,855
0.7469667,966
0.7486333,946
0.7503,859
0.7519667,678
0.7536333,977
0.7553,854
0.7569667,728
0.7586333,831
0.7603,793
0.7619666,838
0.7636333,888
0.7653,938
0.7669666,630
0.7686333,967
0.7703,895
0.7719667,933
0.7736334,990
0.7753,908
0.7769667,961
0.7786334,1014
0.7803,1007
0.7819667,1050
0.7836334,740
0.7853,893
0.7869667,741
0.7886333,812
0.7903,945
0.7919667,939
0.7936333,1019
0.7953,1208
0.7969667,1179
0.7986333,1134
0.8003,956
0.8019667,1086
0.8036333,1071
0.8053,1056
0.8069667,1172
0.8086333,1201
0.8103,1104
0.8119667,1198
0.8136333,1154
0.8153,1174
0.8169667,1195
0.8186333,1194
0.8203,1193
0.8219666,1237
0.8236333,1282
0.8253,1237
0.8269666,1191
0.8286333,1153
0.8303,1217
0.8319666,1147
0.8336333,1079
0.8353,1270
0.8369667,1049
0.8386334,1203
0.8403,990
0.8419667,978
0.8436334,1045
0.8453,1009
0.8469667,973
0.8486333,1047
0.8503,639
0.8519667,959
0.8536333,1139
0.8553,908
0.8569667,850
0.8586333,918
0.8603,813
0.8619667,812
0.8636333,911
0.8653,596
0.8669667,849
0.8686333,1011
0.8703,811
0.8719667,951
0.8736333,900
0.8753,857
0.8769667,741
0.8786333,729
0.8803,797
0.8819667,865
0.8836333,1128
0.8853,1299
0.8869666,1283
0.8886333,1091
0.8903,1357
0.8919666,1099
0.8936333,1292
0.8953,1380
0.8969667,1203
0.8986334,1040
0.9003,1177
0.9019667,1209
0.9036334,1125
0.9053,1037
0.9069667,1074
0.9086334,1156
0.9103,1270
0.9119667,1220
0.9136333,1201
0.9153,1082
0.9169667,1296
0.9186333,1291
0.9203,1286
0.9219667,1310
0.9236333,1215
0.9253,999
0.9269667,1333
0.9286333,1257
0.9303,1198
0.9319667,1063
0.9336333,1109
0.9353,1264
0.9369667,1235
0.9386333,1223
0.9403,1279
0.9419667,1102
0.9436333,1087
0.9453,1002
0.9469666,1150
0.9486333,1110
0.9503,1070
0.9519666,1192
0.9536333,1158
0.9553,1047
0.9569666,1081
0.9586333,1037
0.9603,1162
0.9619667,1181
0.9636334,924
0.9653,1006
0.9669667,1059
0.9686334,1056
0.9703,871
0.9719667,983
0.9736333,1144
0.9753,1081
0.9769667,978
0.9786333,902
0.9803,1045
0.9819667,947
0.9836333,1019
0.9853,1071
0.9869667,1058
0.9886333,981
0.9903,985
0.9919667,1108
0.9936333,1054
0.9953,996
0.9969667,1151
0.9986333,909
1.0003,1124
1.001967,1296
1.003633,1316
1.0053,1081
1.006967,973
1.008633,1218
1.0103,1120
1.011967,1173
1.013633,1184
1.0153,1149
1.016967,1205
1.018633,1196
1.0203,1187
1.021967,1150
1.023633,879
1.0253,1120
1.026967,899
1.028633,1022
1.0303,1090
1.031967,1045
1.033633,885
1.0353,1136
1.036967,1035
1.038633,1010
1.0403,1087
1.041967,1000
1.043633,1119
1.0453,663
1.046967,841
1.048633,1215
1.0503,878
1.051967,790
1.053633,878
1.0553,851
1.056967,813
1.058633,936
1.0603,897
1.061967,836
1.063633,908
1.0653,886
1.066967,865
1.068633,851
1.0703,837
1.071967,855
1.073633,846
1.0753,837
1.076967,804
1.078633,1096
1.0803,1041
1.081967,852
1.083633,869
1.0853,1118
1.086967,1152
1.088633,923
1.0903,996
1.091967,1093
1.093633,1094
1.0953,1117
1.096967,1040
1.098633,1107
1.1003,1081
1.101967,912
1.103633,1099
1.1053,912
1.106967,1126
1.108633,1195
1.1103,972
1.111967,933
1.113633,913
1.1153,843
1.116967,858
1.118633,768
1.1203,971
1.121967,1052
1.123633,933
1.1253,997
1.126967,880
1.128633,1026
1.1303,892
1.131967,847
1.133633,944
1.1353,856
1.136967,829
1.138633,828
1.1403,748
1.141967,782
1.143633,817
1.1453,1002
1.146967,881
1.148633,761
1.1503,816
1.151967,818
1.153633,820
1.1553,746
1.156967,904
1.158633,929
1.1603,913
1.161967,792
1.163633,903
1.1653,848
1.166967,800
1.168633,925
1.1703,998
1.171967,911
1.173633,1004
1.1753,849
1.176967,651
1.178633,583
1.1803,880
1.181967,782
1.183633,851
1.1853,761
1.186967,626
1.188633,824
1.1903,733
1.191967,959
1.193633,1014
1.1953,970
1.196967,905
1.198633,742
