"SampleName","A2Rd2_01-92"
"Target Mass 1",
"Column Name","IA-3 (3um, 4.6X100)"
"Channel","QDa 1: SIR Ch2"
0.00195,501
0.003616667,491
0.005283333,657
0.00695,904
0.008616666,972
0.01028333,774
0.01195,803
0.01361667,744
0.01528333,666
0.01695,831
0.01861667,1005
0.02028333,943
0.02195,684
0.02361667,824
0.02528333,789
0.02695,929
0.02861667,1022
0.03028333,928
0.03195,799
0.03361667,936
0.03528333,834
0.03695,782
0.03861667,801
0.04028333,820
0.04195,825
0.04361667,810
0.04528333,796
0.04695,823
0.04861667,850
0.05028334,884
0.05195,917
0.05361667,902
0.05528333,887
0.05695,844
0.05861667,800
0.06028333,846
0.06195,830
0.06361666,814
0.06528334,790
0.06695,788
0.06861667,877
0.07028333,972
0.07195,1004
0.07361667,1008
0.07528333,763
0.07695,854
0.07861666,875
0.08028334,826
0.08195,940
0.08361667,932
0.08528333,924
0.08695,904
0.08861667,596
0.09028333,987
0.09195,945
0.09361666,910
0.09528334,720
0.09695,910
0.09861667,952
0.1002833,902
0.10195,758
0.1036167,1018
0.1052833,834
0.10695,926
0.1086167,1036
0.1102833,819
0.11195,832
0.1136167,1063
0.1152833,708
0.11695,1061
0.1186167,958
0.1202833,961
0.12195,1053
0.1236167,898
0.1252833,799
0.12695,956
0.1286167,1004
0.1302833,930
0.13195,962
0.1336167,796
0.1352833,908
0.13695,841
0.1386167,695
0.1402833,852
0.14195,911
0.1436167,784
0.1452833,667
0.14695,978
0.1486167,578
0.1502833,1007
0.15195,836
0.1536167,711
0.1552833,704
0.15695,759
0.1586167,811
0.1602833,781
0.16195,796
0.1636167,788
0.1652833,779
0.16695,780
0.1686167,782
0.1702833,800
0.17195,755
0.1736167,816
0.1752833,877
0.17695,833
0.1786167,788
0.1802833,712
0.18195,863
0.1836167,684
0.1852833,797
0.18695,854
0.1886167,925
0.1902833,928
0.19195,821
0.1936167,836
0.1952833,899
0.19695,843
0.1986167,787
0.2002833,934
0.20195,876
0.2036167,817
0.2052833,818
0.20695,820
0.2086167,943
0.2102833,957
0.21195,833
0.2136167,794
0.2152833,766
0.21695,840
0.2186167,991
0.2202833,992
0.22195,993
0.2236167,1088
0.2252833,1143
0.22695,1071
0.2286167,824
0.2302833,1026
0.23195,1139
0.2336167,1114
0.2352833,1047
0.23695,980
0.2386167,1046
0.2402833,1071
0.24195,1097
0.2436167,1063
0.2453,1030
0.24695,1083
0.2486167,1075
0.2502833,1068
0.25195,1167
0.2536167,1267
0.2552833,1200
0.25695,1095
0.2586167,1072
0.2602833,1252
0.26195,1225
0.2636333,1003
0.2653,1012
0.2669667,1066
0.2686167,1056
0.2703,1046
0.27195,1076
0.2736333,1151
0.2752833,1068
0.27695,986
0.2786167,931
0.2803,857
0.28195,877
0.2836167,920
0.2852833,934
0.2869667,1044
0.2886167,1054
0.2902833,975
0.29195,968
0.2936167,1092
0.2952833,1101
0.2969667,1069
0.2986333,1037
0.3002833,1021
0.30195,1053
0.3036333,1058
0.3052833,989
0.3069667,920
0.3086167,1334
0.3102833,1487
0.3119667,1174
0.3136167,1170
0.3153,1179
0.31695,1235
0.3186167,1292
0.3203,1005
0.32195,1035
0.3236333,1494
0.3252833,1310
0.32695,1265
0.3286333,1289
0.3302833,1088
0.33195,1120
0.3336333,1249
0.3352833,978
0.3369667,1240
0.3386167,1489
0.3403,1307
0.34195,1153
0.3436333,1322
0.3453,1165
0.34695,1236
0.3486333,1267
0.3503,1324
0.35195,1343
0.3536333,1200
0.3552833,1467
0.3569667,1427
0.3586167,1380
0.3603,1344
0.3619667,1829
0.3636333,1756
0.3652833,2888
0.3669667,3542
0.3686333,4441
0.3703,4986
0.3719667,4901
0.3736333,5136
0.3753,4802
0.3769667,4686
0.3786333,4343
0.3803,4154
0.38195,3037
0.3836333,2661
0.3853,2013
0.3869667,1687
0.3886333,1360
0.3903,1094
0.3919667,818
0.3936333,827
0.3953,677
0.3969667,691
0.3986333,486
0.4003,530
0.4019667,416
0.4036333,524
0.4053,501
0.4069667,477
0.4086333,433
0.4103,640
0.4119667,590
0.4136333,620
0.4153,609
0.4169667,597
0.4186333,450
0.4203,823
0.4219667,719
0.4236333,868
0.4253,502
0.4269667,780
0.4286333,722
0.4303,811
0.4319667,885
0.4336333,849
0.4353,826
0.4369667,802
0.4386333,804
0.4403,806
0.4419667,888
0.4436333,969
0.4453,965
0.4469667,998
0.4486333,1030
0.4503,1093
0.4519667,1156
0.4536333,1179
0.4553,1203
0.4569667,1118
0.4586333,1265
0.4603,1412
0.4619667,1478
0.4636333,1458
0.4653,1467
0.4669667,1444
0.4686333,1422
0.4703,1152
0.4719667,1117
0.4736333,1445
0.4753,1257
0.4769667,1344
0.4786333,1375
0.4803,1328
0.4819667,1281
0.4836333,1274
0.4853,1255
0.4869667,1184
0.4886333,1121
0.4903,950
0.4919667,1000
0.4936333,1008
0.4953,1017
0.4969667,991
0.4986333,991
0.5003,991
0.5019667,1030
0.5036333,1018
0.5053,1006
0.5069667,808
0.5086333,818
0.5103,1070
0.5119666,843
0.5136333,1081
0.5153,954
0.5169666,1064
0.5186333,772
0.5203,1026
0.5219667,1063
0.5236334,959
0.5253,821
0.5269667,986
0.5286334,1084
0.5303,1143
0.5319667,1059
0.5336334,929
0.5353,993
0.5369667,1019
0.5386333,918
0.5403,1147
0.5419667,1162
0.5436333,914
0.5453,1049
0.5469667,1067
0.5486333,942
0.5503,945
0.5519667,833
0.5536333,994
0.5553,941
0.5569667,828
0.5586333,716
0.5603,744
0.5619667,758
0.5636333,771
0.5653,822
0.5669667,873
0.5686333,989
0.5703,938
0.5719666,887
0.5736333,929
0.5753,934
0.5769666,939
0.5786333,846
0.5803,920
0.5819666,994
0.5836333,978
0.5853,962
0.5869667,919
0.5886334,942
0.5903,965
0.5919667,807
0.5936334,912
0.5953,908
0.5969667,813
0.5986333,888
0.6003,917
0.6019667,918
0.6036333,972
0.6053,958
0.6069667,882
0.6086333,848
0.6103,839
0.6119667,931
0.6136333,979
0.6153,955
0.6169667,909
0.6186333,886
0.6203,979
0.6219667,883
0.6236333,870
0.6253,984
0.6269667,971
0.6286333,950
0.6303,926
0.6319667,890
0.6336333,882
0.6353,958
0.6369666,804
0.6386333,844
0.6403,885
0.6419666,952
0.6436333,973
0.6453,702
0.6469667,880
0.6486334,1043
0.6503,992
0.6519667,701
0.6536334,768
0.6553,880
0.6569667,825
0.6586334,770
0.6603,670
0.6619667,854
0.6636333,885
0.6653,872
0.6669667,882
0.6686333,1016
0.6703,959
0.6719667,902
0.6736333,733
0.6753,822
0.6769667,776
0.6786333,737
0.6803,791
0.6819667,748
0.6836333,706
0.6853,817
0.6869667,674
0.6886333,825
0.6903,784
0.6919667,811
0.6936333,839
0.6953,823
0.6969666,807
0.6986333,884
0.7003,961
0.7019666,979
0.7036333,925
0.7053,984
0.7069666,965
0.7086333,946
0.7103,957
0.7119667,968
0.7136334,908
0.7153,828
0.7169667,1019
0.7186334,864
0.7203,867
0.7219667,857
0.7236333,847
0.7253,872
0.7269667,897
0.7286333,927
0.7303,978
0.7319667,957
0.7336333,937
0.7353,941
0.7369667,723
0.7386333,942
0.7403,776
0.7419667,827
0.7436333,995
0.7453,970
0.7469667,867
0.7486333,1143
0.7503,724
0.7519667,711
0.7536333,999
0.7553,762
0.7569667,920
0.7586333,746
0.7603,708
0.7619666,857
0.7636333,659
0.7653,908
0.7669666,826
0.7686333,677
0.7703,794
0.7719667,937
0.7736334,927
0.7753,768
0.7769667,843
0.7786334,735
0.7803,782
0.7819667,828
0.7836334,825
0.7853,822
0.7869667,847
0.7886333,873
0.7903,862
0.7919667,852
0.7936333,888
0.7953,925
0.7969667,989
0.7986333,1078
0.8003,1036
0.8019667,1120
0.8036333,977
0.8053,1006
0.8069667,1044
0.8086333,1048
0.8103,1052
0.8119667,1047
0.8136333,1041
0.8153,1129
0.8169667,1118
0.8186333,1107
0.8203,1136
0.8219666,836
0.8236333,1151
0.8253,1175
0.8269666,1135
0.8286333,1354
0.8303,1324
0.8319666,1383
0.8336333,980
0.8353,1119
0.8369667,1136
0.8386334,1028
0.8403,950
0.8419667,1141
0.8436334,965
0.8453,1024
0.8469667,1013
0.8486333,982
0.8503,927
0.8519667,1001
0.8536333,964
0.8553,978
0.8569667,992
0.8586333,961
0.8603,867
0.8619667,892
0.8636333,763
0.8653,963
0.8669667,982
0.8686333,843
0.8703,852
0.8719667,777
0.8736333,750
0.8753,797
0.8769667,844
0.8786333,1001
0.8803,1109
0.8819667,1085
0.8836333,1061
0.8853,1087
0.8869666,1114
0.8886333,1110
0.8903,1050
0.8919666,990
0.8936333,1020
0.8953,1065
0.8969667,1069
0.8986334,1117
0.9003,1095
0.9019667,1132
0.9036334,1166
0.9053,1199
0.9069667,1049
0.9086334,971
0.9103,1007
0.9119667,1161
0.9136333,1234
0.9153,1172
0.9169667,1109
0.9186333,1330
0.9203,1257
0.9219667,1146
0.9236333,1210
0.9253,1296
0.9269667,1117
0.9286333,1136
0.9303,1226
0.9319667,953
0.9336333,1081
0.9353,1185
0.9369667,1282
0.9386333,1148
0.9403,1002
0.9419667,1252
0.9436333,1263
0.9453,1062
0.9469666,1232
0.9486333,1287
0.9503,1042
0.9519666,995
0.9536333,1049
0.9553,907
0.9569666,1014
0.9586333,877
0.9603,818
0.9619667,1000
0.9636334,949
0.9653,860
0.9669667,1099
0.9686334,1026
0.9703,1017
0.9719667,1105
0.9736333,1024
0.9753,944
0.9769667,886
0.9786333,877
0.9803,993
0.9819667,1020
0.9836333,856
0.9853,1115
0.9869667,870
0.9886333,926
0.9903,906
0.9919667,974
0.9936333,1041
0.9953,1036
0.9969667,1030
0.9986333,966
1.0003,1028
1.001967,1095
1.003633,1049
1.0053,1151
1.006967,1146
1.008633,908
1.0103,1222
1.011967,1009
1.013633,903
1.0153,1168
1.016967,1235
1.018633,1125
1.0203,1269
1.021967,982
1.023633,895
1.0253,1074
1.026967,1020
1.028633,1115
1.0303,1073
1.031967,894
1.033633,1070
1.0353,1095
1.036967,995
1.038633,1056
1.0403,952
1.041967,917
1.043633,923
1.0453,1026
1.046967,769
1.048633,889
1.0503,786
1.051967,813
1.053633,840
1.0553,869
1.056967,862
1.058633,856
1.0603,937
1.061967,883
1.063633,830
1.0653,874
1.066967,907
1.068633,883
1.0703,894
1.071967,893
1.073633,892
1.0753,1178
1.076967,1175
1.078633,847
1.0803,935
1.081967,1014
1.083633,920
1.0853,903
1.086967,855
1.088633,870
1.0903,885
1.091967,769
1.093633,780
1.0953,752
1.096967,724
1.098633,812
1.1003,822
1.101967,1042
1.103633,991
1.1053,919
1.106967,788
1.108633,926
1.1103,859
1.111967,1045
1.113633,937
1.1153,830
1.116967,874
1.118633,979
1.1203,975
1.121967,964
1.123633,787
1.1253,898
1.126967,815
1.128633,859
1.1303,914
1.131967,809
1.133633,837
1.1353,901
1.136967,898
1.138633,894
1.1403,926
1.141967,638
1.143633,715
1.1453,859
1.146967,746
1.148633,727
1.1503,709
1.151967,896
1.153633,952
1.1553,959
1.156967,779
1.158633,1003
1.1603,759
1.161967,907
1.163633,718
1.1653,751
1.166967,814
1.168633,819
1.1703,825
1.171967,779
1.173633,677
1.1753,1025
1.176967,1119
1.178633,1056
1.1803,955
1.181967,719
1.183633,889
1.1853,898
1.186967,834
1.188633,1005
1.1903,1024
1.191967,993
1.193633,671
1.1953,767
1.196967,867
1.198633,1028
