"SampleName","A2Rd2_01-47"
"Target Mass 1",
"Column Name","IA-3 (3um, 4.6X100)"
"Channel","QDa 1: SIR Ch2"
0.00195,575
0.003616667,717
0.005283333,764
0.00695,768
0.008616666,807
0.01028333,855
0.01195,903
0.01361667,951
0.01528333,916
0.01695,880
0.01861667,938
0.02028333,900
0.02195,862
0.02361667,778
0.02528333,865
0.02695,995
0.02861667,972
0.03028333,949
0.03195,1055
0.03361667,1026
0.03528333,1006
0.03695,943
0.03861667,965
0.04028333,902
0.04195,955
0.04361667,1007
0.04528333,1010
0.04695,979
0.04861667,1014
0.05028334,1048
0.05195,710
0.05361667,912
0.05528333,801
0.05695,1063
0.05861667,1022
0.06028333,981
0.06195,932
0.06361666,909
0.06528334,1028
0.06695,994
0.06861667,973
0.07028333,1013
0.07195,1062
0.07361667,886
0.07528333,824
0.07695,1086
0.07861666,973
0.08028334,867
0.08195,980
0.08361667,1103
0.08528333,995
0.08695,887
0.08861667,989
0.09028333,959
0.09195,958
0.09361666,938
0.09528334,955
0.09695,972
0.09861667,995
0.1002833,952
0.10195,908
0.1036167,890
0.1052833,873
0.10695,896
0.1086167,857
0.1102833,905
0.11195,952
0.1136167,1010
0.1152833,949
0.11695,936
0.1186167,871
0.1202833,805
0.12195,876
0.1236167,790
0.1252833,884
0.12695,906
0.1286167,828
0.1302833,749
0.13195,965
0.1336167,1064
0.1352833,1005
0.13695,822
0.1386167,1018
0.1402833,875
0.14195,1002
0.1436167,987
0.1452833,857
0.14695,1031
0.1486167,880
0.1502833,843
0.15195,1033
0.1536167,937
0.1552833,767
0.15695,980
0.1586167,869
0.1602833,760
0.16195,1035
0.1636167,808
0.1652833,797
0.16695,835
0.1686167,879
0.1702833,866
0.17195,852
0.1736167,726
0.1752833,781
0.17695,818
0.1786167,856
0.1802833,899
0.18195,865
0.1836167,832
0.1852833,862
0.18695,892
0.1886167,924
0.1902833,983
0.19195,1045
0.1936167,970
0.1952833,895
0.19695,960
0.1986167,940
0.2002833,945
0.20195,919
0.2036167,912
0.2052833,905
0.20695,893
0.2086167,882
0.2103,911
0.21195,897
0.2136333,882
0.2152833,927
0.21695,971
0.2186167,939
0.2202833,906
0.22195,1184
0.2236167,1243
0.2252833,972
0.22695,1089
0.2286333,1136
0.2302833,1183
0.23195,1051
0.2336167,1157
0.2352833,1125
0.23695,1202
0.2386333,1241
0.2402833,1280
0.24195,1116
0.2436167,1147
0.2453,1240
0.2469667,1201
0.2486167,1241
0.2502833,1031
0.25195,974
0.2536167,1183
0.2552833,1169
0.25695,1157
0.2586167,1190
0.2602833,1224
0.26195,1203
0.2636333,1154
0.2652833,998
0.26695,1226
0.2686167,1080
0.2703,1081
0.2719667,1226
0.2736167,1182
0.2752833,988
0.27695,1130
0.2786167,1132
0.2803,1275
0.28195,1182
0.2836167,957
0.2852833,779
0.28695,1023
0.2886333,1159
0.2902833,1177
0.29195,1195
0.2936167,1059
0.2952833,1009
0.2969667,1151
0.2986333,1249
0.3003,1193
0.30195,1046
0.3036167,1203
0.3052833,1166
0.30695,1071
0.3086167,1179
0.3102833,1183
0.31195,1187
0.3136333,1231
0.3153,1238
0.31695,1291
0.3186333,1265
0.3202833,1240
0.3219667,1050
0.3236167,1031
0.3252833,1138
0.3269667,1279
0.3286333,1313
0.3303,1265
0.33195,1241
0.3336333,1396
0.3352833,1104
0.3369667,1351
0.3386333,1396
0.3403,1441
0.3419667,1309
0.3436167,1162
0.3453,1257
0.3469667,1351
0.3486333,1375
0.3503,1401
0.3519667,1408
0.3536333,1416
0.3553,1229
0.3569667,1342
0.3586333,1506
0.3603,1617
0.3619667,1783
0.3636333,1602
0.3653,1954
0.3669667,4054
0.3686333,4627
0.3703,5283
0.3719667,5242
0.3736333,5331
0.3753,4793
0.3769667,4273
0.3786333,4124
0.3803,3293
0.3819667,2478
0.3836333,2027
0.3853,1530
0.3869667,1793
0.3886333,1149
0.3903,1333
0.3919667,906
0.3936333,845
0.3953,717
0.3969667,641
0.3986333,601
0.4003,758
0.4019667,446
0.4036333,600
0.4053,654
0.4069667,640
0.4086333,643
0.4103,646
0.4119667,628
0.4136333,592
0.4153,594
0.4169667,595
0.4186333,595
0.4203,595
0.4219667,635
0.4236333,675
0.4253,639
0.4269667,603
0.4286333,938
0.4303,934
0.4319667,767
0.4336333,794
0.4353,958
0.4369667,998
0.4386333,1124
0.4403,1108
0.4419667,988
0.4436333,1027
0.4453,1104
0.4469667,963
0.4486333,1063
0.4503,1162
0.4519667,1094
0.4536333,1027
0.4553,1081
0.4569667,1121
0.4586333,1162
0.4603,1119
0.4619667,1289
0.4636333,1289
0.4653,1257
0.4669667,1345
0.4686333,1012
0.4703,1096
0.4719667,1324
0.4736333,1208
0.4753,1313
0.4769667,1131
0.4786333,1050
0.4803,1146
0.4819667,1201
0.4836333,1133
0.4853,1218
0.4869667,786
0.4886333,1156
0.4903,1224
0.4919667,992
0.4936333,1099
0.4953,989
0.4969667,937
0.4986333,813
0.5003,1028
0.5019667,939
0.5036333,822
0.5053,990
0.5069667,862
0.5086333,1022
0.5103,946
0.5119666,909
0.5136333,944
0.5153,884
0.5169666,883
0.5186333,791
0.5203,875
0.5219667,1001
0.5236334,936
0.5253,824
0.5269667,940
0.5286334,710
0.5303,762
0.5319667,814
0.5336334,762
0.5353,711
0.5369667,887
0.5386333,900
0.5403,912
0.5419667,960
0.5436333,974
0.5453,961
0.5469667,959
0.5486333,861
0.5503,1066
0.5519667,1007
0.5536333,803
0.5553,908
0.5569667,938
0.5586333,929
0.5603,903
0.5619667,930
0.5636333,861
0.5653,977
0.5669667,955
0.5686333,1043
0.5703,733
0.5719666,853
0.5736333,850
0.5753,807
0.5769666,813
0.5786333,819
0.5803,812
0.5819666,806
0.5836333,824
0.5853,842
0.5869667,932
0.5886334,899
0.5903,865
0.5919667,901
0.5936334,937
0.5953,907
0.5969667,878
0.5986333,862
0.6003,847
0.6019667,924
0.6036333,1000
0.6053,979
0.6069667,826
0.6086333,950
0.6103,976
0.6119667,1011
0.6136333,1061
0.6153,822
0.6169667,818
0.6186333,906
0.6203,820
0.6219667,788
0.6236333,757
0.6253,829
0.6269667,921
0.6286333,890
0.6303,859
0.6319667,927
0.6336333,923
0.6353,919
0.6369666,895
0.6386333,841
0.6403,935
0.6419666,1030
0.6436333,1158
0.6453,1155
0.6469667,878
0.6486334,949
0.6503,1068
0.6519667,1034
0.6536334,1000
0.6553,1004
0.6569667,951
0.6586334,911
0.6603,955
0.6619667,750
0.6636333,1040
0.6653,854
0.6669667,920
0.6686333,940
0.6703,928
0.6719667,931
0.6736333,864
0.6753,831
0.6769667,831
0.6786333,831
0.6803,831
0.6819667,866
0.6836333,902
0.6853,876
0.6869667,850
0.6886333,636
0.6903,677
0.6919667,818
0.6936333,932
0.6953,833
0.6969666,704
0.6986333,916
0.7003,980
0.7019666,851
0.7036333,743
0.7053,947
0.7069666,862
0.7086333,991
0.7103,835
0.7119667,739
0.7136334,862
0.7153,796
0.7169667,831
0.7186334,806
0.7203,780
0.7219667,796
0.7236333,811
0.7253,814
0.7269667,853
0.7286333,892
0.7303,710
0.7319667,858
0.7336333,719
0.7353,873
0.7369667,927
0.7386333,855
0.7403,783
0.7419667,746
0.7436333,876
0.7453,593
0.7469667,858
0.7486333,815
0.7503,719
0.7519667,734
0.7536333,765
0.7553,768
0.7569667,761
0.7586333,753
0.7603,780
0.7619666,808
0.7636333,877
0.7653,634
0.7669666,795
0.7686333,863
0.7703,674
0.7719667,857
0.7736334,810
0.7753,762
0.7769667,789
0.7786334,817
0.7803,764
0.7819667,773
0.7836334,637
0.7853,722
0.7869667,628
0.7886333,803
0.7903,881
0.7919667,743
0.7936333,797
0.7953,806
0.7969667,798
0.7986333,665
0.8003,770
0.8019667,844
0.8036333,862
0.8053,781
0.8069667,857
0.8086333,829
0.8103,857
0.8119667,845
0.8136333,833
0.8153,833
0.8169667,862
0.8186333,836
0.8203,811
0.8219666,1056
0.8236333,1036
0.8253,855
0.8269666,841
0.8286333,690
0.8303,731
0.8319666,762
0.8336333,847
0.8353,816
0.8369667,911
0.8386334,953
0.8403,936
0.8419667,801
0.8436334,938
0.8453,690
0.8469667,926
0.8486333,889
0.8503,862
0.8519667,771
0.8536333,888
0.8553,790
0.8569667,864
0.8586333,727
0.8603,732
0.8619667,659
0.8636333,692
0.8653,724
0.8669667,750
0.8686333,776
0.8703,756
0.8719667,737
0.8736333,715
0.8753,694
0.8769667,720
0.8786333,747
0.8803,887
0.8819667,968
0.8836333,1095
0.8853,1176
0.8869666,1208
0.8886333,1239
0.8903,1206
0.8919666,1143
0.8936333,1182
0.8953,1189
0.8969667,977
0.8986334,1284
0.9003,1260
0.9019667,1185
0.9036334,1012
0.9053,1106
0.9069667,981
0.9086334,1009
0.9103,1037
0.9119667,1133
0.9136333,1099
0.9153,990
0.9169667,1149
0.9186333,1085
0.9203,1159
0.9219667,1127
0.9236333,1096
0.9253,1137
0.9269667,1103
0.9286333,1068
0.9303,1036
0.9319667,826
0.9336333,925
0.9353,962
0.9369667,1128
0.9386333,1156
0.9403,1162
0.9419667,1063
0.9436333,1247
0.9453,948
0.9469666,1031
0.9486333,923
0.9503,1057
0.9519666,1045
0.9536333,949
0.9553,1051
0.9569666,1113
0.9586333,963
0.9603,938
0.9619667,880
0.9636334,877
0.9653,872
0.9669667,867
0.9686334,798
0.9703,777
0.9719667,814
0.9736333,769
0.9753,744
0.9769667,718
0.9786333,790
0.9803,697
0.9819667,845
0.9836333,770
0.9853,695
0.9869667,741
0.9886333,635
0.9903,723
0.9919667,741
0.9936333,733
0.9953,678
0.9969667,623
0.9986333,689
1.0003,832
1.001967,806
1.003633,780
1.0053,846
1.006967,867
1.008633,790
1.0103,737
1.011967,676
1.013633,748
1.0153,737
1.016967,868
1.018633,838
1.0203,893
1.021967,886
1.023633,880
1.0253,923
1.026967,965
1.028633,788
1.0303,923
1.031967,881
1.033633,976
1.0353,976
1.036967,904
1.038633,727
1.0403,837
1.041967,822
1.043633,784
1.0453,747
1.046967,794
1.048633,842
1.0503,795
1.051967,748
1.053633,896
1.0553,942
1.056967,988
1.058633,870
1.0603,736
1.061967,723
1.063633,757
1.0653,733
1.066967,709
1.068633,745
1.0703,781
1.071967,800
1.073633,818
1.0753,773
1.076967,728
1.078633,831
1.0803,672
1.081967,799
1.083633,831
1.0853,749
1.086967,760
1.088633,799
1.0903,839
1.091967,859
1.093633,806
1.0953,783
1.096967,667
1.098633,776
1.1003,770
1.101967,768
1.103633,788
1.1053,785
1.106967,704
1.108633,714
1.1103,735
1.111967,756
1.113633,727
1.1153,698
1.116967,826
1.118633,862
1.1203,733
1.121967,683
1.123633,789
1.1253,707
1.126967,889
1.128633,873
1.1303,856
1.131967,882
1.133633,977
1.1353,694
1.136967,890
1.138633,709
1.1403,869
1.141967,791
1.143633,875
1.1453,823
1.146967,901
1.148633,942
1.1503,768
1.151967,1028
1.153633,686
1.1553,813
1.156967,587
1.158633,791
1.1603,788
1.161967,624
1.163633,727
1.1653,861
1.166967,817
1.168633,870
1.1703,804
1.171967,894
1.173633,841
1.1753,671
1.176967,897
1.178633,797
1.1803,783
1.181967,718
1.183633,845
1.1853,814
1.186967,996
1.188633,570
1.1903,950
1.191967,778
1.193633,968
1.1953,904
1.196967,877
1.198633,812
