"SampleName","A2Rd2_01-66"
"Target Mass 1",
"Column Name","IA-3 (3um, 4.6X100)"
"Channel","QDa 1: SIR Ch1"
0.00195,320
0.003616667,526
0.005283333,626
0.00695,545
0.008616666,572
0.01028333,502
0.01195,525
0.01361667,486
0.01528333,506
0.01695,507
0.01861667,542
0.02028333,435
0.02195,599
0.02361667,662
0.02528333,442
0.02695,508
0.02861667,479
0.03028333,397
0.03195,694
0.03361667,615
0.03528333,505
0.03695,594
0.03861667,476
0.04028333,530
0.04195,585
0.04361667,720
0.04528333,689
0.04695,531
0.04861667,449
0.05028334,571
0.05195,432
0.05361667,479
0.05528333,483
0.05695,466
0.05861667,509
0.06028333,518
0.06195,408
0.06361666,542
0.06528334,547
0.06695,450
0.06861667,560
0.07028333,591
0.07195,440
0.07361667,492
0.07528333,516
0.07695,514
0.07861666,511
0.08028334,561
0.08195,356
0.08361667,502
0.08528333,508
0.08695,622
0.08861667,538
0.09028333,454
0.09195,447
0.09361666,545
0.09528334,397
0.09695,468
0.09861667,516
0.1002833,531
0.10195,490
0.1036167,448
0.1052833,465
0.10695,481
0.1086167,421
0.1102833,439
0.11195,476
0.1136167,513
0.1152833,510
0.11695,527
0.1186167,544
0.1202833,575
0.12195,535
0.1236167,496
0.1252833,490
0.12695,492
0.1286167,495
0.1302833,568
0.13195,595
0.1336167,434
0.1352833,449
0.13695,451
0.1386167,524
0.1402833,530
0.14195,497
0.1436167,513
0.1452833,529
0.14695,611
0.1486167,361
0.1502833,553
0.15195,504
0.1536167,631
0.1552833,405
0.15695,550
0.1586167,465
0.1602833,457
0.16195,449
0.1636167,409
0.1652833,442
0.16695,592
0.1686167,548
0.1702833,549
0.17195,385
0.1736167,491
0.1752833,559
0.17695,480
0.1786167,486
0.1802833,492
0.18195,546
0.1836167,600
0.1852833,592
0.18695,456
0.1886167,399
0.1902833,563
0.19195,557
0.1936333,436
0.1952833,458
0.19695,458
0.1986167,581
0.2002833,572
0.20195,568
0.2036167,494
0.2052833,457
0.20695,439
0.2086167,472
0.2103,505
0.21195,473
0.2136167,441
0.2152833,464
0.21695,360
0.2186167,516
0.2203,562
0.22195,470
0.2236167,472
0.2252833,621
0.2269667,642
0.2286333,599
0.2302833,444
0.23195,549
0.2336333,646
0.2352833,649
0.23695,516
0.2386167,544
0.2402833,472
0.24195,520
0.2436167,556
0.2453,471
0.24695,542
0.2486167,454
0.2502833,464
0.2519667,508
0.2536167,495
0.2552833,389
0.25695,478
0.2586167,401
0.2603,395
0.2619667,418
0.2636333,463
0.2653,508
0.26695,542
0.2686333,530
0.2702833,533
0.27195,535
0.2736167,517
0.2752833,531
0.2769667,458
0.2786333,399
0.2803,440
0.2819667,481
0.2836333,431
0.2853,381
0.2869667,461
0.2886167,376
0.2902833,434
0.29195,492
0.2936333,494
0.2953,482
0.29695,520
0.2986333,558
0.3003,536
0.3019667,577
0.3036333,575
0.3053,572
0.30695,561
0.3086167,591
0.3103,608
0.3119667,624
0.3136333,426
0.3153,540
0.3169667,533
0.3186333,521
0.3203,508
0.3219667,488
0.3236333,455
0.3252833,423
0.3269667,456
0.3286333,489
0.3303,516
0.3319667,523
0.3336333,544
0.3353,565
0.3369667,463
0.3386333,469
0.3403,470
0.3419667,470
0.3436333,596
0.3453,622
0.3469667,502
0.3486333,529
0.3503,662
0.3519667,665
0.3536333,648
0.3553,631
0.3569667,531
0.3586333,596
0.3603,654
0.3619667,629
0.3636333,716
0.3653,1079
0.3669667,1926
0.3686333,2847
0.3703,5309
0.3719667,6376
0.3736333,6341
0.3753,6771
0.3769667,6752
0.3786333,6734
0.3803,6603
0.3819667,5290
0.3836333,4476
0.3853,4040
0.3869667,3963
0.3886333,3826
0.3903,3525
0.3919667,2825
0.3936333,2700
0.3953,1788
0.3969667,1619
0.3986333,1294
0.4003,1407
0.4019667,1253
0.4036333,1060
0.4053,1244
0.4069667,1281
0.4086333,1053
0.4103,1026
0.4119667,936
0.4136333,1024
0.4153,1113
0.4169667,1237
0.4186333,1266
0.4203,989
0.4219667,1363
0.4236333,1195
0.4253,1079
0.4269667,964
0.4286333,975
0.4303,963
0.4319667,1318
0.4336333,1368
0.4353,1861
0.4369667,2726
0.4386333,4335
0.4403,6576
0.4419667,9960
0.4436333,14444
0.4453,21012
0.4469667,27924
0.4486333,39008
0.4503,50896
0.4519667,63712
0.4536333,79360
0.4553,94432
0.4569667,112576
0.4586333,131136
0.4603,144768
0.4619667,159424
0.4636333,179008
0.4653,198592
0.4669667,222528
0.4686333,244480
0.4703,266048
0.4719667,289280
0.4736333,296576
0.4753,297856
0.4769667,298368
0.4786333,279040
0.4803,260160
0.4819667,229248
0.4836333,199488
0.4853,168640
0.4869667,140096
0.4886333,114496
0.4903,91552
0.4919667,71744
0.4936333,55296
0.4953,41072
0.4969667,33456
0.4986333,24060
0.5003,20256
0.5019667,16488
0.5036333,13560
0.5053,11592
0.5069667,9524
0.5086333,8116
0.5103,7406
0.5119666,6224
0.5136333,5830
0.5153,5786
0.5169666,4958
0.5186333,4377
0.5203,4164
0.5219667,4436
0.5236334,3860
0.5253,3305
0.5269667,3372
0.5286334,3513
0.5303,3399
0.5319667,2856
0.5336334,3099
0.5353,2808
0.5369667,2820
0.5386333,2440
0.5403,2342
0.5419667,2599
0.5436333,2076
0.5453,2380
0.5469667,2266
0.5486333,2033
0.5503,1945
0.5519667,1935
0.5536333,2041
0.5553,1678
0.5569667,1475
0.5586333,1868
0.5603,1516
0.5619667,1577
0.5636333,1405
0.5653,1528
0.5669667,1326
0.5686333,1315
0.5703,1303
0.5719666,1240
0.5736333,1428
0.5753,1505
0.5769666,1162
0.5786333,1182
0.5803,1255
0.5819666,1245
0.5836333,1174
0.5853,1352
0.5869667,1326
0.5886334,911
0.5903,1241
0.5919667,1204
0.5936334,1252
0.5953,1087
0.5969667,1316
0.5986333,1173
0.6003,1037
0.6019667,1157
0.6036333,1258
0.6053,1135
0.6069667,1111
0.6086333,1087
0.6103,901
0.6119667,1017
0.6136333,1063
0.6153,981
0.6169667,1032
0.6186333,1125
0.6203,910
0.6219667,884
0.6236333,800
0.6253,895
0.6269667,884
0.6286333,872
0.6303,886
0.6319667,731
0.6336333,750
0.6353,941
0.6369666,820
0.6386333,864
0.6403,824
0.6419666,683
0.6436333,619
0.6453,640
0.6469667,615
0.6486334,615
0.6503,614
0.6519667,631
0.6536334,647
0.6553,565
0.6569667,617
0.6586334,563
0.6603,510
0.6619667,540
0.6636333,570
0.6653,614
0.6669667,643
0.6686333,616
0.6703,589
0.6719667,563
0.6736333,564
0.6753,504
0.6769667,595
0.6786333,550
0.6803,501
0.6819667,489
0.6836333,477
0.6853,649
0.6869667,615
0.6886333,561
0.6903,634
0.6919667,418
0.6936333,630
0.6953,605
0.6969666,541
0.6986333,543
0.7003,536
0.7019666,561
0.7036333,613
0.7053,616
0.7069666,510
0.7086333,619
0.7103,641
0.7119667,637
0.7136334,534
0.7153,589
0.7169667,605
0.7186334,524
0.7203,672
0.7219667,471
0.7236333,563
0.7253,434
0.7269667,557
0.7286333,418
0.7303,351
0.7319667,467
0.7336333,442
0.7353,417
0.7369667,526
0.7386333,520
0.7403,514
0.7419667,504
0.7436333,686
0.7453,667
0.7469667,535
0.7486333,348
0.7503,607
0.7519667,605
0.7536333,659
0.7553,529
0.7569667,499
0.7586333,655
0.7603,472
0.7619666,562
0.7636333,477
0.7653,419
0.7669666,632
0.7686333,603
0.7703,432
0.7719667,596
0.7736334,433
0.7753,558
0.7769667,387
0.7786334,420
0.7803,545
0.7819667,553
0.7836334,475
0.7853,497
0.7869667,520
0.7886333,430
0.7903,470
0.7919667,471
0.7936333,469
0.7953,503
0.7969667,423
0.7986333,449
0.8003,466
0.8019667,570
0.8036333,576
0.8053,401
0.8069667,573
0.8086333,461
0.8103,461
0.8119667,456
0.8136333,419
0.8153,382
0.8169667,459
0.8186333,455
0.8203,452
0.8219666,534
0.8236333,487
0.8253,440
0.8269666,464
0.8286333,511
0.8303,558
0.8319666,557
0.8336333,555
0.8353,511
0.8369667,467
0.8386334,532
0.8403,442
0.8419667,609
0.8436334,600
0.8453,591
0.8469667,637
0.8486333,531
0.8503,485
0.8519667,495
0.8536333,531
0.8553,550
0.8569667,564
0.8586333,484
0.8603,452
0.8619667,550
0.8636333,548
0.8653,505
0.8669667,499
0.8686333,435
0.8703,464
0.8719667,465
0.8736333,517
0.8753,477
0.8769667,437
0.8786333,411
0.8803,422
0.8819667,565
0.8836333,643
0.8853,747
0.8869666,903
0.8886333,1257
0.8903,1412
0.8919666,1336
0.8936333,1438
0.8953,1351
0.8969667,1380
0.8986334,1408
0.9003,1553
0.9019667,1515
0.9036334,1477
0.9053,1461
0.9069667,1446
0.9086334,1466
0.9103,1410
0.9119667,1489
0.9136333,1422
0.9153,1355
0.9169667,1511
0.9186333,1522
0.9203,1532
0.9219667,1418
0.9236333,1382
0.9253,1473
0.9269667,1454
0.9286333,1434
0.9303,1335
0.9319667,1377
0.9336333,1418
0.9353,1375
0.9369667,1290
0.9386333,1384
0.9403,1374
0.9419667,1365
0.9436333,1447
0.9453,1511
0.9469666,1148
0.9486333,1372
0.9503,1208
0.9519666,1149
0.9536333,1296
0.9553,1251
0.9569666,1206
0.9586333,1105
0.9603,988
0.9619667,1108
0.9636334,1190
0.9653,875
0.9669667,984
0.9686334,742
0.9703,845
0.9719667,918
0.9736333,838
0.9753,704
0.9769667,811
0.9786333,530
0.9803,571
0.9819667,490
0.9836333,498
0.9853,507
0.9869667,515
0.9886333,523
0.9903,384
0.9919667,479
0.9936333,401
0.9953,326
0.9969667,324
0.9986333,344
1.0003,364
1.001967,386
1.003633,408
1.0053,412
1.006967,444
1.008633,315
1.0103,491
1.011967,504
1.013633,489
1.0153,432
1.016967,496
1.018633,567
1.0203,354
1.021967,405
1.023633,393
1.0253,440
1.026967,487
1.028633,465
1.0303,497
1.031967,440
1.033633,426
1.0353,422
1.036967,456
1.038633,456
1.0403,456
1.041967,435
1.043633,476
1.0453,488
1.046967,433
1.048633,578
1.0503,551
1.051967,413
1.053633,508
1.0553,468
1.056967,437
1.058633,405
1.0603,556
1.061967,272
1.063633,443
1.0653,588
1.066967,520
1.068633,456
1.0703,427
1.071967,469
1.073633,455
1.0753,416
1.076967,396
1.078633,438
1.0803,431
1.081967,424
1.083633,434
1.0853,444
1.086967,503
1.088633,504
1.0903,486
1.091967,468
1.093633,459
1.0953,437
1.096967,414
1.098633,447
1.1003,421
1.101967,430
1.103633,439
1.1053,333
1.106967,359
1.108633,385
1.1103,388
1.111967,405
1.113633,436
1.1153,468
1.116967,531
1.118633,513
1.1203,496
1.121967,598
1.123633,416
1.1253,652
1.126967,544
1.128633,585
1.1303,387
1.131967,568
1.133633,471
1.1353,398
1.136967,564
1.138633,411
1.1403,435
1.141967,460
1.143633,458
1.1453,423
1.146967,549
1.148633,505
1.1503,460
1.151967,495
1.153633,499
1.1553,426
1.156967,439
1.158633,530
1.1603,563
1.161967,537
1.163633,537
1.1653,537
1.166967,497
1.168633,557
1.1703,531
1.171967,517
1.17365,504
1.1753,497
1.176967,491
1.178633,537
1.1803,583
1.181967,621
1.18365,683
1.1853,651
1.186967,521
1.188633,656
1.190317,605
1.191967,646
1.193633,687
1.1953,666
1.196967,706
1.198633,526
