"SampleName","A2Rd2_01-27"
"Target Mass 1",
"Column Name","IA-3 (3um, 4.6X100)"
"Channel","QDa 1: SIR Ch2"
0.00195,474
0.003616667,746
0.005283333,754
0.00695,721
0.008616666,746
0.01028333,771
0.01195,919
0.01361667,912
0.01528333,937
0.01695,780
0.01861667,930
0.02028333,869
0.02195,808
0.02361667,953
0.02528333,912
0.02695,784
0.02861667,910
0.03028333,767
0.03195,809
0.03361667,669
0.03528333,843
0.03695,1147
0.03861667,1129
0.04028333,1036
0.04195,912
0.04361667,1048
0.04528333,1012
0.04695,976
0.04861667,816
0.05028334,880
0.05195,755
0.05361667,680
0.05528333,665
0.05695,882
0.05861667,972
0.06028333,797
0.06195,762
0.06361666,804
0.06528334,911
0.06695,885
0.06861667,960
0.07028333,856
0.07195,753
0.07361667,915
0.07528333,925
0.07695,802
0.07861666,809
0.08028334,820
0.08195,810
0.08361667,800
0.08528333,731
0.08695,661
0.08861667,720
0.09028333,779
0.09195,828
0.09361666,877
0.09528334,944
0.09695,906
0.09861667,833
0.1002833,681
0.10195,892
0.1036167,894
0.1052833,876
0.10695,831
0.1086167,960
0.1102833,904
0.11195,848
0.1136167,832
0.1152833,922
0.11695,863
0.1186167,804
0.1202833,817
0.12195,830
0.1236167,719
0.1252833,806
0.12695,726
0.1286167,716
0.1302833,707
0.13195,859
0.1336167,855
0.1352833,774
0.13695,837
0.1386167,828
0.1402833,821
0.14195,814
0.1436167,1121
0.1452833,1052
0.14695,731
0.1486167,878
0.1502833,1034
0.15195,734
0.1536167,957
0.1552833,823
0.15695,882
0.1586167,800
0.1602833,877
0.16195,846
0.1636167,814
0.1652833,905
0.16695,888
0.1686167,872
0.1702833,770
0.17195,806
0.1736167,811
0.1753,817
0.17695,789
0.1786167,820
0.1802833,780
0.18195,816
0.1836167,851
0.1852833,758
0.18695,882
0.1886167,882
0.1902833,828
0.19195,774
0.1936167,983
0.1952833,927
0.19695,923
0.1986167,840
0.2002833,958
0.20195,874
0.2036167,823
0.2052833,851
0.20695,873
0.2086167,895
0.2102833,858
0.21195,821
0.2136167,811
0.2152833,969
0.21695,1076
0.2186167,981
0.2202833,1010
0.22195,848
0.2236167,961
0.2252833,902
0.22695,1191
0.2286167,1224
0.2302833,1029
0.23195,1057
0.2336167,1088
0.2352833,1127
0.23695,997
0.2386167,1087
0.2402833,1020
0.24195,1027
0.2436167,1034
0.2452833,1229
0.24695,1252
0.2486167,1165
0.2502833,1038
0.25195,1284
0.2536167,1317
0.2552833,1190
0.25695,1245
0.2586167,1091
0.2602833,989
0.26195,945
0.2636167,1150
0.2652833,1071
0.26695,1183
0.2686167,967
0.2702833,888
0.27195,1029
0.2736167,1069
0.2753,1103
0.27695,1050
0.2786167,1168
0.2803,915
0.28195,1147
0.2836333,956
0.2852833,1219
0.28695,1136
0.2886167,928
0.2902833,1092
0.29195,1235
0.2936167,1099
0.2952833,933
0.29695,1102
0.2986333,1056
0.3002833,1029
0.30195,1063
0.3036333,1048
0.3052833,1271
0.30695,1168
0.3086167,1065
0.3102833,996
0.31195,1064
0.3136167,1003
0.3153,1006
0.31695,1190
0.3186167,1200
0.3202833,1211
0.32195,1201
0.3236167,1004
0.3253,1226
0.32695,1114
0.3286167,1200
0.3302833,1286
0.33195,1097
0.3336333,1246
0.3352833,1214
0.3369667,1355
0.3386167,1436
0.3402833,1309
0.34195,1181
0.3436167,1272
0.3452833,1350
0.34695,1370
0.3486167,1170
0.3503,1313
0.35195,1409
0.3536333,1234
0.3552833,1223
0.35695,1212
0.3586167,1188
0.3602833,1610
0.36195,1667
0.3636167,1670
0.3652833,2687
0.3669667,4521
0.3686333,4481
0.3703,5359
0.3719667,4890
0.3736167,4848
0.3753,3814
0.37695,3258
0.3786167,2584
0.3803,1959
0.38195,1561
0.3836167,1593
0.3853,1506
0.3869667,1071
0.3886333,1053
0.3902833,765
0.3919667,897
0.3936167,694
0.3952833,748
0.39695,746
0.3986167,756
0.4002833,766
0.4019667,724
0.4036333,810
0.4053,663
0.4069667,823
0.4086333,778
0.4103,698
0.4119667,634
0.4136333,482
0.4153,757
0.4169667,729
0.4186333,737
0.4203,655
0.4219667,843
0.4236333,1049
0.4253,927
0.4269667,749
0.4286333,970
0.4303,974
0.4319667,977
0.4336333,833
0.4353,798
0.4369667,1059
0.4386333,920
0.4403,1129
0.4419667,1118
0.4436333,949
0.4453,982
0.4469667,1153
0.4486333,1229
0.4503,1096
0.4519667,1196
0.4536333,1165
0.4553,1270
0.4569667,1329
0.4586333,1314
0.4603,1510
0.4619667,1514
0.4636333,1365
0.4653,1462
0.4669667,1475
0.4686333,1489
0.4703,1288
0.4719667,1375
0.4736333,1327
0.4753,1279
0.4769667,1191
0.4786333,1299
0.4803,1178
0.4819667,1183
0.4836333,1246
0.4853,1196
0.4869667,1205
0.4886333,1175
0.4903,1145
0.4919667,1024
0.4936333,1160
0.4953,1102
0.4969667,981
0.4986333,1049
0.5003,1135
0.5019667,1019
0.5036333,1123
0.5053,997
0.5069667,771
0.5086333,1217
0.5103,837
0.5119666,989
0.5136333,1130
0.5153,1076
0.5169666,939
0.5186333,759
0.5203,954
0.5219667,888
0.5236334,708
0.5253,853
0.5269667,816
0.5286334,778
0.5303,944
0.5319667,950
0.5336334,955
0.5353,831
0.5369667,938
0.5386333,930
0.5403,917
0.5419667,904
0.5436333,1087
0.5453,1175
0.5469667,1243
0.5486333,1090
0.5503,1069
0.5519667,946
0.5536333,1032
0.5553,1043
0.5569667,1036
0.5586333,1030
0.5603,1065
0.5619667,966
0.5636333,1050
0.5653,988
0.5669667,1008
0.5686333,1000
0.5703,966
0.5719666,1021
0.5736333,924
0.5753,855
0.5769666,845
0.5786333,1036
0.5803,1142
0.5819666,1044
0.5836333,1053
0.5853,818
0.5869667,1040
0.5886334,1047
0.5903,915
0.5919667,1011
0.5936334,862
0.5953,866
0.5969667,883
0.5986333,901
0.6003,1013
0.6019667,938
0.6036333,863
0.6053,1000
0.6069667,959
0.6086333,983
0.6103,915
0.6119667,1018
0.6136333,768
0.6153,736
0.6169667,967
0.6186333,1033
0.6203,819
0.6219667,1048
0.6236333,959
0.6253,781
0.6269667,917
0.6286333,1054
0.6303,1089
0.6319667,1247
0.6336333,1193
0.6353,1121
0.6369666,984
0.6386333,1070
0.6403,1156
0.6419666,1062
0.6436333,1141
0.6453,885
0.6469667,940
0.6486334,995
0.6503,968
0.6519667,941
0.6536334,1065
0.6553,1064
0.6569667,983
0.6586334,945
0.6603,1017
0.6619667,1010
0.6636333,1003
0.6653,880
0.6669667,1002
0.6686333,966
0.6703,1142
0.6719667,1298
0.6736333,1425
0.6753,1440
0.6769667,1277
0.6786333,1533
0.6803,1888
0.6819667,2175
0.6836333,3004
0.6853,3520
0.6869667,3729
0.6886333,4814
0.6903,5517
0.6919667,7675
0.6936333,8940
0.6953,11028
0.6969666,13940
0.6986333,15520
0.7003,18524
0.7019666,20784
0.7036333,24852
0.7053,27080
0.7069666,29312
0.7086333,31228
0.7103,34528
0.7119667,33536
0.7136334,35232
0.7153,32300
0.7169667,31688
0.7186334,29996
0.7203,26948
0.7219667,22436
0.7236333,21224
0.7253,17376
0.7269667,14540
0.7286333,12176
0.7303,11028
0.7319667,8812
0.7336333,6915
0.7353,5594
0.7369667,4668
0.7386333,4338
0.7403,3697
0.7419667,3209
0.7436333,3013
0.7453,2909
0.7469667,2950
0.7486333,2360
0.7503,2284
0.7519667,2082
0.7536333,1801
0.7553,1763
0.7569667,1826
0.7586333,1571
0.7603,1685
0.7619666,1901
0.7636333,1392
0.7653,1595
0.7669666,1208
0.7686333,1471
0.7703,1575
0.7719667,1363
0.7736334,1438
0.7753,1505
0.7769667,1544
0.7786334,1553
0.7803,1519
0.7819667,1543
0.7836334,1487
0.7853,1593
0.7869667,2088
0.7886333,2572
0.7903,2681
0.7919667,2711
0.7936333,2952
0.7953,3689
0.7969667,4237
0.7986333,4475
0.8003,5379
0.8019667,6038
0.8036333,7897
0.8053,7864
0.8069667,9748
0.8086333,10608
0.8103,10692
0.8119667,11880
0.8136333,13188
0.8153,14296
0.8169667,15392
0.8186333,15072
0.8203,15640
0.8219666,14728
0.8236333,14400
0.8253,13628
0.8269666,13104
0.8286333,10900
0.8303,9924
0.8319666,9488
0.8336333,8160
0.8353,6702
0.8369667,6334
0.8386334,5283
0.8403,5065
0.8419667,4189
0.8436334,2936
0.8453,3154
0.8469667,2685
0.8486333,2677
0.8503,2595
0.8519667,2129
0.8536333,2097
0.8553,1840
0.8569667,1725
0.8586333,1609
0.8603,1492
0.8619667,1819
0.8636333,1633
0.8653,1555
0.8669667,1431
0.8686333,1496
0.8703,1392
0.8719667,1287
0.8736333,1313
0.8753,1339
0.8769667,1549
0.8786333,1660
0.8803,1483
0.8819667,1609
0.8836333,1734
0.8853,1977
0.8869666,1887
0.8886333,1797
0.8903,2025
0.8919666,2109
0.8936333,1781
0.8953,1628
0.8969667,1682
0.8986334,1578
0.9003,1512
0.9019667,1632
0.9036334,1742
0.9053,1701
0.9069667,1597
0.9086334,1649
0.9103,1647
0.9119667,1618
0.9136333,1432
0.9153,1478
0.9169667,1456
0.9186333,1351
0.9203,1398
0.9219667,1443
0.9236333,1387
0.9253,1446
0.9269667,1386
0.9286333,1326
0.9303,1507
0.9319667,1464
0.9336333,1424
0.9353,1452
0.9369667,1480
0.9386333,1388
0.9403,1578
0.9419667,1298
0.9436333,1375
0.9453,1262
0.9469666,1434
0.9486333,1489
0.9503,1419
0.9519666,1395
0.9536333,1661
0.9553,1783
0.9569666,1728
0.9586333,2203
0.9603,2390
0.9619667,2577
0.9636334,3483
0.9653,3938
0.9669667,3915
0.9686334,5260
0.9703,6269
0.9719667,6731
0.9736333,8492
0.9753,9968
0.9769667,11520
0.9786333,13272
0.9803,15984
0.9819667,18036
0.9836333,21968
0.9853,24380
0.9869667,27632
0.9886333,32420
0.9903,37104
0.9919667,42992
0.9936333,49472
0.9953,53072
0.9969667,62688
0.9986333,67072
1.0003,73024
1.001967,80256
1.003633,84944
1.0053,89280
1.006967,90544
1.008633,93760
1.0103,93536
1.011967,93120
1.013633,92880
1.0153,91072
1.016967,86144
1.018633,81184
1.0203,77328
1.021967,70944
1.023633,63408
1.0253,56800
1.026967,50304
1.028633,45200
1.0303,38976
1.031967,34288
1.033633,30316
1.0353,26880
1.036967,23080
1.038633,22344
1.0403,19016
1.041967,16552
1.043633,16256
1.0453,14852
1.046967,13368
1.048633,13492
1.0503,12480
1.051967,11816
1.053633,11604
1.0553,11928
1.056967,11528
1.058633,10976
1.0603,10380
1.061967,11072
1.063633,11236
1.0653,11228
1.066967,11284
1.068633,11908
1.0703,12264
1.071967,12320
1.073633,14020
1.0753,15204
1.076967,15756
1.078633,16944
1.0803,17440
1.081967,19864
1.083633,21396
1.0853,21916
1.086967,24136
1.088633,26416
1.0903,26964
1.091967,28756
1.093633,29412
1.0953,30588
1.096967,31116
1.098633,31200
1.1003,30804
1.101967,31728
1.103633,29864
1.1053,28496
1.106967,29160
1.108633,25844
1.1103,25268
1.111967,23692
1.113633,21644
1.1153,20916
1.116967,19408
1.118633,17104
1.1203,16388
1.121967,14076
1.123633,13896
1.1253,11816
1.126967,10724
1.128633,9932
1.1303,9828
1.131967,8428
1.133633,7811
1.1353,7022
1.136967,6501
1.138633,6303
1.1403,5430
1.141967,5598
1.143633,4988
1.1453,4667
1.146967,4498
1.148633,4025
1.1503,4013
1.151967,3755
1.153633,3522
1.1553,3206
1.156967,2887
1.158633,3027
1.1603,3059
1.161967,2811
1.163633,2931
1.1653,2497
1.166967,2468
1.168633,2427
1.1703,2462
1.171967,2497
1.173633,2074
1.1753,2218
1.176967,2166
1.178633,2173
1.1803,2180
1.181967,1879
1.183633,2137
1.1853,2191
1.186967,2136
1.188633,2153
1.1903,2168
1.191967,2052
1.193633,1882
1.1953,2006
1.196967,2129
1.198633,2327
