"SampleName","A2Rd2_01-66"
"Target Mass 1",
"Column Name","IA-3 (3um, 4.6X100)"
"Channel","QDa 1: SIR Ch2"
0.00195,595
0.003616667,747
0.005283333,731
0.00695,726
0.008616666,960
0.01028333,960
0.01195,1134
0.01361667,951
0.01528333,1009
0.01695,940
0.01861667,896
0.02028333,1053
0.02195,1021
0.02361667,886
0.02528333,1020
0.02695,1013
0.02861667,868
0.03028333,869
0.03195,1105
0.03361667,1024
0.03528333,1081
0.03695,1101
0.03861667,995
0.04028333,1025
0.04195,1041
0.04361667,970
0.04528333,977
0.04695,974
0.04861667,1001
0.05028334,1002
0.05195,1002
0.05361667,800
0.05528333,1022
0.05695,1038
0.05861667,1003
0.06028333,944
0.06195,1093
0.06361666,879
0.06528334,1106
0.06695,985
0.06861667,1011
0.07028333,1074
0.07195,961
0.07361667,1002
0.07528333,1044
0.07695,931
0.07861666,1038
0.08028334,1036
0.08195,909
0.08361667,1117
0.08528333,1061
0.08695,1091
0.08861667,935
0.09028333,987
0.09195,935
0.09361666,961
0.09528334,822
0.09695,811
0.09861667,872
0.1002833,844
0.10195,816
0.1036167,828
0.1052833,875
0.10695,878
0.1086167,881
0.1102833,858
0.11195,978
0.1136167,956
0.1152833,990
0.11695,994
0.1186167,999
0.1202833,995
0.12195,992
0.1236167,803
0.1252833,878
0.12695,834
0.1286167,794
0.1302833,854
0.13195,927
0.1336167,870
0.1352833,813
0.13695,813
0.1386167,813
0.1402833,880
0.14195,937
0.1436167,995
0.1452833,962
0.14695,928
0.1486167,840
0.1502833,945
0.15195,971
0.1536167,997
0.1552833,921
0.15695,1026
0.1586167,978
0.1602833,960
0.16195,843
0.1636167,955
0.1652833,775
0.16695,948
0.1686167,930
0.1702833,947
0.17195,960
0.1736167,972
0.1752833,888
0.17695,875
0.1786167,861
0.1802833,881
0.18195,901
0.1836167,936
0.1852833,889
0.18695,841
0.1886167,920
0.1902833,980
0.19195,980
0.1936333,912
0.1952833,928
0.19695,1088
0.1986167,673
0.2002833,1000
0.20195,917
0.2036167,906
0.2052833,1018
0.20695,962
0.2086167,971
0.2103,1078
0.21195,1083
0.2136167,1007
0.2152833,970
0.21695,1083
0.2186167,972
0.2203,1079
0.22195,1049
0.2236167,1019
0.2252833,1103
0.2269667,1110
0.2286333,1116
0.2302833,1063
0.23195,1151
0.2336333,1166
0.2352833,1135
0.23695,1103
0.2386167,1236
0.2402833,1193
0.24195,1151
0.2436167,1119
0.2453,1087
0.24695,1133
0.2486167,1112
0.2502833,1091
0.2519667,1110
0.2536167,1217
0.2552833,1165
0.25695,1113
0.2586167,1124
0.2603,1062
0.2619667,1310
0.2636333,1421
0.2653,1233
0.26695,1038
0.2686333,1136
0.2702833,1048
0.27195,959
0.2736167,1106
0.2752833,1161
0.2769667,951
0.2786333,1002
0.2803,1192
0.2819667,1066
0.2836333,939
0.2853,1041
0.2869667,1081
0.2886167,1121
0.2902833,1012
0.29195,1132
0.2936333,1225
0.2953,1133
0.29695,1042
0.2986333,1043
0.3003,1116
0.3019667,1113
0.3036333,1111
0.3053,1019
0.30695,1094
0.3086167,1168
0.3103,980
0.3119667,1154
0.3136333,1328
0.3153,1306
0.3169667,1166
0.3186333,1343
0.3203,1278
0.3219667,1137
0.3236333,1332
0.3252833,1205
0.3269667,1166
0.3286333,1245
0.3303,1217
0.3319667,1187
0.3336333,1157
0.3353,1224
0.3369667,1290
0.3386333,1253
0.3403,1215
0.3419667,1344
0.3436333,1473
0.3453,1397
0.3469667,1585
0.3486333,1502
0.3503,1449
0.3519667,1262
0.3536333,1179
0.3553,1440
0.3569667,1393
0.3586333,1346
0.3603,1392
0.3619667,1373
0.3636333,1355
0.3653,1995
0.3669667,3651
0.3686333,4173
0.3703,5292
0.3719667,4640
0.3736333,5112
0.3753,4994
0.3769667,4447
0.3786333,3966
0.3803,3294
0.3819667,2526
0.3836333,2008
0.3853,2016
0.3869667,1730
0.3886333,1629
0.3903,1325
0.3919667,1154
0.3936333,1000
0.3953,642
0.3969667,766
0.3986333,804
0.4003,768
0.4019667,722
0.4036333,638
0.4053,697
0.4069667,633
0.4086333,847
0.4103,764
0.4119667,681
0.4136333,729
0.4153,733
0.4169667,707
0.4186333,764
0.4203,725
0.4219667,685
0.4236333,585
0.4253,814
0.4269667,801
0.4286333,784
0.4303,814
0.4319667,844
0.4336333,863
0.4353,874
0.4369667,1081
0.4386333,1071
0.4403,892
0.4419667,1094
0.4436333,1072
0.4453,1222
0.4469667,1153
0.4486333,1174
0.4503,1116
0.4519667,1187
0.4536333,1132
0.4553,1261
0.4569667,955
0.4586333,1283
0.4603,1172
0.4619667,1239
0.4636333,1490
0.4653,1630
0.4669667,1397
0.4686333,1172
0.4703,1452
0.4719667,1646
0.4736333,1477
0.4753,1547
0.4769667,1330
0.4786333,949
0.4803,1349
0.4819667,1616
0.4836333,1392
0.4853,1065
0.4869667,928
0.4886333,1046
0.4903,1055
0.4919667,1038
0.4936333,1148
0.4953,1129
0.4969667,1092
0.4986333,1029
0.5003,997
0.5019667,968
0.5036333,953
0.5053,939
0.5069667,959
0.5086333,980
0.5103,857
0.5119666,923
0.5136333,990
0.5153,988
0.5169666,986
0.5186333,924
0.5203,1114
0.5219667,784
0.5236334,906
0.5253,1028
0.5269667,841
0.5286334,919
0.5303,768
0.5319667,968
0.5336334,772
0.5353,823
0.5369667,782
0.5386333,850
0.5403,849
0.5419667,848
0.5436333,965
0.5453,890
0.5469667,815
0.5486333,877
0.5503,873
0.5519667,811
0.5536333,856
0.5553,901
0.5569667,916
0.5586333,938
0.5603,808
0.5619667,962
0.5636333,736
0.5653,827
0.5669667,853
0.5686333,851
0.5703,880
0.5719666,910
0.5736333,732
0.5753,855
0.5769666,786
0.5786333,877
0.5803,891
0.5819666,905
0.5836333,928
0.5853,822
0.5869667,895
0.5886334,1043
0.5903,1064
0.5919667,939
0.5936334,832
0.5953,856
0.5969667,838
0.5986333,820
0.6003,1015
0.6019667,1030
0.6036333,868
0.6053,1044
0.6069667,885
0.6086333,821
0.6103,920
0.6119667,879
0.6136333,857
0.6153,836
0.6169667,915
0.6186333,994
0.6203,974
0.6219667,802
0.6236333,780
0.6253,909
0.6269667,930
0.6286333,924
0.6303,919
0.6319667,870
0.6336333,613
0.6353,784
0.6369666,860
0.6386333,864
0.6403,873
0.6419666,882
0.6436333,730
0.6453,945
0.6469667,890
0.6486334,722
0.6503,875
0.6519667,853
0.6536334,730
0.6553,798
0.6569667,613
0.6586334,692
0.6603,771
0.6619667,859
0.6636333,867
0.6653,874
0.6669667,919
0.6686333,648
0.6703,947
0.6719667,708
0.6736333,779
0.6753,770
0.6769667,765
0.6786333,779
0.6803,804
0.6819667,624
0.6836333,743
0.6853,861
0.6869667,817
0.6886333,806
0.6903,921
0.6919667,683
0.6936333,880
0.6953,775
0.6969666,846
0.6986333,868
0.7003,685
0.7019666,834
0.7036333,814
0.7053,677
0.7069666,901
0.7086333,809
0.7103,724
0.7119667,711
0.7136334,835
0.7153,817
0.7169667,798
0.7186334,823
0.7203,651
0.7219667,810
0.7236333,885
0.7253,602
0.7269667,727
0.7286333,870
0.7303,907
0.7319667,785
0.7336333,786
0.7353,787
0.7369667,702
0.7386333,618
0.7403,757
0.7419667,787
0.7436333,778
0.7453,775
0.7469667,771
0.7486333,698
0.7503,754
0.7519667,811
0.7536333,897
0.7553,879
0.7569667,861
0.7586333,783
0.7603,887
0.7619666,715
0.7636333,754
0.7653,793
0.7669666,758
0.7686333,607
0.7703,862
0.7719667,587
0.7736334,892
0.7753,719
0.7769667,806
0.7786334,867
0.7803,794
0.7819667,810
0.7836334,826
0.7853,818
0.7869667,823
0.7886333,756
0.7903,783
0.7919667,809
0.7936333,681
0.7953,645
0.7969667,766
0.7986333,736
0.8003,809
0.8019667,882
0.8036333,930
0.8053,806
0.8069667,824
0.8086333,1012
0.8103,678
0.8119667,783
0.8136333,708
0.8153,660
0.8169667,892
0.8186333,933
0.8203,832
0.8219666,921
0.8236333,898
0.8253,786
0.8269666,815
0.8286333,758
0.8303,700
0.8319666,732
0.8336333,857
0.8353,886
0.8369667,609
0.8386334,665
0.8403,796
0.8419667,672
0.8436334,865
0.8453,868
0.8469667,760
0.8486333,919
0.8503,769
0.8519667,849
0.8536333,661
0.8553,809
0.8569667,838
0.8586333,782
0.8603,851
0.8619667,853
0.8636333,685
0.8653,743
0.8669667,801
0.8686333,693
0.8703,786
0.8719667,715
0.8736333,657
0.8753,718
0.8769667,672
0.8786333,626
0.8803,716
0.8819667,746
0.8836333,966
0.8853,943
0.8869666,940
0.8886333,948
0.8903,956
0.8919666,929
0.8936333,901
0.8953,1099
0.8969667,1094
0.8986334,1075
0.9003,1055
0.9019667,858
0.9036334,1137
0.9053,1063
0.9069667,1047
0.9086334,1112
0.9103,989
0.9119667,996
0.9136333,1083
0.9153,1031
0.9169667,888
0.9186333,927
0.9203,985
0.9219667,861
0.9236333,924
0.9253,1011
0.9269667,1024
0.9286333,960
0.9303,1095
0.9319667,1089
0.9336333,1208
0.9353,1141
0.9369667,1244
0.9386333,957
0.9403,1095
0.9419667,966
0.9436333,925
0.9453,1138
0.9469666,1051
0.9486333,940
0.9503,995
0.9519666,1010
0.9536333,965
0.9553,1065
0.9569666,846
0.9586333,894
0.9603,914
0.9619667,934
0.9636334,989
0.9653,1051
0.9669667,805
0.9686334,918
0.9703,795
0.9719667,793
0.9736333,790
0.9753,838
0.9769667,812
0.9786333,785
0.9803,803
0.9819667,794
0.9836333,775
0.9853,809
0.9869667,826
0.9886333,703
0.9903,764
0.9919667,748
0.9936333,732
0.9953,608
0.9969667,704
0.9986333,800
1.0003,863
1.001967,738
1.003633,778
1.0053,681
1.006967,790
1.008633,814
1.0103,849
1.011967,885
1.013633,885
1.0153,628
1.016967,878
1.018633,762
1.0203,704
1.021967,647
1.023633,826
1.0253,925
1.026967,959
1.028633,878
1.0303,802
1.031967,974
1.033633,817
1.0353,962
1.036967,869
1.038633,1008
1.0403,689
1.041967,920
1.043633,893
1.0453,771
1.046967,589
1.048633,946
1.0503,752
1.051967,859
1.053633,956
1.0553,798
1.056967,909
1.058633,864
1.0603,667
1.061967,736
1.063633,863
1.0653,1007
1.066967,924
1.068633,842
1.0703,718
1.071967,829
1.073633,849
1.0753,710
1.076967,989
1.078633,1038
1.0803,863
1.081967,880
1.083633,982
1.0853,771
1.086967,751
1.088633,920
1.0903,918
1.091967,739
1.093633,791
1.0953,825
1.096967,852
1.098633,851
1.1003,842
1.101967,784
1.103633,747
1.1053,709
1.106967,728
1.108633,746
1.1103,747
1.111967,817
1.113633,887
1.1153,911
1.116967,922
1.118633,641
1.1203,758
1.121967,775
1.123633,745
1.1253,715
1.126967,821
1.128633,728
1.1303,635
1.131967,873
1.133633,856
1.1353,862
1.136967,756
1.138633,703
1.1403,780
1.141967,918
1.143633,960
1.1453,732
1.146967,998
1.148633,776
1.1503,854
1.151967,746
1.153633,743
1.1553,914
1.156967,886
1.158633,894
1.1603,912
1.161967,722
1.163633,665
1.1653,912
1.166967,766
1.168633,815
1.1703,899
1.171967,935
1.17365,860
1.1753,888
1.176967,738
1.178633,795
1.1803,905
1.181967,754
1.18365,802
1.1853,801
1.186967,813
1.188633,806
1.190317,798
1.191967,844
1.193633,734
1.1953,828
1.196967,793
1.198633,884
