"SampleName","A2Rd2_01-21"
"Target Mass 1",
"Column Name","IA-3 (3um, 4.6X100)"
"Channel","QDa 1: SIR Ch1"
0.00195,460
0.003616667,502
0.005283333,549
0.00695,598
0.008616666,618
0.01028333,565
0.01195,513
0.01361667,453
0.01528333,486
0.01695,467
0.01861667,489
0.02028333,403
0.02195,402
0.02361667,588
0.02528333,532
0.02695,511
0.02861667,550
0.03028333,425
0.03195,650
0.03361667,358
0.03528333,432
0.03695,504
0.03861667,460
0.04028333,440
0.04195,342
0.04361667,410
0.04528333,478
0.04695,482
0.04861667,486
0.05028334,463
0.05195,454
0.05361667,466
0.05528333,478
0.05695,411
0.05861667,436
0.06028333,329
0.06195,601
0.06361666,551
0.06528334,518
0.06695,524
0.06861667,442
0.07028333,417
0.07195,529
0.07361667,513
0.07528333,544
0.07695,371
0.07861666,439
0.08028334,450
0.08195,540
0.08361667,519
0.08528333,453
0.08695,365
0.08861667,500
0.09028333,516
0.09195,483
0.09361666,459
0.09528334,371
0.09695,363
0.09861667,356
0.1002833,500
0.10195,521
0.1036167,414
0.1052833,342
0.10695,443
0.1086167,439
0.1102833,402
0.11195,404
0.1136167,407
0.1152833,427
0.11695,448
0.1186167,470
0.1202833,522
0.12195,494
0.1236167,467
0.1252833,402
0.12695,317
0.1286167,389
0.1302833,430
0.13195,472
0.1336167,389
0.1352833,387
0.13695,400
0.1386167,412
0.1402833,495
0.14195,453
0.1436167,410
0.1452833,460
0.14695,384
0.1486167,396
0.1502833,409
0.15195,439
0.1536167,469
0.1552833,459
0.15695,449
0.1586167,389
0.1602833,450
0.16195,437
0.1636167,423
0.1652833,419
0.16695,437
0.1686167,456
0.1702833,473
0.17195,490
0.1736167,488
0.1752833,486
0.17695,434
0.1786167,558
0.1802833,546
0.18195,484
0.1836167,421
0.1852833,422
0.18695,411
0.1886167,500
0.1902833,466
0.19195,431
0.1936167,382
0.1952833,369
0.19695,341
0.1986167,366
0.2002833,391
0.20195,459
0.2036167,488
0.2052833,383
0.20695,527
0.2086167,471
0.2102833,444
0.21195,371
0.2136167,432
0.2152833,413
0.21695,414
0.2186167,416
0.2202833,523
0.22195,482
0.2236167,441
0.2252833,342
0.22695,382
0.2286167,387
0.2302833,392
0.23195,403
0.2336167,414
0.2352833,421
0.23695,428
0.2386167,364
0.2402833,437
0.2419667,449
0.2436167,514
0.2453,532
0.24695,553
0.2486167,509
0.2502833,395
0.25195,410
0.2536167,469
0.2552833,448
0.25695,454
0.2586167,460
0.2602833,351
0.26195,429
0.2636333,578
0.2652833,563
0.26695,324
0.2686167,445
0.2703,494
0.27195,355
0.2736167,371
0.2752833,505
0.27695,461
0.2786167,443
0.2803,559
0.28195,527
0.2836167,445
0.2852833,531
0.28695,451
0.2886167,516
0.2902833,537
0.2919667,541
0.2936167,532
0.2952833,524
0.29695,494
0.2986333,442
0.3002833,510
0.30195,460
0.3036167,443
0.3052833,392
0.30695,456
0.3086167,520
0.3103,478
0.31195,529
0.3136167,449
0.3153,490
0.31695,566
0.3186167,554
0.3203,541
0.3219667,572
0.3236167,602
0.3252833,695
0.32695,665
0.3286333,555
0.3302833,580
0.33195,410
0.3336333,574
0.3352833,485
0.3369667,581
0.3386333,465
0.3402833,402
0.3419667,484
0.3436167,432
0.3452833,487
0.34695,575
0.3486333,548
0.3503,549
0.3519667,515
0.3536333,527
0.3553,530
0.3569667,398
0.3586333,534
0.3602833,648
0.3619667,749
0.3636167,1325
0.3653,2758
0.3669667,5800
0.3686333,7571
0.3703,10236
0.3719667,9684
0.3736167,9304
0.3753,8308
0.37695,6142
0.3786333,4400
0.3802833,4041
0.3819667,3887
0.3836333,3772
0.3853,2960
0.3869667,2441
0.3886333,1954
0.3903,1870
0.3919667,1563
0.3936333,1540
0.3952833,1819
0.3969667,1517
0.3986167,1433
0.4003,1515
0.4019667,1542
0.4036333,1525
0.4053,1339
0.4069667,1176
0.4086333,1333
0.4103,1471
0.4119667,1350
0.4136333,1485
0.4153,1357
0.4169667,1396
0.4186333,1269
0.4203,1262
0.4219667,1147
0.4236333,1003
0.4253,883
0.4269667,842
0.4286333,1072
0.4303,979
0.4319667,1200
0.4336333,1138
0.4353,1719
0.4369667,2348
0.4386333,3219
0.4403,4691
0.4419667,7006
0.4436333,9500
0.4453,11236
0.4469667,17132
0.4486333,21144
0.4503,27128
0.4519667,35280
0.4536333,45920
0.4553,63056
0.4569667,84400
0.4586333,112752
0.4603,146944
0.4619667,186496
0.4636333,234880
0.4653,275648
0.4669667,314944
0.4686333,335808
0.4703,353216
0.4719667,344448
0.4736333,326272
0.4753,290816
0.4769667,254208
0.4786333,215104
0.4803,177408
0.4819667,138944
0.4836333,107456
0.4853,86128
0.4869667,65280
0.4886333,49856
0.4903,39376
0.4919667,32440
0.4936333,26048
0.4953,22156
0.4969667,18020
0.4986333,15208
0.5003,12708
0.5019667,11700
0.5036333,10240
0.5053,8340
0.5069667,8122
0.5086333,7015
0.5103,6538
0.5119666,5989
0.5136333,5010
0.5153,4654
0.5169666,4633
0.5186333,3961
0.5203,3941
0.5219667,3885
0.5236334,3485
0.5253,3481
0.5269667,3034
0.5286334,2837
0.5303,2635
0.5319667,2665
0.5336334,2853
0.5353,2188
0.5369667,2519
0.5386333,2391
0.5403,2294
0.5419667,2010
0.5436333,2205
0.5453,2142
0.5469667,1809
0.5486333,1706
0.5503,1727
0.5519667,1823
0.5536333,1383
0.5553,1627
0.5569667,1493
0.5586333,1616
0.5603,1696
0.5619667,1471
0.5636333,1559
0.5653,1523
0.5669667,1282
0.5686333,1335
0.5703,1164
0.5719666,1486
0.5736333,1454
0.5753,1276
0.5769666,1093
0.5786333,1232
0.5803,1291
0.5819666,1084
0.5836333,1163
0.5853,1334
0.5869667,1280
0.5886334,1097
0.5903,1136
0.5919667,1233
0.5936334,1165
0.5953,1122
0.5969667,1230
0.5986333,1153
0.6003,1041
0.6019667,1099
0.6036333,1158
0.6053,1008
0.6069667,1208
0.6086333,942
0.6103,953
0.6119667,1217
0.6136333,1235
0.6153,1013
0.6169667,1221
0.6186333,1139
0.6203,1005
0.6219667,922
0.6236333,1082
0.6253,982
0.6269667,897
0.6286333,925
0.6303,781
0.6319667,896
0.6336333,655
0.6353,688
0.6369666,740
0.6386333,697
0.6403,704
0.6419666,712
0.6436333,571
0.6453,762
0.6469667,633
0.6486334,782
0.6503,711
0.6519667,670
0.6536334,773
0.6553,635
0.6569667,645
0.6586334,707
0.6603,640
0.6619667,602
0.6636333,565
0.6653,581
0.6669667,566
0.6686333,582
0.6703,597
0.6719667,659
0.6736333,655
0.6753,630
0.6769667,604
0.6786333,655
0.6803,685
0.6819667,660
0.6836333,677
0.6853,659
0.6869667,593
0.6886333,723
0.6903,658
0.6919667,642
0.6936333,645
0.6953,685
0.6969666,478
0.6986333,535
0.7003,545
0.7019666,448
0.7036333,486
0.7053,599
0.7069666,588
0.7086333,624
0.7103,544
0.7119667,571
0.7136334,504
0.7153,563
0.7169667,622
0.7186334,633
0.7203,516
0.7219667,570
0.7236333,560
0.7253,551
0.7269667,539
0.7286333,501
0.7303,601
0.7319667,576
0.7336333,569
0.7353,637
0.7369667,519
0.7386333,542
0.7403,453
0.7419667,501
0.7436333,455
0.7453,557
0.7469667,561
0.7486333,654
0.7503,402
0.7519667,561
0.7536333,627
0.7553,585
0.7569667,476
0.7586333,589
0.7603,603
0.7619666,707
0.7636333,658
0.7653,686
0.7669666,553
0.7686333,550
0.7703,554
0.7719667,556
0.7736334,587
0.7753,544
0.7769667,501
0.7786334,602
0.7803,418
0.7819667,528
0.7836334,518
0.7853,506
0.7869667,471
0.7886333,543
0.7903,559
0.7919667,374
0.7936333,593
0.7953,560
0.7969667,552
0.7986333,537
0.8003,546
0.8019667,494
0.8036333,531
0.8053,554
0.8069667,683
0.8086333,648
0.8103,405
0.8119667,571
0.8136333,568
0.8153,571
0.8169667,591
0.8186333,612
0.8203,624
0.8219666,636
0.8236333,691
0.8253,650
0.8269666,608
0.8286333,491
0.8303,658
0.8319666,656
0.8336333,609
0.8353,639
0.8369667,639
0.8386334,681
0.8403,511
0.8419667,813
0.8436334,750
0.8453,579
0.8469667,653
0.8486333,453
0.8503,613
0.8519667,614
0.8536333,621
0.8553,594
0.8569667,567
0.8586333,632
0.8603,687
0.8619667,649
0.8636333,506
0.8653,568
0.8669667,566
0.8686333,461
0.8703,547
0.8719667,529
0.8736333,590
0.8753,588
0.8769667,765
0.8786333,859
0.8803,953
0.8819667,1224
0.8836333,1523
0.8853,1469
0.8869666,1846
0.8886333,2087
0.8903,1981
0.8919666,2083
0.8936333,2156
0.8953,2164
0.8969667,1944
0.8986334,1872
0.9003,2047
0.9019667,1974
0.9036334,2036
0.9053,2048
0.9069667,1968
0.9086334,1943
0.9103,1876
0.9119667,1808
0.9136333,1960
0.9153,2042
0.9169667,1677
0.9186333,2030
0.9203,1751
0.9219667,1974
0.9236333,2006
0.9253,1949
0.9269667,1864
0.9286333,1780
0.9303,2006
0.9319667,1931
0.9336333,1944
0.9353,1999
0.9369667,1761
0.9386333,2074
0.9403,1907
0.9419667,2034
0.9436333,1680
0.9453,1669
0.9469666,1524
0.9486333,1469
0.9503,1644
0.9519666,1682
0.9536333,1422
0.9553,1168
0.9569666,1206
0.9586333,1352
0.9603,1095
0.9619667,989
0.9636334,961
0.9653,926
0.9669667,911
0.9686334,847
0.9703,825
0.9719667,820
0.9736333,860
0.9753,624
0.9769667,698
0.9786333,822
0.9803,658
0.9819667,595
0.9836333,511
0.9853,532
0.9869667,430
0.9886333,481
0.9903,508
0.9919667,522
0.9936333,402
0.9953,475
0.9969667,549
0.9986333,575
1.0003,511
1.001967,452
1.003633,529
1.0053,391
1.006967,457
1.008633,438
1.0103,465
1.011967,453
1.013633,440
1.0153,481
1.016967,523
1.018633,546
1.0203,436
1.021967,559
1.023633,492
1.0253,514
1.026967,480
1.028633,364
1.0303,594
1.031967,529
1.033633,659
1.0353,533
1.036967,574
1.038633,597
1.0403,467
1.041967,514
1.043633,552
1.0453,420
1.046967,485
1.048633,512
1.0503,515
1.051967,506
1.053633,497
1.0553,485
1.056967,473
1.058633,487
1.0603,443
1.061967,483
1.063633,490
1.0653,496
1.066967,541
1.068633,540
1.0703,540
1.071967,620
1.073633,420
1.0753,547
1.076967,560
1.078633,449
1.0803,513
1.081967,478
1.083633,444
1.0853,427
1.086967,411
1.088633,463
1.0903,597
1.091967,562
1.093633,424
1.0953,421
1.096967,720
1.098633,635
1.1003,443
1.101967,696
1.103633,507
1.1053,499
1.106967,547
1.108633,490
1.1103,434
1.111967,584
1.113633,589
1.1153,525
1.116967,575
1.118633,484
1.1203,593
1.121967,540
1.123633,487
1.1253,426
1.126967,471
1.128633,517
1.1303,474
1.131967,513
1.133633,553
1.1353,540
1.136967,556
1.138633,540
1.1403,577
1.141967,486
1.143633,443
1.1453,750
1.146967,731
1.148633,588
1.1503,614
1.151967,575
1.153633,608
1.1553,641
1.156967,431
1.158633,652
1.1603,478
1.161967,569
1.163633,709
1.1653,708
1.166967,702
1.168633,611
1.1703,557
1.171967,676
1.173633,618
1.1753,619
1.176967,621
1.178633,623
1.1803,626
1.181967,680
1.183633,734
1.1853,736
1.186967,700
1.188633,647
1.1903,666
1.191967,685
1.193633,594
1.1953,688
1.196967,711
1.198633,529
