"SampleName","A2Rd2_01-90"
"Target Mass 1",
"Column Name","IA-3 (3um, 4.6X100)"
"Channel","QDa 1: SIR Ch2"
0.00195,450
0.003616667,527
0.005283333,722
0.00695,903
0.008616666,831
0.01028333,830
0.01195,829
0.01361667,943
0.01528333,972
0.01695,944
0.01861667,860
0.02028333,935
0.02195,894
0.02361667,853
0.02528333,797
0.02695,811
0.02861667,825
0.03028333,846
0.03195,829
0.03361667,840
0.03528333,851
0.03695,883
0.03861667,854
0.04028333,825
0.04195,900
0.04361667,858
0.04528333,816
0.04695,820
0.04861667,910
0.05028334,905
0.05195,893
0.05361667,881
0.05528333,858
0.05695,835
0.05861667,747
0.06028333,945
0.06195,1034
0.06361666,987
0.06528334,815
0.06695,794
0.06861667,978
0.07028333,828
0.07195,823
0.07361667,747
0.07528333,816
0.07695,717
0.07861666,759
0.08028334,800
0.08195,812
0.08361667,804
0.08528333,807
0.08695,668
0.08861667,901
0.09028333,632
0.09195,866
0.09361666,817
0.09528334,1026
0.09695,959
0.09861667,888
0.1002833,743
0.10195,824
0.1036167,865
0.1052833,746
0.10695,860
0.1086167,945
0.1102833,865
0.11195,910
0.1136167,853
0.1152833,884
0.11695,879
0.1186167,874
0.1202833,785
0.12195,956
0.1236167,991
0.1252833,1026
0.12695,908
0.1286167,877
0.1302833,882
0.13195,857
0.1336167,910
0.1352833,967
0.13695,763
0.1386167,870
0.1403,958
0.14195,857
0.1436167,785
0.1452833,1017
0.14695,926
0.1486167,822
0.1502833,902
0.15195,957
0.1536167,829
0.1552833,867
0.15695,996
0.1586167,968
0.1602833,734
0.16195,676
0.1636167,853
0.1652833,815
0.16695,779
0.1686167,804
0.1702833,836
0.17195,868
0.1736167,877
0.1753,861
0.17695,846
0.1786167,854
0.1802833,816
0.18195,816
0.1836167,809
0.1852833,803
0.18695,868
0.1886333,856
0.1902833,845
0.19195,858
0.1936333,871
0.1952833,876
0.19695,744
0.1986167,860
0.2002833,885
0.20195,716
0.2036167,806
0.2052833,861
0.20695,917
0.2086167,889
0.2103,928
0.21195,968
0.2136167,853
0.2152833,872
0.21695,882
0.2186167,892
0.2202833,956
0.22195,1020
0.2236333,1112
0.2252833,1116
0.22695,1096
0.2286333,882
0.2302833,1292
0.23195,1178
0.2336167,1191
0.2352833,1037
0.2369667,1096
0.2386333,1007
0.2402833,1015
0.24195,1023
0.2436167,1379
0.2453,1346
0.24695,1090
0.2486167,1236
0.2502833,866
0.2519667,1075
0.2536333,1259
0.2552833,862
0.25695,1267
0.2586167,1052
0.2602833,1006
0.26195,1038
0.2636333,1088
0.2652833,1121
0.2669667,883
0.2686333,967
0.2703,997
0.27195,1026
0.2736167,1056
0.2753,1026
0.27695,995
0.2786167,922
0.2803,1065
0.28195,1030
0.2836333,979
0.2853,914
0.2869667,1011
0.2886333,983
0.2902833,852
0.29195,971
0.2936167,1090
0.2952833,1103
0.29695,1029
0.2986333,1026
0.3003,885
0.3019667,939
0.3036333,830
0.3053,1134
0.3069667,1183
0.3086333,1241
0.3103,1172
0.3119667,1242
0.3136333,1144
0.3153,1286
0.3169667,1258
0.3186333,1313
0.3203,913
0.3219667,1387
0.3236333,1193
0.3253,1378
0.3269667,1236
0.3286333,1166
0.3303,1224
0.3319667,1006
0.3336333,1074
0.3353,1150
0.3369667,1226
0.3386333,1238
0.3403,1251
0.3419667,1411
0.3436333,1392
0.3453,1467
0.3469667,1325
0.3486333,1528
0.3503,1221
0.3519667,1256
0.3536333,1029
0.3553,1151
0.3569667,1273
0.3586333,1364
0.3603,1504
0.3619667,1614
0.3636333,1781
0.3653,2899
0.3669667,3717
0.3686333,4077
0.3703,4246
0.3719667,4210
0.3736333,4173
0.3753,4213
0.3769667,4253
0.3786333,3948
0.3803,3908
0.3819667,3381
0.3836333,2623
0.3853,1801
0.3869667,1675
0.3886333,1402
0.3903,1048
0.3919667,860
0.3936333,781
0.3953,634
0.3969667,670
0.3986333,471
0.4003,430
0.4019667,535
0.4036333,544
0.4053,553
0.4069667,598
0.4086333,789
0.4103,762
0.4119667,614
0.4136333,685
0.4153,756
0.4169667,719
0.4186333,731
0.4203,649
0.4219667,692
0.4236333,681
0.4253,671
0.4269667,927
0.4286333,887
0.4303,694
0.4319667,933
0.4336333,1017
0.4353,866
0.4369667,1052
0.4386333,796
0.4403,1276
0.4419667,1126
0.4436333,1158
0.4453,1069
0.4469667,1053
0.4486333,1036
0.4503,1179
0.4519667,1322
0.4536333,1282
0.4553,1241
0.4569667,1149
0.4586333,1349
0.4603,1272
0.4619667,1281
0.4636333,1290
0.4653,1228
0.4669667,1165
0.4686333,1226
0.4703,1287
0.4719667,1363
0.4736333,1318
0.4753,1274
0.4769667,1334
0.4786333,1395
0.4803,1124
0.4819667,1142
0.4836333,1207
0.4853,1272
0.4869667,1282
0.4886333,1178
0.4903,1073
0.4919667,1180
0.4936333,1287
0.4953,1269
0.4969667,984
0.4986333,1356
0.5003,1105
0.5019667,1256
0.5036333,1030
0.5053,1058
0.5069667,989
0.5086333,1046
0.5103,1065
0.5119666,1002
0.5136333,940
0.5153,1034
0.5169666,985
0.5186333,997
0.5203,1009
0.5219667,1083
0.5236334,1156
0.5253,845
0.5269667,981
0.5286334,1056
0.5303,926
0.5319667,897
0.5336334,867
0.5353,947
0.5369667,1005
0.5386333,1075
0.5403,1000
0.5419667,1009
0.5436333,987
0.5453,984
0.5469667,1001
0.5486333,1017
0.5503,910
0.5519667,926
0.5536333,941
0.5553,925
0.5569667,999
0.5586333,997
0.5603,995
0.5619667,833
0.5636333,782
0.5653,955
0.5669667,1065
0.5686333,1004
0.5703,966
0.5719666,928
0.5736333,812
0.5753,994
0.5769666,877
0.5786333,960
0.5803,975
0.5819666,1177
0.5836333,1103
0.5853,986
0.5869667,905
0.5886334,977
0.5903,962
0.5919667,1034
0.5936334,1185
0.5953,1132
0.5969667,893
0.5986333,1093
0.6003,1007
0.6019667,967
0.6036333,1011
0.6053,910
0.6069667,994
0.6086333,1012
0.6103,928
0.6119667,844
0.6136333,953
0.6153,882
0.6169667,811
0.6186333,1035
0.6203,999
0.6219667,1077
0.6236333,1085
0.6253,1204
0.6269667,849
0.6286333,826
0.6303,1060
0.6319667,806
0.6336333,842
0.6353,1023
0.6369666,776
0.6386333,883
0.6403,816
0.6419666,839
0.6436333,903
0.6453,968
0.6469667,909
0.6486334,979
0.6503,942
0.6519667,906
0.6536334,828
0.6553,1040
0.6569667,970
0.6586334,798
0.6603,795
0.6619667,847
0.6636333,973
0.6653,962
0.6669667,906
0.6686333,925
0.6703,1057
0.6719667,700
0.6736333,746
0.6753,932
0.6769667,964
0.6786333,952
0.6803,1018
0.6819667,687
0.6836333,1028
0.6853,708
0.6869667,1101
0.6886333,828
0.6903,785
0.6919667,849
0.6936333,880
0.6953,661
0.6969666,849
0.6986333,745
0.7003,734
0.7019666,774
0.7036333,814
0.7053,854
0.7069666,893
0.7086333,689
0.7103,1025
0.7119667,873
0.7136334,879
0.7153,909
0.7169667,801
0.7186334,966
0.7203,802
0.7219667,804
0.7236333,941
0.7253,988
0.7269667,916
0.7286333,952
0.7303,835
0.7319667,834
0.7336333,1054
0.7353,996
0.7369667,821
0.7386333,884
0.7403,748
0.7419667,873
0.7436333,872
0.7453,850
0.7469667,827
0.7486333,805
0.7503,918
0.7519667,865
0.7536333,812
0.7553,854
0.7569667,896
0.7586333,891
0.7603,963
0.7619666,613
0.7636333,848
0.7653,748
0.7669666,822
0.7686333,945
0.7703,973
0.7719667,1006
0.7736334,881
0.7753,751
0.7769667,934
0.7786334,978
0.7803,861
0.7819667,743
0.7836334,891
0.7853,811
0.7869667,779
0.7886333,963
0.7903,896
0.7919667,939
0.7936333,746
0.7953,1026
0.7969667,1045
0.7986333,957
0.8003,1000
0.8019667,886
0.8036333,924
0.8053,947
0.8069667,955
0.8086333,963
0.8103,994
0.8119667,942
0.8136333,889
0.8153,915
0.8169667,823
0.8186333,971
0.8203,800
0.8219666,941
0.8236333,828
0.8253,715
0.8269666,1053
0.8286333,911
0.8303,779
0.8319666,684
0.8336333,898
0.8353,853
0.8369667,875
0.8386334,815
0.8403,827
0.8419667,839
0.8436334,928
0.8453,912
0.8469667,797
0.8486333,830
0.8503,862
0.8519667,894
0.8536333,633
0.8553,1057
0.8569667,855
0.8586333,752
0.8603,971
0.8619667,863
0.8636333,760
0.8653,622
0.8669667,919
0.8686333,784
0.8703,768
0.8719667,751
0.8736333,541
0.8753,799
0.8769667,817
0.8786333,952
0.8803,916
0.8819667,880
0.8836333,920
0.8853,959
0.8869666,1259
0.8886333,1484
0.8903,1251
0.8919666,1250
0.8936333,1381
0.8953,1019
0.8969667,1263
0.8986334,1256
0.9003,1013
0.9019667,1136
0.9036334,1126
0.9053,1090
0.9069667,1166
0.9086334,1059
0.9103,1164
0.9119667,1035
0.9136333,989
0.9153,1055
0.9169667,1075
0.9186333,1122
0.9203,1066
0.9219667,1010
0.9236333,1044
0.9253,1078
0.9269667,1104
0.9286333,1159
0.9303,1147
0.9319667,1135
0.9336333,1106
0.9353,1141
0.9369667,1131
0.9386333,1122
0.9403,1174
0.9419667,1184
0.9436333,1159
0.9453,1197
0.9469666,1162
0.9486333,1126
0.9503,957
0.9519666,1130
0.9536333,1007
0.9553,981
0.9569666,1021
0.9586333,980
0.9603,939
0.9619667,941
0.9636334,1046
0.9653,1136
0.9669667,1057
0.9686334,643
0.9703,1027
0.9719667,958
0.9736333,1029
0.9753,721
0.9769667,947
0.9786333,858
0.9803,807
0.9819667,805
0.9836333,769
0.9853,873
0.9869667,691
0.9886333,771
0.9903,850
0.9919667,817
0.9936333,765
0.9953,712
0.9969667,663
0.9986333,946
1.0003,965
1.001967,825
1.003633,737
1.0053,821
1.006967,737
1.008633,841
1.0103,963
1.011967,903
1.013633,765
1.0153,807
1.016967,803
1.018633,799
1.0203,929
1.021967,872
1.023633,816
1.0253,787
1.026967,759
1.028633,794
1.0303,819
1.031967,852
1.033633,884
1.0353,706
1.036967,822
1.038633,849
1.0403,767
1.041967,886
1.043633,762
1.0453,753
1.046967,904
1.048633,901
1.0503,861
1.051967,891
1.053633,922
1.0553,916
1.056967,910
1.058633,867
1.0603,883
1.061967,900
1.063633,954
1.0653,802
1.066967,821
1.068633,749
1.0703,781
1.071967,803
1.073633,848
1.0753,821
1.076967,794
1.078633,896
1.0803,949
1.081967,713
1.083633,901
1.0853,902
1.086967,789
1.088633,834
1.0903,851
1.091967,884
1.093633,915
1.0953,988
1.096967,607
1.098633,859
1.1003,974
1.101967,727
1.103633,806
1.1053,893
1.106967,797
1.108633,839
1.1103,883
1.111967,919
1.113633,668
1.1153,720
1.116967,862
1.118633,790
1.1203,841
1.121967,893
1.123633,837
1.1253,781
1.126967,822
1.128633,862
1.1303,837
1.131967,821
1.133633,817
1.1353,814
1.136967,741
1.138633,816
1.1403,827
1.141967,834
1.143633,841
1.1453,758
1.146967,740
1.148633,678
1.1503,714
1.151967,750
1.153633,791
1.1553,874
1.156967,828
1.158633,852
1.1603,778
1.161967,799
1.163633,819
1.1653,862
1.166967,905
1.168633,936
1.1703,825
1.171967,876
1.173633,999
1.1753,707
1.176967,969
1.178633,807
1.1803,942
1.181967,792
1.183633,981
1.1853,689
1.186967,849
1.188633,845
1.1903,927
1.191967,776
1.193633,980
1.1953,822
1.196967,1039
1.198633,881
