"SampleName","A2Rd2_01-19"
"Target Mass 1",
"Column Name","IA-3 (3um, 4.6X100)"
"Channel","QDa 1: SIR Ch2"
0.00195,533
0.003616667,784
0.005283333,682
0.00695,907
0.008616666,931
0.01028333,1120
0.01195,1104
0.01361667,681
0.01528333,1003
0.01695,1206
0.01861667,1058
0.02028333,1075
0.02195,1044
0.02361667,1051
0.02528333,994
0.02695,968
0.02861667,906
0.03028333,834
0.03195,852
0.03361667,861
0.03528333,861
0.03695,862
0.03861667,978
0.04028333,926
0.04195,874
0.04361667,841
0.04528333,807
0.04695,969
0.04861667,976
0.05028334,869
0.05195,1062
0.05361667,826
0.05528333,799
0.05695,1039
0.05861667,749
0.06028333,872
0.06195,775
0.06361666,781
0.06528334,787
0.06695,935
0.06861667,884
0.07028333,832
0.07195,972
0.07361667,929
0.07528333,782
0.07695,636
0.07861666,769
0.08028334,901
0.08195,942
0.08361667,832
0.08528333,945
0.08695,926
0.08861667,907
0.09028333,816
0.09195,861
0.09361666,928
0.09528334,837
0.09695,856
0.09861667,875
0.1002833,765
0.10195,655
0.1036167,591
0.1052833,713
0.10695,868
0.1086167,963
0.1102833,868
0.11195,912
0.1136167,949
0.1152833,792
0.11695,745
0.1186167,693
0.1202833,860
0.12195,820
0.1236167,780
0.1252833,762
0.12695,881
0.1286167,892
0.1302833,915
0.13195,699
0.1336167,947
0.1352833,972
0.13695,816
0.1386167,1027
0.1402833,956
0.14195,760
0.1436167,709
0.1452833,874
0.14695,796
0.1486167,907
0.1502833,868
0.15195,829
0.1536167,832
0.1552833,834
0.15695,740
0.1586167,887
0.1602833,918
0.16195,905
0.1636167,848
0.1652833,952
0.16695,883
0.1686167,904
0.1702833,926
0.17195,837
0.1736167,942
0.1752833,846
0.17695,789
0.1786167,924
0.1802833,826
0.18195,759
0.1836167,847
0.1852833,719
0.18695,692
0.1886167,720
0.1902833,748
0.19195,834
0.1936167,938
0.1952833,916
0.19695,1002
0.1986167,780
0.2002833,1064
0.20195,831
0.2036167,820
0.2052833,924
0.20695,954
0.2086167,869
0.2102833,959
0.21195,1004
0.2136167,992
0.2152833,981
0.21695,970
0.2186167,1023
0.2202833,1037
0.22195,1051
0.2236167,1001
0.2252833,977
0.22695,1049
0.2286167,1041
0.2302833,1033
0.23195,1142
0.2336167,1044
0.2352833,947
0.23695,1138
0.2386167,1168
0.2402833,1224
0.24195,1224
0.2436167,1360
0.2452833,1028
0.24695,1004
0.2486167,789
0.2502833,965
0.25195,999
0.2536167,1033
0.2552833,1166
0.25695,1159
0.2586167,1108
0.2602833,1088
0.26195,1227
0.2636167,887
0.2653,942
0.26695,1043
0.2686167,1172
0.2702833,1139
0.27195,1014
0.2736167,1132
0.2752833,1002
0.27695,1198
0.2786167,1191
0.2803,1172
0.28195,954
0.2836167,932
0.2852833,890
0.28695,999
0.2886167,1108
0.2902833,1206
0.29195,1150
0.2936167,1200
0.2952833,1159
0.29695,1053
0.2986333,1241
0.3002833,956
0.30195,1048
0.3036333,1102
0.3052833,921
0.30695,1014
0.3086167,1167
0.3102833,993
0.31195,1285
0.3136167,1235
0.3153,1313
0.31695,982
0.3186167,1179
0.3202833,1180
0.32195,1124
0.3236167,1068
0.3252833,1096
0.32695,1093
0.3286167,1089
0.3302833,1050
0.33195,1011
0.3336333,1213
0.3353,1226
0.33695,1264
0.3386333,1302
0.3402833,1308
0.34195,1313
0.3436167,1308
0.3452833,1304
0.3469667,1307
0.3486167,1309
0.3503,1227
0.35195,1144
0.3536333,1155
0.3552833,1189
0.35695,1224
0.3586167,1231
0.3602833,1455
0.36195,1394
0.3636333,2381
0.3653,4155
0.3669667,4475
0.3686333,5142
0.3703,4921
0.3719667,4334
0.3736333,2802
0.3752833,2589
0.37695,2363
0.3786333,1632
0.3803,1294
0.38195,1152
0.3836167,930
0.3853,871
0.38695,777
0.3886333,670
0.3902833,582
0.3919667,587
0.3936167,731
0.3953,818
0.3969667,719
0.3986167,892
0.4002833,1161
0.40195,1251
0.4036333,1273
0.4053,1295
0.4069667,1315
0.4086333,1381
0.4102833,1135
0.4119667,1169
0.4136333,1063
0.4153,1079
0.41695,773
0.4186167,950
0.4203,831
0.4219667,966
0.4236333,993
0.4253,1014
0.4269667,1034
0.4286333,1268
0.4303,1346
0.4319667,1235
0.4336333,1412
0.4353,1109
0.4369667,1362
0.4386333,1330
0.4403,1639
0.4419667,1632
0.4436333,1359
0.4453,1648
0.4469667,1819
0.4486333,1836
0.4503,1853
0.4519667,1755
0.4536333,1788
0.4553,1573
0.4569667,1821
0.4586333,2010
0.4603,1820
0.4619667,2082
0.4636333,2021
0.4653,1937
0.4669667,2046
0.4686333,2016
0.4703,1986
0.4719667,1738
0.4736333,2029
0.4753,1451
0.4769667,1575
0.4786333,1373
0.4803,1591
0.4819667,1326
0.4836333,1396
0.4853,1384
0.4869667,1414
0.4886333,1444
0.4903,1302
0.4919667,1294
0.4936333,1352
0.4953,1270
0.4969667,1282
0.4986333,1315
0.5003,1173
0.5019667,1211
0.5036333,1281
0.5053,1211
0.5069667,1014
0.5086333,1026
0.5103,1009
0.5119666,1045
0.5136333,1058
0.5153,1072
0.5169666,1059
0.5186333,1069
0.5203,1079
0.5219667,922
0.5236334,1043
0.5253,935
0.5269667,1023
0.5286334,878
0.5303,1059
0.5319667,1027
0.5336334,1176
0.5353,1146
0.5369667,1069
0.5386333,1021
0.5403,1074
0.5419667,989
0.5436333,1000
0.5453,1086
0.5469667,1173
0.5486333,1140
0.5503,1107
0.5519667,1029
0.5536333,993
0.5553,998
0.5569667,1002
0.5586333,1010
0.5603,1008
0.5619667,1047
0.5636333,1085
0.5653,951
0.5669667,961
0.5686333,971
0.5703,961
0.5719666,952
0.5736333,982
0.5753,992
0.5769666,895
0.5786333,956
0.5803,1074
0.5819666,1016
0.5836333,958
0.5853,1079
0.5869667,1256
0.5886334,1218
0.5903,1233
0.5919667,1209
0.5936334,1000
0.5953,1213
0.5969667,1264
0.5986333,938
0.6003,1057
0.6019667,1132
0.6036333,1183
0.6053,1171
0.6069667,1033
0.6086333,985
0.6103,1066
0.6119667,1064
0.6136333,1047
0.6153,1030
0.6169667,1108
0.6186333,1153
0.6203,953
0.6219667,896
0.6236333,1123
0.6253,1226
0.6269667,1186
0.6286333,958
0.6303,1236
0.6319667,1141
0.6336333,1055
0.6353,999
0.6369666,1058
0.6386333,1117
0.6403,1199
0.6419666,1229
0.6436333,1193
0.6453,869
0.6469667,1073
0.6486334,1100
0.6503,975
0.6519667,1022
0.6536334,811
0.6553,953
0.6569667,1164
0.6586334,1142
0.6603,1008
0.6619667,929
0.6636333,984
0.6653,820
0.6669667,1040
0.6686333,1022
0.6703,772
0.6719667,1068
0.6736333,1100
0.6753,856
0.6769667,842
0.6786333,897
0.6803,915
0.6819667,919
0.6836333,923
0.6853,963
0.6869667,932
0.6886333,902
0.6903,971
0.6919667,895
0.6936333,927
0.6953,878
0.6969666,829
0.6986333,1020
0.7003,1057
0.7019666,1055
0.7036333,871
0.7053,1014
0.7069666,920
0.7086333,938
0.7103,964
0.7119667,819
0.7136334,895
0.7153,853
0.7169667,930
0.7186334,981
0.7203,1027
0.7219667,1032
0.7236333,898
0.7253,887
0.7269667,1088
0.7286333,808
0.7303,910
0.7319667,862
0.7336333,869
0.7353,688
0.7369667,1062
0.7386333,1023
0.7403,893
0.7419667,857
0.7436333,988
0.7453,910
0.7469667,818
0.7486333,921
0.7503,927
0.7519667,933
0.7536333,882
0.7553,895
0.7569667,763
0.7586333,861
0.7603,1055
0.7619666,1052
0.7636333,716
0.7653,842
0.7669666,864
0.7686333,820
0.7703,834
0.7719667,849
0.7736334,818
0.7753,786
0.7769667,923
0.7786334,915
0.7803,906
0.7819667,882
0.7836334,858
0.7853,779
0.7869667,798
0.7886333,876
0.7903,846
0.7919667,837
0.7936333,827
0.7953,854
0.7969667,882
0.7986333,900
0.8003,871
0.8019667,834
0.8036333,798
0.8053,837
0.8069667,877
0.8086333,825
0.8103,773
0.8119667,636
0.8136333,979
0.8153,965
0.8169667,854
0.8186333,1119
0.8203,1037
0.8219666,969
0.8236333,868
0.8253,957
0.8269666,961
0.8286333,965
0.8303,830
0.8319666,886
0.8336333,988
0.8353,1027
0.8369667,984
0.8386334,940
0.8403,965
0.8419667,841
0.8436334,892
0.8453,947
0.8469667,1002
0.8486333,771
0.8503,896
0.8519667,901
0.8536333,969
0.8553,888
0.8569667,936
0.8586333,996
0.8603,1018
0.8619667,1134
0.8636333,1200
0.8653,1422
0.8669667,1485
0.8686333,1621
0.8703,1517
0.8719667,1560
0.8736333,1602
0.8753,1726
0.8769667,1640
0.8786333,1554
0.8803,1717
0.8819667,1448
0.8836333,1714
0.8853,1639
0.8869666,1361
0.8886333,1330
0.8903,1546
0.8919666,1558
0.8936333,1548
0.8953,1320
0.8969667,1572
0.8986334,1647
0.9003,1502
0.9019667,1399
0.9036334,1630
0.9053,1812
0.9069667,1685
0.9086334,1618
0.9103,1539
0.9119667,1751
0.9136333,1684
0.9153,1591
0.9169667,1401
0.9186333,1506
0.9203,1546
0.9219667,1627
0.9236333,1601
0.9253,1679
0.9269667,1770
0.9286333,1494
0.9303,1617
0.9319667,1684
0.9336333,1591
0.9353,1373
0.9369667,1478
0.9386333,1488
0.9403,1405
0.9419667,1196
0.9436333,1561
0.9453,1372
0.9469666,1447
0.9486333,1397
0.9503,1443
0.9519666,1318
0.9536333,1235
0.9553,1177
0.9569666,1119
0.9586333,1062
0.9603,1077
0.9619667,1150
0.9636334,1236
0.9653,926
0.9669667,1024
0.9686334,1190
0.9703,920
0.9719667,1022
0.9736333,965
0.9753,983
0.9769667,1001
0.9786333,1062
0.9803,816
0.9819667,917
0.9836333,967
0.9853,580
0.9869667,783
0.9886333,911
0.9903,1076
0.9919667,932
0.9936333,954
0.9953,915
0.9969667,1054
0.9986333,995
1.0003,936
1.001967,1034
1.003633,866
1.0053,874
1.006967,906
1.008633,886
1.0103,823
1.011967,926
1.013633,889
1.0153,887
1.016967,826
1.018633,838
1.0203,850
1.021967,927
1.023633,942
1.0253,956
1.026967,953
1.028633,950
1.0303,902
1.031967,925
1.033633,719
1.0353,859
1.036967,829
1.038633,960
1.0403,952
1.041967,771
1.043633,781
1.0453,791
1.046967,931
1.048633,1032
1.0503,1029
1.051967,909
1.053633,936
1.0553,821
1.056967,900
1.058633,669
1.0603,911
1.061967,780
1.063633,825
1.0653,771
1.066967,812
1.068633,852
1.0703,797
1.071967,742
1.073633,648
1.0753,762
1.076967,876
1.078633,810
1.0803,904
1.081967,980
1.083633,931
1.0853,711
1.086967,809
1.088633,823
1.0903,936
1.091967,920
1.093633,904
1.0953,938
1.096967,950
1.098633,922
1.1003,1026
1.101967,825
1.103633,1016
1.1053,853
1.106967,794
1.108633,880
1.1103,914
1.111967,866
1.113633,818
1.1153,939
1.116967,707
1.118633,883
1.1203,802
1.121967,828
1.123633,846
1.1253,1031
1.126967,989
1.128633,858
1.1303,822
1.131967,933
1.133633,704
1.1353,843
1.136967,919
1.138633,1018
1.1403,938
1.141967,814
1.143633,773
1.1453,919
1.146967,831
1.148633,854
1.1503,848
1.151967,801
1.153633,866
1.1553,833
1.156967,799
1.158633,848
1.1603,821
1.161967,795
1.163633,922
1.1653,958
1.166967,894
1.168633,932
1.1703,661
1.171967,656
1.173633,827
1.1753,824
1.176967,821
1.178633,570
1.1803,845
1.181967,895
1.183633,981
1.1853,911
1.186967,700
1.188633,853
1.1903,929
1.191967,869
1.193633,823
1.1953,883
1.196967,871
1.198633,860
