"SampleName","A2Rd2_01-52"
"Target Mass 1",
"Column Name","IA-3 (3um, 4.6X100)"
"Channel","QDa 1: SIR Ch2"
0.00195,811
0.003616667,727
0.005283333,709
0.00695,779
0.008616666,854
0.01028333,929
0.01195,934
0.01361667,938
0.01528333,826
0.01695,873
0.01861667,919
0.02028333,952
0.02195,995
0.02361667,1024
0.02528333,1023
0.02695,923
0.02861667,929
0.03028333,1036
0.03195,849
0.03361667,764
0.03528333,812
0.03695,817
0.03861667,974
0.04028333,1053
0.04195,1057
0.04361667,991
0.04528333,925
0.04695,1001
0.04861667,972
0.05028334,902
0.05195,870
0.05361667,891
0.05528333,1006
0.05695,1013
0.05861667,973
0.06028333,902
0.06195,832
0.06361666,1093
0.06528334,1064
0.06695,930
0.06861667,945
0.07028333,940
0.07195,917
0.07361667,894
0.07528333,933
0.07695,932
0.07861666,932
0.08028334,926
0.08195,761
0.08361667,1091
0.08528333,958
0.08695,831
0.08861667,905
0.09028333,973
0.09195,772
0.09361666,752
0.09528334,1024
0.09695,942
0.09861667,869
0.1002833,813
0.10195,845
0.1036167,877
0.1052833,1057
0.10695,1027
0.1086167,779
0.1102833,820
0.11195,1150
0.1136167,998
0.1152833,783
0.11695,1078
0.1186167,1012
0.1202833,904
0.12195,930
0.1236167,943
0.1252833,774
0.12695,1007
0.1286167,969
0.1302833,791
0.13195,967
0.1336167,859
0.1352833,927
0.13695,1036
0.1386167,821
0.1402833,860
0.14195,876
0.1436167,1047
0.1452833,1046
0.14695,994
0.1486167,846
0.1502833,892
0.15195,898
0.1536167,936
0.1552833,898
0.15695,1029
0.1586167,1087
0.1602833,845
0.16195,969
0.1636167,1009
0.1652833,863
0.16695,992
0.1686167,838
0.1702833,895
0.17195,852
0.1736167,889
0.1752833,792
0.17695,852
0.1786167,913
0.1802833,1156
0.18195,1093
0.1836167,888
0.1852833,1180
0.18695,888
0.1886167,838
0.1902833,1214
0.19195,670
0.1936167,873
0.1952833,839
0.19695,924
0.1986167,895
0.2002833,866
0.20195,801
0.2036167,987
0.2052833,1068
0.20695,1111
0.2086167,1181
0.2102833,896
0.21195,1095
0.2136167,1239
0.2152833,1130
0.21695,958
0.2186167,834
0.2202833,1142
0.22195,912
0.2236167,1159
0.2252833,928
0.22695,1281
0.2286167,1226
0.2302833,1092
0.23195,1086
0.2336167,1098
0.2352833,1094
0.23695,1109
0.2386167,1117
0.2402833,1138
0.24195,1159
0.2436167,1252
0.2452833,1236
0.24695,1291
0.2486167,1183
0.2502833,1039
0.25195,1215
0.2536167,1091
0.2552833,1114
0.25695,1224
0.2586167,1073
0.2602833,1041
0.26195,1125
0.2636333,934
0.2652833,1174
0.26695,913
0.2686167,1093
0.2702833,1202
0.27195,1124
0.2736167,1161
0.2752833,1124
0.27695,1165
0.2786167,971
0.2803,1120
0.28195,1187
0.2836167,1059
0.2852833,998
0.28695,1043
0.2886167,977
0.2902833,980
0.29195,1133
0.2936167,1143
0.2952833,1168
0.29695,1240
0.2986333,1311
0.3002833,849
0.30195,1272
0.3036167,1056
0.3052833,1109
0.30695,1316
0.3086167,1076
0.3102833,1314
0.31195,1103
0.3136167,1380
0.3153,1212
0.31695,1211
0.3186167,1203
0.3202833,1198
0.32195,1284
0.3236167,1107
0.3252833,1084
0.32695,1322
0.3286167,1147
0.3302833,1294
0.33195,1407
0.3336333,1455
0.3352833,1375
0.33695,1246
0.3386167,1371
0.3402833,1228
0.34195,1195
0.3436167,1149
0.3453,1174
0.34695,1200
0.3486167,1210
0.3503,1198
0.35195,1185
0.3536333,1393
0.3553,1347
0.35695,1470
0.3586167,1388
0.3603,1360
0.3619667,1332
0.3636167,1600
0.3652833,2918
0.36695,3866
0.3686333,4516
0.3702833,4766
0.3719667,4736
0.3736333,4799
0.3752833,3705
0.3769667,2798
0.3786333,2339
0.3803,1705
0.38195,1498
0.3836167,1132
0.3853,807
0.38695,723
0.3886333,572
0.3902833,570
0.3919667,471
0.3936333,499
0.3953,426
0.3969667,478
0.3986333,410
0.4003,496
0.4019667,639
0.4036333,590
0.4053,770
0.4069667,894
0.4086333,869
0.4103,1015
0.4119667,1158
0.4136333,1068
0.4153,1197
0.4169667,952
0.4186333,1065
0.4203,890
0.4219667,1164
0.4236333,1132
0.4253,1042
0.4269667,1039
0.4286333,1035
0.4303,1082
0.4319667,1261
0.4336333,1287
0.4353,1113
0.4369667,1038
0.4386333,1249
0.4403,1282
0.4419667,1329
0.4436333,1334
0.4453,1470
0.4469667,1544
0.4486333,1554
0.4503,1503
0.4519667,1509
0.4536333,1475
0.4553,1637
0.4569667,1778
0.4586333,1905
0.4603,1704
0.4619667,1604
0.4636333,1638
0.4653,1614
0.4669667,1589
0.4686333,1734
0.4703,1621
0.4719667,1507
0.4736333,1602
0.4753,1605
0.4769667,1607
0.4786333,1560
0.4803,1512
0.4819667,1477
0.4836333,1298
0.4853,1446
0.4869667,1513
0.4886333,1501
0.4903,1350
0.4919667,1143
0.4936333,1231
0.4953,1071
0.4969667,1182
0.4986333,1120
0.5003,1028
0.5019667,1074
0.5036333,1031
0.5053,1100
0.5069667,1069
0.5086333,1132
0.5103,1082
0.5119666,1033
0.5136333,1082
0.5153,1108
0.5169666,863
0.5186333,871
0.5203,1189
0.5219667,1046
0.5236334,867
0.5253,1127
0.5269667,1134
0.5286334,1072
0.5303,1032
0.5319667,1050
0.5336334,1068
0.5353,1122
0.5369667,1129
0.5386333,1137
0.5403,1147
0.5419667,1158
0.5436333,887
0.5453,1247
0.5469667,1320
0.5486333,930
0.5503,922
0.5519667,1108
0.5536333,1080
0.5553,1056
0.5569667,1033
0.5586333,1075
0.5603,1118
0.5619667,1138
0.5636333,890
0.5653,978
0.5669667,934
0.5686333,788
0.5703,1018
0.5719666,984
0.5736333,798
0.5753,951
0.5769666,1132
0.5786333,1011
0.5803,901
0.5819666,985
0.5836333,908
0.5853,880
0.5869667,1011
0.5886334,1142
0.5903,1055
0.5919667,868
0.5936334,985
0.5953,894
0.5969667,977
0.5986333,965
0.6003,847
0.6019667,952
0.6036333,1008
0.6053,1059
0.6069667,1024
0.6086333,964
0.6103,1005
0.6119667,1046
0.6136333,993
0.6153,1094
0.6169667,1158
0.6186333,1139
0.6203,1032
0.6219667,1058
0.6236333,1154
0.6253,1089
0.6269667,1300
0.6286333,1300
0.6303,1364
0.6319667,1265
0.6336333,1383
0.6353,1181
0.6369666,1322
0.6386333,1290
0.6403,1194
0.6419666,1170
0.6436333,1155
0.6453,1178
0.6469667,1202
0.6486334,1221
0.6503,1212
0.6519667,1203
0.6536334,1226
0.6553,1248
0.6569667,1087
0.6586334,1054
0.6603,1035
0.6619667,1127
0.6636333,961
0.6653,862
0.6669667,1007
0.6686333,1068
0.6703,908
0.6719667,923
0.6736333,1055
0.6753,962
0.6769667,1113
0.6786333,1290
0.6803,1302
0.6819667,1408
0.6836333,1462
0.6853,1556
0.6869667,1650
0.6886333,2448
0.6903,2875
0.6919667,3039
0.6936333,4168
0.6953,4660
0.6969666,4588
0.6986333,5778
0.7003,6945
0.7019666,6896
0.7036333,7887
0.7053,8864
0.7069666,9428
0.7086333,10832
0.7103,10856
0.7119667,11328
0.7136334,11908
0.7153,12356
0.7169667,12676
0.7186334,11964
0.7203,12160
0.7219667,11312
0.7236333,10684
0.7253,9256
0.7269667,8396
0.7286333,8042
0.7303,6814
0.7319667,6564
0.7336333,5391
0.7353,4527
0.7369667,3787
0.7386333,3504
0.7403,2978
0.7419667,2938
0.7436333,2442
0.7453,2507
0.7469667,2293
0.7486333,2069
0.7503,1690
0.7519667,1501
0.7536333,1528
0.7553,1607
0.7569667,1261
0.7586333,1309
0.7603,1148
0.7619666,1111
0.7636333,1177
0.7653,1262
0.7669666,1270
0.7686333,1279
0.7703,1242
0.7719667,1340
0.7736334,1327
0.7753,1370
0.7769667,1430
0.7786334,1692
0.7803,1659
0.7819667,1749
0.7836334,2021
0.7853,2491
0.7869667,2593
0.7886333,3341
0.7903,3585
0.7919667,4592
0.7936333,5555
0.7953,6695
0.7969667,6977
0.7986333,8588
0.8003,9764
0.8019667,11408
0.8036333,12704
0.8053,14116
0.8069667,14888
0.8086333,15880
0.8103,17532
0.8119667,18180
0.8136333,19816
0.8153,20132
0.8169667,20788
0.8186333,21636
0.8203,22288
0.8219666,21992
0.8236333,20808
0.8253,20664
0.8269666,19964
0.8286333,18192
0.8303,16376
0.8319666,15112
0.8336333,12640
0.8353,11692
0.8369667,10080
0.8386334,8852
0.8403,7481
0.8419667,6575
0.8436334,5789
0.8453,4816
0.8469667,4827
0.8486333,3914
0.8503,3424
0.8519667,2917
0.8536333,3005
0.8553,2737
0.8569667,2368
0.8586333,2057
0.8603,2159
0.8619667,1928
0.8636333,2092
0.8653,2086
0.8669667,2079
0.8686333,2405
0.8703,2611
0.8719667,2502
0.8736333,3057
0.8753,3022
0.8769667,3089
0.8786333,2725
0.8803,2639
0.8819667,2950
0.8836333,2411
0.8853,2569
0.8869666,2496
0.8886333,2440
0.8903,2384
0.8919666,2627
0.8936333,1981
0.8953,2235
0.8969667,2151
0.8986334,2279
0.9003,1878
0.9019667,2165
0.9036334,2184
0.9053,1982
0.9069667,2234
0.9086334,2005
0.9103,2281
0.9119667,2389
0.9136333,2197
0.9153,2081
0.9169667,1906
0.9186333,2167
0.9203,2002
0.9219667,2034
0.9236333,1779
0.9253,2219
0.9269667,2177
0.9286333,2292
0.9303,1943
0.9319667,2069
0.9336333,1930
0.9353,1761
0.9369667,1939
0.9386333,1856
0.9403,1960
0.9419667,1779
0.9436333,1681
0.9453,1623
0.9469666,1684
0.9486333,1746
0.9503,1699
0.9519666,1652
0.9536333,1644
0.9553,1853
0.9569666,1928
0.9586333,2243
0.9603,2823
0.9619667,2622
0.9636334,2858
0.9653,3319
0.9669667,4043
0.9686334,4430
0.9703,5559
0.9719667,6645
0.9736333,6999
0.9753,8288
0.9769667,9528
0.9786333,10548
0.9803,12148
0.9819667,13592
0.9836333,15124
0.9853,16956
0.9869667,19272
0.9886333,20212
0.9903,23728
0.9919667,24952
0.9936333,25564
0.9953,27600
0.9969667,29888
0.9986333,30916
1.0003,32588
1.001967,34416
1.003633,34864
1.0053,36704
1.006967,35056
1.008633,36512
1.0103,34480
1.011967,36512
1.013633,34016
1.0153,34480
1.016967,31024
1.018633,28992
1.0203,25668
1.021967,24232
1.023633,22456
1.0253,20064
1.026967,17740
1.028633,16640
1.0303,14424
1.031967,12640
1.033633,11920
1.0353,10480
1.036967,9708
1.038633,8972
1.0403,7915
1.041967,6958
1.043633,6711
1.0453,5799
1.046967,6348
1.048633,5496
1.0503,5419
1.051967,4967
1.053633,5013
1.0553,4899
1.056967,4782
1.058633,4749
1.0603,4743
1.061967,4737
1.063633,4342
1.0653,4471
1.066967,4323
1.068633,4498
1.0703,4732
1.071967,5129
1.073633,5161
1.0753,5131
1.076967,5163
1.078633,5195
1.0803,5863
1.081967,6109
1.083633,6227
1.0853,6154
1.086967,6895
1.088633,6686
1.0903,6476
1.091967,7531
1.093633,8504
1.0953,7857
1.096967,8736
1.098633,9636
1.1003,9284
1.101967,9556
1.103633,8612
1.1053,9080
1.106967,9204
1.108633,9752
1.1103,9408
1.111967,9772
1.113633,9096
1.1153,8572
1.116967,7606
1.118633,7509
1.1203,7493
1.121967,6807
1.123633,6976
1.1253,6159
1.126967,5672
1.128633,5488
1.1303,4876
1.131967,4408
1.133633,4260
1.1353,4040
1.136967,3690
1.138633,3522
1.1403,3612
1.141967,2660
1.143633,2910
1.1453,2572
1.146967,2661
1.148633,2576
1.1503,2310
1.151967,2412
1.153633,2181
1.1553,2183
1.156967,2009
1.158633,1869
1.1603,1700
1.161967,1850
1.163633,1597
1.1653,1567
1.166967,1452
1.168633,1656
1.1703,1570
1.171967,1550
1.173633,1580
1.1753,1282
1.176967,1400
1.178633,1259
1.1803,1257
1.181967,1339
1.183633,1421
1.1853,1491
1.186967,1560
1.188633,1467
1.1903,1275
1.191967,1504
1.193633,1678
1.1953,1620
1.196967,1540
1.198633,1621
