"SampleName","A2Rd2_01-74"
"Target Mass 1",
"Column Name","IA-3 (3um, 4.6X100)"
"Channel","QDa 1: SIR Ch1"
0.00195,309
0.003616667,490
0.005283333,520
0.00695,571
0.008616666,555
0.01028333,565
0.01195,576
0.01361667,585
0.01528333,531
0.01695,597
0.01861667,436
0.02028333,468
0.02195,463
0.02361667,468
0.02528333,478
0.02695,410
0.02861667,470
0.03028333,460
0.03195,450
0.03361667,538
0.03528333,579
0.03695,554
0.03861667,529
0.04028333,558
0.04195,505
0.04361667,465
0.04528333,425
0.04695,472
0.04861667,531
0.05028334,551
0.05195,486
0.05361667,537
0.05528333,455
0.05695,484
0.05861667,449
0.06028333,450
0.06195,452
0.06361666,506
0.06528334,560
0.06695,610
0.06861667,594
0.07028333,508
0.07195,533
0.07361667,396
0.07528333,530
0.07695,626
0.07861666,408
0.08028334,677
0.08195,540
0.08361667,643
0.08528333,433
0.08695,398
0.08861667,608
0.09028333,421
0.09195,583
0.09361666,589
0.09528334,451
0.09695,575
0.09861667,675
0.1002833,461
0.10195,536
0.1036167,521
0.1052833,563
0.10695,507
0.1086167,587
0.1102833,544
0.11195,533
0.1136167,400
0.1152833,521
0.11695,545
0.1186167,507
0.1202833,544
0.12195,581
0.1236167,404
0.1252833,515
0.12695,575
0.1286167,549
0.1302833,609
0.13195,600
0.1336167,650
0.1352833,603
0.13695,541
0.1386167,584
0.1402833,489
0.14195,651
0.1436167,629
0.1452833,510
0.14695,457
0.1486167,440
0.1502833,505
0.15195,524
0.1536167,508
0.1552833,491
0.15695,566
0.1586167,573
0.1602833,580
0.16195,565
0.1636167,501
0.1652833,438
0.16695,664
0.1686167,582
0.1702833,474
0.17195,553
0.1736167,630
0.1752833,549
0.17695,472
0.1786167,457
0.1802833,408
0.18195,510
0.1836167,510
0.1852833,458
0.18695,459
0.1886167,461
0.1902833,421
0.19195,472
0.1936167,523
0.1952833,511
0.19695,494
0.1986167,436
0.2002833,468
0.20195,539
0.2036167,509
0.2052833,481
0.20695,555
0.2086167,520
0.2102833,601
0.21195,631
0.2136167,672
0.2152833,514
0.21695,633
0.2186167,470
0.2202833,522
0.22195,395
0.2236167,442
0.2252833,437
0.22695,487
0.2286167,453
0.2302833,419
0.23195,413
0.2336167,408
0.2352833,480
0.23695,631
0.2386167,609
0.2402833,532
0.24195,494
0.2436167,476
0.2453,482
0.24695,453
0.2486167,608
0.2502833,612
0.25195,468
0.2536167,579
0.2552833,489
0.25695,517
0.2586167,482
0.2602833,437
0.26195,421
0.2636333,406
0.2652833,513
0.26695,518
0.2686167,591
0.2702833,544
0.27195,497
0.2736333,440
0.2752833,516
0.27695,481
0.2786167,470
0.2803,399
0.28195,431
0.2836167,463
0.2852833,419
0.28695,589
0.2886167,607
0.2902833,547
0.29195,490
0.2936167,592
0.2952833,631
0.29695,547
0.2986333,630
0.3002833,569
0.30195,473
0.3036167,378
0.3052833,501
0.30695,517
0.3086333,533
0.3102833,496
0.31195,487
0.3136167,478
0.3153,503
0.31695,503
0.3186167,504
0.3203,562
0.32195,501
0.3236333,440
0.3252833,488
0.32695,452
0.3286167,493
0.3302833,533
0.33195,521
0.3336333,408
0.3352833,570
0.3369667,629
0.3386333,429
0.3402833,544
0.34195,497
0.3436167,643
0.3452833,605
0.34695,495
0.3486167,502
0.3503,497
0.35195,517
0.3536333,538
0.3553,527
0.35695,610
0.3586167,694
0.3602833,650
0.36195,584
0.3636167,847
0.3652833,1344
0.3669667,2268
0.3686333,4118
0.3703,5386
0.3719667,6494
0.3736333,7881
0.3753,6971
0.37695,7881
0.3786167,6546
0.3802833,6157
0.38195,5178
0.3836167,4795
0.3853,3840
0.3869667,3496
0.3886333,3116
0.3903,2418
0.3919667,1921
0.3936333,1814
0.3953,1556
0.39695,1260
0.3986333,1324
0.4002833,1487
0.4019667,1482
0.4036333,1222
0.4053,1198
0.4069667,1388
0.4086333,1257
0.4103,1338
0.4119667,1415
0.4136333,1368
0.4153,1321
0.4169667,1263
0.4186333,1324
0.4203,1384
0.4219667,1361
0.4236333,1337
0.4253,1341
0.4269667,1345
0.4286333,1347
0.4303,1532
0.4319667,1578
0.4336333,1821
0.4353,2167
0.4369667,3158
0.4386333,4767
0.4403,6689
0.4419667,11160
0.4436333,15384
0.4453,23112
0.4469667,32236
0.4486333,41328
0.4503,55056
0.4519667,70704
0.4536333,85776
0.4553,98272
0.4569667,115456
0.4586333,132672
0.4603,147008
0.4619667,160512
0.4636333,177472
0.4653,193856
0.4669667,216704
0.4686333,233984
0.4703,258112
0.4719667,265344
0.4736333,278784
0.4753,275520
0.4769667,268416
0.4786333,252352
0.4803,232000
0.4819667,204352
0.4836333,176320
0.4853,145984
0.4869667,120320
0.4886333,98176
0.4903,76496
0.4919667,60016
0.4936333,46064
0.4953,36096
0.4969667,26784
0.4986333,21808
0.5003,17128
0.5019667,13432
0.5036333,12128
0.5053,9228
0.5069667,8344
0.5086333,6572
0.5103,5987
0.5119666,5545
0.5136333,5172
0.5153,4685
0.5169666,4194
0.5186333,3756
0.5203,3596
0.5219667,3675
0.5236334,3600
0.5253,2901
0.5269667,2987
0.5286334,3282
0.5303,2597
0.5319667,3095
0.5336334,3173
0.5353,2627
0.5369667,2190
0.5386333,2053
0.5403,2435
0.5419667,2058
0.5436333,2254
0.5453,2249
0.5469667,1795
0.5486333,2179
0.5503,1812
0.5519667,1897
0.5536333,1662
0.5553,1580
0.5569667,1567
0.5586333,1664
0.5603,1654
0.5619667,1382
0.5636333,1575
0.5653,1491
0.5669667,1149
0.5686333,1302
0.5703,1384
0.5719666,1428
0.5736333,1288
0.5753,1404
0.5769666,1354
0.5786333,1426
0.5803,1379
0.5819666,1441
0.5836333,1426
0.5853,1411
0.5869667,1092
0.5886334,1356
0.5903,1224
0.5919667,1539
0.5936334,1486
0.5953,1508
0.5969667,1244
0.5986333,1299
0.6003,1438
0.6019667,1387
0.6036333,1315
0.6053,1422
0.6069667,1382
0.6086333,1212
0.6103,1297
0.6119667,1344
0.6136333,1302
0.6153,1260
0.6169667,1284
0.6186333,1248
0.6203,1212
0.6219667,1212
0.6236333,1212
0.6253,1193
0.6269667,1174
0.6286333,1126
0.6303,941
0.6319667,1079
0.6336333,918
0.6353,1090
0.6369666,861
0.6386333,999
0.6403,936
0.6419666,828
0.6436333,766
0.6453,840
0.6469667,783
0.6486334,922
0.6503,960
0.6519667,973
0.6536334,942
0.6553,911
0.6569667,888
0.6586334,1021
0.6603,793
0.6619667,810
0.6636333,798
0.6653,837
0.6669667,840
0.6686333,783
0.6703,684
0.6719667,816
0.6736333,725
0.6753,829
0.6769667,908
0.6786333,590
0.6803,796
0.6819667,933
0.6836333,670
0.6853,779
0.6869667,606
0.6886333,753
0.6903,754
0.6919667,762
0.6936333,636
0.6953,608
0.6969666,616
0.6986333,624
0.7003,595
0.7019666,566
0.7036333,811
0.7053,785
0.7069666,750
0.7086333,734
0.7103,718
0.7119667,725
0.7136334,671
0.7153,798
0.7169667,552
0.7186334,732
0.7203,875
0.7219667,716
0.7236333,648
0.7253,672
0.7269667,665
0.7286333,658
0.7303,792
0.7319667,828
0.7336333,722
0.7353,847
0.7369667,660
0.7386333,738
0.7403,715
0.7419667,674
0.7436333,614
0.7453,745
0.7469667,689
0.7486333,590
0.7503,688
0.7519667,740
0.7536333,697
0.7553,708
0.7569667,647
0.7586333,586
0.7603,829
0.7619666,820
0.7636333,758
0.7653,589
0.7669666,524
0.7686333,705
0.7703,681
0.7719667,657
0.7736334,591
0.7753,575
0.7769667,645
0.7786334,646
0.7803,647
0.7819667,603
0.7836334,619
0.7853,635
0.7869667,706
0.7886333,683
0.7903,660
0.7919667,715
0.7936333,770
0.7953,790
0.7969667,728
0.7986333,666
0.8003,688
0.8019667,570
0.8036333,730
0.8053,686
0.8069667,654
0.8086333,785
0.8103,814
0.8119667,843
0.8136333,678
0.8153,870
0.8169667,808
0.8186333,815
0.8203,892
0.8219666,925
0.8236333,869
0.8253,878
0.8269666,886
0.8286333,880
0.8303,864
0.8319666,847
0.8336333,838
0.8353,830
0.8369667,842
0.8386334,854
0.8403,872
0.8419667,873
0.8436334,870
0.8453,867
0.8469667,813
0.8486333,758
0.8503,841
0.8519667,908
0.8536333,855
0.8553,802
0.8569667,832
0.8586333,863
0.8603,860
0.8619667,866
0.8636333,894
0.8653,702
0.8669667,921
0.8686333,880
0.8703,775
0.8719667,640
0.8736333,738
0.8753,908
0.8769667,891
0.8786333,868
0.8803,982
0.8819667,1566
0.8836333,1992
0.8853,2435
0.8869666,2750
0.8886333,2735
0.8903,2994
0.8919666,3122
0.8936333,3250
0.8953,3255
0.8969667,3457
0.8986334,3707
0.9003,3734
0.9019667,3548
0.9036334,3576
0.9053,3560
0.9069667,3524
0.9086334,3750
0.9103,3920
0.9119667,2928
0.9136333,3582
0.9153,3731
0.9169667,3530
0.9186333,3772
0.9203,3607
0.9219667,3408
0.9236333,3634
0.9253,3196
0.9269667,3364
0.9286333,3225
0.9303,3329
0.9319667,3232
0.9336333,3233
0.9353,3234
0.9369667,2772
0.9386333,3241
0.9403,3157
0.9419667,2612
0.9436333,2701
0.9453,2489
0.9469666,2614
0.9486333,2508
0.9503,2345
0.9519666,2396
0.9536333,1999
0.9553,1974
0.9569666,1933
0.9586333,1857
0.9603,1952
0.9619667,1617
0.9636334,1559
0.9653,1480
0.9669667,1529
0.9686334,1290
0.9703,1373
0.9719667,1204
0.9736333,1333
0.9753,1092
0.9769667,1041
0.9786333,861
0.9803,802
0.9819667,862
0.9836333,769
0.9853,617
0.9869667,916
0.9886333,668
0.9903,651
0.9919667,631
0.9936333,474
0.9953,632
0.9969667,723
0.9986333,626
1.0003,594
1.001967,494
1.003633,564
1.0053,575
1.006967,586
1.008633,661
1.0103,602
1.011967,542
1.013633,473
1.0153,644
1.016967,567
1.018633,560
1.0203,595
1.021967,581
1.023633,566
1.0253,474
1.026967,557
1.028633,565
1.0303,507
1.031967,457
1.033633,486
1.0353,514
1.036967,667
1.038633,618
1.0403,721
1.041967,553
1.043633,540
1.0453,542
1.046967,567
1.048633,631
1.0503,610
1.051967,621
1.053633,529
1.0553,599
1.056967,396
1.058633,618
1.0603,686
1.061967,579
1.063633,497
1.0653,610
1.066967,638
1.068633,580
1.0703,622
1.071967,543
1.073633,550
1.0753,623
1.076967,462
1.078633,613
1.0803,670
1.081967,526
1.083633,569
1.0853,612
1.086967,570
1.088633,528
1.0903,604
1.091967,485
1.093633,528
1.0953,571
1.096967,576
1.098633,609
1.1003,563
1.101967,518
1.103633,544
1.1053,571
1.106967,603
1.108633,634
1.1103,617
1.111967,629
1.113633,674
1.1153,719
1.116967,507
1.118633,632
1.1203,822
1.121967,720
1.123633,628
1.1253,511
1.126967,481
1.128633,639
1.1303,656
1.131967,803
1.133633,720
1.1353,639
1.136967,617
1.138633,732
1.1403,573
1.141967,607
1.143633,779
1.1453,731
1.146967,647
1.148633,640
1.1503,675
1.151967,710
1.153633,726
1.1553,678
1.156967,648
1.158633,735
1.1603,728
1.161967,783
1.163633,800
1.1653,822
1.166967,796
1.168633,771
1.1703,777
1.171967,784
1.173633,687
1.1753,798
1.176967,787
1.178633,923
1.1803,859
1.181967,905
1.183633,671
1.1853,941
1.186967,738
1.188633,986
1.1903,850
1.191967,1006
1.193633,797
1.1953,936
1.196967,837
1.198633,805
