"SampleName","A2Rd2_01-60"
"Target Mass 1",
"Column Name","IA-3 (3um, 4.6X100)"
"Channel","QDa 1: SIR Ch2"
0.00195,686
0.003616667,728
0.005283333,689
0.00695,742
0.008616666,1033
0.01028333,993
0.01195,958
0.01361667,1009
0.01528333,951
0.01695,894
0.01861667,945
0.02028333,941
0.02195,938
0.02361667,892
0.02528333,846
0.02695,896
0.02861667,1111
0.03028333,1108
0.03195,964
0.03361667,1075
0.03528333,820
0.03695,1138
0.03861667,996
0.04028333,1021
0.04195,997
0.04361667,1017
0.04528333,1038
0.04695,1062
0.04861667,1086
0.05028334,1143
0.05195,876
0.05361667,1158
0.05528333,1108
0.05695,852
0.05861667,1155
0.06028333,970
0.06195,1035
0.06361666,951
0.06528334,877
0.06695,803
0.06861667,891
0.07028333,950
0.07195,924
0.07361667,1029
0.07528333,1056
0.07695,989
0.07861666,923
0.08028334,917
0.08195,951
0.08361667,731
0.08528333,1001
0.08695,1002
0.08861667,1014
0.09028333,1169
0.09195,1066
0.09361666,964
0.09528334,1069
0.09695,1035
0.09861667,1001
0.1002833,964
0.10195,913
0.1036167,900
0.1052833,968
0.10695,869
0.1086167,955
0.1102833,967
0.11195,914
0.1136167,1029
0.1152833,1060
0.11695,910
0.1186167,1079
0.1202833,929
0.12195,1101
0.1236167,822
0.1252833,703
0.12695,807
0.1286167,909
0.1302833,971
0.1319667,1006
0.1336167,739
0.1352833,1010
0.13695,934
0.1386167,1113
0.1402833,862
0.14195,1061
0.1436167,937
0.1452833,960
0.14695,942
0.1486167,1029
0.1502833,834
0.15195,997
0.1536167,754
0.1552833,928
0.15695,1082
0.1586333,1195
0.1602833,1004
0.16195,898
0.1636167,1009
0.1652833,903
0.16695,798
0.1686167,724
0.1702833,1035
0.17195,945
0.1736167,855
0.1753,883
0.17695,879
0.1786333,875
0.1802833,976
0.1819667,932
0.1836167,888
0.1852833,858
0.18695,828
0.1886167,978
0.1902833,1070
0.19195,974
0.1936167,884
0.1952833,811
0.19695,905
0.1986167,1063
0.2002833,1059
0.20195,1095
0.2036167,1102
0.2052833,967
0.20695,1041
0.2086167,1067
0.2102833,1059
0.2119667,1051
0.2136167,982
0.2152833,1016
0.21695,1030
0.2186167,1058
0.2203,1043
0.22195,1028
0.2236167,999
0.2252833,971
0.22695,1007
0.2286333,1079
0.2302833,1099
0.2319667,1118
0.2336167,1028
0.2352833,1097
0.23695,1151
0.2386333,1124
0.2402833,1282
0.2419667,1242
0.2436167,1209
0.2453,1006
0.24695,1032
0.2486333,1153
0.2502833,1121
0.2519667,1467
0.2536167,1432
0.2553,1315
0.25695,1169
0.2586333,988
0.2602833,940
0.2619667,1065
0.2636333,1080
0.2653,1095
0.26695,1102
0.2686333,1064
0.2702833,1051
0.27195,1102
0.2736167,1320
0.2753,1318
0.27695,1209
0.2786333,897
0.2803,1054
0.2819667,1084
0.2836333,1114
0.2853,948
0.2869667,1035
0.2886167,1055
0.2902833,1075
0.2919667,1096
0.2936167,1117
0.2953,1215
0.29695,1290
0.2986333,1216
0.3003,1041
0.3019667,1146
0.3036333,1141
0.3053,1135
0.30695,1175
0.3086333,1215
0.3102833,1208
0.3119667,1230
0.3136167,1077
0.3153,1124
0.31695,977
0.3186333,1044
0.3202833,1110
0.3219667,1339
0.3236167,1267
0.3253,1246
0.3269667,1259
0.3286333,1272
0.3302833,1286
0.3319667,1366
0.3336333,1146
0.3353,1434
0.33695,1470
0.3386333,1396
0.3402833,1365
0.3419667,1342
0.3436167,1135
0.3453,1370
0.34695,1290
0.3486333,1441
0.3503,1386
0.3519667,1331
0.3536333,1214
0.3553,1387
0.3569667,1477
0.3586333,1463
0.3603,1379
0.3619667,1508
0.3636333,1402
0.3653,2253
0.3669667,2949
0.3686333,4598
0.3703,4332
0.3719667,4940
0.3736333,4612
0.3753,4763
0.3769667,4588
0.3786333,4454
0.3803,3194
0.3819667,2532
0.3836333,1942
0.3853,2041
0.3869667,1715
0.3886333,1637
0.3903,1443
0.3919667,974
0.3936333,768
0.3953,862
0.3969667,743
0.3986333,596
0.4003,424
0.4019667,591
0.4036333,595
0.4053,600
0.4069667,626
0.4086333,460
0.4103,568
0.4119667,529
0.4136333,595
0.4153,693
0.4169667,676
0.4186333,668
0.4203,660
0.4219667,629
0.4236333,628
0.4253,627
0.4269667,650
0.4286333,749
0.4303,750
0.4319667,837
0.4336333,842
0.4353,831
0.4369667,752
0.4386333,750
0.4403,1090
0.4419667,1001
0.4436333,811
0.4453,842
0.4469667,972
0.4486333,1041
0.4503,1106
0.4519667,844
0.4536333,897
0.4553,968
0.4569667,971
0.4586333,984
0.4603,998
0.4619667,778
0.4636333,923
0.4653,926
0.4669667,979
0.4686333,968
0.4703,957
0.4719667,905
0.4736333,846
0.4753,768
0.4769667,883
0.4786333,741
0.4803,907
0.4819667,985
0.4836333,933
0.4853,871
0.4869667,807
0.4886333,996
0.4903,938
0.4919667,880
0.4936333,887
0.4953,824
0.4969667,890
0.4986333,893
0.5003,724
0.5019667,948
0.5036333,730
0.5053,888
0.5069667,802
0.5086333,964
0.5103,834
0.5119666,703
0.5136333,884
0.5153,917
0.5169666,587
0.5186333,869
0.5203,770
0.5219667,957
0.5236334,707
0.5253,793
0.5269667,878
0.5286334,919
0.5303,880
0.5319667,841
0.5336334,829
0.5353,817
0.5369667,964
0.5386333,983
0.5403,840
0.5419667,975
0.5436333,989
0.5453,1052
0.5469667,1048
0.5486333,794
0.5503,897
0.5519667,853
0.5536333,805
0.5553,757
0.5569667,701
0.5586333,645
0.5603,597
0.5619667,954
0.5636333,872
0.5653,966
0.5669667,600
0.5686333,973
0.5703,625
0.5719666,797
0.5736333,1021
0.5753,984
0.5769666,862
0.5786333,1012
0.5803,734
0.5819666,808
0.5836333,720
0.5853,815
0.5869667,703
0.5886334,733
0.5903,737
0.5919667,740
0.5936334,798
0.5953,744
0.5969667,691
0.5986333,731
0.6003,772
0.6019667,915
0.6036333,891
0.6053,919
0.6069667,787
0.6086333,848
0.6103,570
0.6119667,805
0.6136333,868
0.6153,709
0.6169667,722
0.6186333,811
0.6203,822
0.6219667,840
0.6236333,740
0.6253,761
0.6269667,761
0.6286333,779
0.6303,784
0.6319667,771
0.6336333,759
0.6353,804
0.6369666,809
0.6386333,814
0.6403,856
0.6419666,859
0.6436333,791
0.6453,724
0.6469667,787
0.6486334,716
0.6503,678
0.6519667,640
0.6536334,601
0.6553,631
0.6569667,719
0.6586334,807
0.6603,946
0.6619667,856
0.6636333,927
0.6653,768
0.6669667,748
0.6686333,983
0.6703,1017
0.6719667,790
0.6736333,869
0.6753,811
0.6769667,868
0.6786333,742
0.6803,931
0.6819667,706
0.6836333,718
0.6853,797
0.6869667,667
0.6886333,756
0.6903,817
0.6919667,710
0.6936333,763
0.6953,748
0.6969666,816
0.6986333,810
0.7003,787
0.7019666,732
0.7036333,746
0.7053,697
0.7069666,647
0.7086333,549
0.7103,659
0.7119667,784
0.7136334,920
0.7153,854
0.7169667,710
0.7186334,857
0.7203,719
0.7219667,717
0.7236333,928
0.7253,814
0.7269667,708
0.7286333,587
0.7303,841
0.7319667,901
0.7336333,851
0.7353,824
0.7369667,862
0.7386333,782
0.7403,860
0.7419667,743
0.7436333,740
0.7453,736
0.7469667,805
0.7486333,795
0.7503,831
0.7519667,644
0.7536333,644
0.7553,812
0.7569667,857
0.7586333,953
0.7603,722
0.7619666,918
0.7636333,682
0.7653,924
0.7669666,859
0.7686333,796
0.7703,842
0.7719667,745
0.7736334,799
0.7753,773
0.7769667,808
0.7786334,842
0.7803,910
0.7819667,864
0.7836334,819
0.7853,619
0.7869667,793
0.7886333,696
0.7903,725
0.7919667,747
0.7936333,769
0.7953,802
0.7969667,828
0.7986333,854
0.8003,878
0.8019667,753
0.8036333,819
0.8053,940
0.8069667,918
0.8086333,529
0.8103,859
0.8119667,832
0.8136333,992
0.8153,728
0.8169667,883
0.8186333,789
0.8203,859
0.8219666,790
0.8236333,893
0.8253,743
0.8269666,785
0.8286333,776
0.8303,767
0.8319666,769
0.8336333,934
0.8353,897
0.8369667,726
0.8386334,760
0.8403,612
0.8419667,682
0.8436334,826
0.8453,924
0.8469667,803
0.8486333,750
0.8503,696
0.8519667,831
0.8536333,813
0.8553,795
0.8569667,812
0.8586333,833
0.8603,774
0.8619667,670
0.8636333,703
0.8653,735
0.8669667,929
0.8686333,892
0.8703,920
0.8719667,1020
0.8736333,762
0.8753,616
0.8769667,644
0.8786333,692
0.8803,900
0.8819667,954
0.8836333,797
0.8853,717
0.8869666,1044
0.8886333,1026
0.8903,1104
0.8919666,870
0.8936333,983
0.8953,891
0.8969667,950
0.8986334,904
0.9003,858
0.9019667,850
0.9036334,843
0.9053,905
0.9069667,968
0.9086334,983
0.9103,1052
0.9119667,757
0.9136333,764
0.9153,759
0.9169667,917
0.9186333,892
0.9203,807
0.9219667,991
0.9236333,960
0.9253,731
0.9269667,913
0.9286333,1034
0.9303,805
0.9319667,932
0.9336333,848
0.9353,1029
0.9369667,1065
0.9386333,1013
0.9403,898
0.9419667,998
0.9436333,822
0.9453,1055
0.9469666,965
0.9486333,989
0.9503,930
0.9519666,1004
0.9536333,1195
0.9553,1237
0.9569666,812
0.9586333,982
0.9603,811
0.9619667,1048
0.9636334,886
0.9653,759
0.9669667,810
0.9686334,824
0.9703,850
0.9719667,877
0.9736333,918
0.9753,959
0.9769667,960
0.9786333,715
0.9803,918
0.9819667,871
0.9836333,686
0.9853,770
0.9869667,789
0.9886333,753
0.9903,717
0.9919667,655
0.9936333,692
0.9953,729
0.9969667,725
0.9986333,721
1.0003,758
1.001967,752
1.003633,769
1.0053,786
1.006967,800
1.008633,671
1.0103,747
1.011967,783
1.013633,725
1.0153,743
1.016967,668
1.018633,740
1.0203,812
1.021967,836
1.023633,806
1.0253,797
1.026967,817
1.028633,789
1.0303,803
1.031967,729
1.033633,730
1.0353,775
1.036967,820
1.038633,887
1.0403,830
1.041967,810
1.043633,904
1.0453,716
1.046967,741
1.048633,727
1.0503,853
1.051967,854
1.053633,909
1.0553,914
1.056967,919
1.058633,695
1.0603,837
1.061967,855
1.063633,788
1.0653,799
1.066967,752
1.068633,793
1.0703,779
1.071967,766
1.073633,820
1.0753,734
1.076967,699
1.078633,663
1.0803,735
1.081967,759
1.083633,784
1.0853,867
1.086967,575
1.088633,670
1.0903,767
1.091967,763
1.093633,864
1.0953,844
1.096967,658
1.098633,992
1.1003,819
1.101967,893
1.103633,854
1.1053,741
1.106967,647
1.108633,704
1.1103,819
1.111967,832
1.113633,780
1.1153,759
1.116967,862
1.118633,901
1.1203,989
1.121967,955
1.123633,846
1.1253,756
1.126967,911
1.128633,747
1.1303,747
1.131967,803
1.133633,784
1.1353,765
1.136967,743
1.138633,741
1.1403,753
1.141967,779
1.143633,804
1.1453,784
1.146967,690
1.148633,549
1.1503,774
1.151967,721
1.153633,795
1.1553,812
1.156967,830
1.158633,782
1.1603,743
1.161967,717
1.163633,675
1.1653,732
1.166967,826
1.168633,852
1.1703,800
1.171967,817
1.173633,785
1.1753,707
1.176967,798
1.178633,767
1.1803,735
1.181967,818
1.183633,792
1.1853,678
1.186967,829
1.188633,757
1.1903,781
1.191967,806
1.193633,783
1.1953,760
1.196967,738
1.198633,737
