"SampleName","A2Rd2_01-39"
"Target Mass 1",
"Column Name","IA-3 (3um, 4.6X100)"
"Channel","QDa 1: SIR Ch2"
0.00195,486
0.003616667,572
0.005283333,733
0.00695,905
0.008616666,856
0.01028333,829
0.01195,802
0.01361667,909
0.01528333,953
0.01695,1057
0.01861667,721
0.02028333,840
0.02195,815
0.02361667,898
0.02528333,886
0.02695,928
0.02861667,901
0.03028333,875
0.03195,756
0.03361667,1003
0.03528333,906
0.03695,1061
0.03861667,876
0.04028333,945
0.04195,1110
0.04361667,1122
0.04528333,914
0.04695,923
0.04861667,947
0.05028334,883
0.05195,891
0.05361667,929
0.05528333,914
0.05695,793
0.05861667,863
0.06028333,933
0.06195,986
0.06361666,983
0.06528334,920
0.06695,862
0.06861667,683
0.07028333,992
0.07195,722
0.07361667,843
0.07528333,953
0.07695,844
0.07861666,833
0.08028334,822
0.08195,780
0.08361667,846
0.08528333,980
0.08695,982
0.08861667,815
0.09028333,838
0.09195,840
0.09361666,820
0.09528334,831
0.09695,843
0.09861667,839
0.1002833,887
0.10195,877
0.1036167,867
0.1052833,884
0.10695,806
0.1086167,832
0.1102833,782
0.11195,1130
0.1136167,1044
0.1152833,906
0.11695,738
0.1186167,1019
0.1202833,886
0.12195,986
0.1236167,803
0.1252833,814
0.12695,891
0.1286167,800
0.1302833,789
0.13195,761
0.1336167,713
0.1352833,776
0.13695,839
0.1386167,816
0.1402833,855
0.14195,895
0.1436167,870
0.1452833,825
0.14695,919
0.1486167,888
0.1502833,878
0.15195,695
0.1536167,955
0.1552833,869
0.15695,803
0.1586333,815
0.1602833,866
0.16195,917
0.1636167,919
0.1652833,869
0.16695,820
0.1686167,746
0.1702833,908
0.17195,905
0.1736167,750
0.1753,954
0.17695,829
0.1786167,964
0.1802833,803
0.18195,866
0.1836167,826
0.1853,759
0.18695,856
0.1886333,953
0.1902833,970
0.19195,908
0.1936333,926
0.1952833,943
0.19695,863
0.1986167,828
0.2002833,993
0.2019667,1002
0.2036167,822
0.2052833,1005
0.20695,1020
0.2086167,981
0.2103,829
0.21195,851
0.2136333,943
0.2153,910
0.21695,877
0.2186333,909
0.2203,941
0.22195,1018
0.2236167,1046
0.2252833,1017
0.2269667,988
0.2286333,964
0.2302833,1045
0.2319667,869
0.2336167,1111
0.2353,1176
0.2369667,1027
0.2386333,1067
0.2403,1167
0.2419667,1151
0.2436333,1318
0.2453,1335
0.2469667,1060
0.2486333,1126
0.2502833,1186
0.2519667,1123
0.2536333,1072
0.2553,1030
0.25695,1092
0.2586333,1015
0.2603,1045
0.2619667,1075
0.2636333,933
0.2653,869
0.2669667,1081
0.2686333,1087
0.2703,1072
0.2719667,1202
0.2736167,1174
0.2753,949
0.2769667,1248
0.2786333,885
0.2803,1027
0.2819667,871
0.2836333,953
0.2853,1034
0.2869667,811
0.2886333,936
0.2903,1063
0.2919667,909
0.2936333,942
0.2953,976
0.2969667,1037
0.2986333,1111
0.3003,1053
0.3019667,980
0.3036333,1321
0.3053,1304
0.3069667,1073
0.3086333,1224
0.3103,1019
0.3119667,1199
0.3136333,1000
0.3153,1048
0.3169667,1075
0.3186333,1043
0.3203,1107
0.3219667,975
0.3236333,1093
0.3253,997
0.3269667,902
0.3286333,976
0.3303,1008
0.3319667,1040
0.3336333,1369
0.3353,1388
0.3369667,1374
0.3386333,1349
0.3403,1348
0.3419667,1347
0.3436333,1378
0.3453,1326
0.3469667,1273
0.3486333,1349
0.3503,1286
0.3519667,1302
0.3536333,1096
0.3553,1205
0.3569667,1399
0.3586333,1293
0.3603,1489
0.3619667,1481
0.3636333,1990
0.3653,3475
0.3669667,3803
0.3686333,5591
0.3703,5399
0.3719667,5172
0.3736333,4536
0.3753,3563
0.3769667,2889
0.3786333,2216
0.3803,1617
0.3819667,1237
0.3836333,991
0.3853,805
0.3869667,1040
0.3886333,728
0.3903,482
0.3919667,649
0.3936333,591
0.3953,714
0.3969667,591
0.3986333,635
0.4003,566
0.4019667,963
0.4036333,992
0.4053,1126
0.4069667,1134
0.4086333,874
0.4103,1007
0.4119667,984
0.4136333,1110
0.4153,1018
0.4169667,767
0.4186333,983
0.4203,1129
0.4219667,1106
0.4236333,811
0.4253,765
0.4269667,1025
0.4286333,1065
0.4303,1090
0.4319667,899
0.4336333,972
0.4353,1065
0.4369667,1163
0.4386333,1219
0.4403,1132
0.4419667,1253
0.4436333,1344
0.4453,1435
0.4469667,1601
0.4486333,1663
0.4503,1548
0.4519667,1617
0.4536333,1686
0.4553,1843
0.4569667,1936
0.4586333,1912
0.4603,1872
0.4619667,1811
0.4636333,1918
0.4653,1904
0.4669667,1941
0.4686333,1933
0.4703,1925
0.4719667,1732
0.4736333,1745
0.4753,1621
0.4769667,1702
0.4786333,1823
0.4803,1508
0.4819667,1419
0.4836333,1653
0.4853,1519
0.4869667,1408
0.4886333,1619
0.4903,1388
0.4919667,1573
0.4936333,1383
0.4953,1239
0.4969667,1354
0.4986333,1122
0.5003,1363
0.5019667,1064
0.5036333,1100
0.5053,1374
0.5069667,1073
0.5086333,1016
0.5103,915
0.5119666,1027
0.5136333,1140
0.5153,1066
0.5169666,1038
0.5186333,1009
0.5203,942
0.5219667,970
0.5236334,997
0.5253,983
0.5269667,1082
0.5286334,1081
0.5303,1080
0.5319667,1092
0.5336334,1149
0.5353,1240
0.5369667,1255
0.5386333,1189
0.5403,1123
0.5419667,1084
0.5436333,1217
0.5453,1195
0.5469667,1285
0.5486333,1121
0.5503,1115
0.5519667,974
0.5536333,1020
0.5553,1145
0.5569667,1023
0.5586333,1124
0.5603,1060
0.5619667,1150
0.5636333,1204
0.5653,895
0.5669667,1139
0.5686333,984
0.5703,1088
0.5719666,1120
0.5736333,945
0.5753,1035
0.5769666,1103
0.5786333,1132
0.5803,1075
0.5819666,1017
0.5836333,1200
0.5853,1189
0.5869667,1133
0.5886334,1107
0.5903,1077
0.5919667,1047
0.5936334,1200
0.5953,1148
0.5969667,1096
0.5986333,1016
0.6003,1063
0.6019667,1111
0.6036333,1053
0.6053,996
0.6069667,1104
0.6086333,1030
0.6103,1041
0.6119667,1052
0.6136333,1080
0.6153,938
0.6169667,988
0.6186333,1037
0.6203,1052
0.6219667,1082
0.6236333,1056
0.6253,889
0.6269667,897
0.6286333,1148
0.6303,1152
0.6319667,851
0.6336333,1024
0.6353,867
0.6369666,1090
0.6386333,1101
0.6403,921
0.6419666,1036
0.6436333,924
0.6453,1016
0.6469667,1091
0.6486334,1152
0.6503,941
0.6519667,946
0.6536334,1155
0.6553,975
0.6569667,1126
0.6586334,905
0.6603,1019
0.6619667,979
0.6636333,869
0.6653,962
0.6669667,1015
0.6686333,962
0.6703,802
0.6719667,1074
0.6736333,1023
0.6753,1154
0.6769667,942
0.6786333,828
0.6803,1010
0.6819667,749
0.6836333,802
0.6853,877
0.6869667,970
0.6886333,942
0.6903,922
0.6919667,902
0.6936333,935
0.6953,968
0.6969666,850
0.6986333,904
0.7003,916
0.7019666,960
0.7036333,1089
0.7053,1053
0.7069666,1042
0.7086333,863
0.7103,890
0.7119667,929
0.7136334,967
0.7153,987
0.7169667,981
0.7186334,851
0.7203,967
0.7219667,992
0.7236333,1020
0.7253,948
0.7269667,877
0.7286333,884
0.7303,1078
0.7319667,990
0.7336333,903
0.7353,938
0.7369667,974
0.7386333,900
0.7403,801
0.7419667,1004
0.7436333,942
0.7453,789
0.7469667,805
0.7486333,822
0.7503,1028
0.7519667,1002
0.7536333,915
0.7553,986
0.7569667,957
0.7586333,988
0.7603,939
0.7619666,706
0.7636333,865
0.7653,965
0.7669666,1059
0.7686333,938
0.7703,718
0.7719667,912
0.7736334,850
0.7753,884
0.7769667,867
0.7786334,890
0.7803,914
0.7819667,846
0.7836334,834
0.7853,878
0.7869667,826
0.7886333,878
0.7903,802
0.7919667,901
0.7936333,1028
0.7953,989
0.7969667,902
0.7986333,853
0.8003,825
0.8019667,865
0.8036333,852
0.8053,886
0.8069667,920
0.8086333,861
0.8103,803
0.8119667,971
0.8136333,941
0.8153,912
0.8169667,924
0.8186333,937
0.8203,961
0.8219666,997
0.8236333,975
0.8253,954
0.8269666,882
0.8286333,810
0.8303,822
0.8319666,826
0.8336333,1051
0.8353,1063
0.8369667,737
0.8386334,957
0.8403,923
0.8419667,897
0.8436334,1137
0.8453,1078
0.8469667,877
0.8486333,869
0.8503,876
0.8519667,880
0.8536333,885
0.8553,990
0.8569667,914
0.8586333,839
0.8603,900
0.8619667,921
0.8636333,942
0.8653,907
0.8669667,1014
0.8686333,1120
0.8703,1218
0.8719667,1624
0.8736333,1604
0.8753,1622
0.8769667,1509
0.8786333,1469
0.8803,1473
0.8819667,1388
0.8836333,1377
0.8853,1398
0.8869666,1325
0.8886333,1489
0.8903,1184
0.8919666,1405
0.8936333,1373
0.8953,1392
0.8969667,1353
0.8986334,1436
0.9003,1441
0.9019667,1570
0.9036334,1165
0.9053,1615
0.9069667,1309
0.9086334,1362
0.9103,1260
0.9119667,1294
0.9136333,1329
0.9153,1281
0.9169667,1234
0.9186333,1384
0.9203,1345
0.9219667,1306
0.9236333,1404
0.9253,1334
0.9269667,1263
0.9286333,1315
0.9303,1366
0.9319667,1324
0.9336333,1350
0.9353,1526
0.9369667,1546
0.9386333,1216
0.9403,1519
0.9419667,1314
0.9436333,1110
0.9453,1332
0.9469666,1093
0.9486333,1436
0.9503,1266
0.9519666,1140
0.9536333,1181
0.9553,1051
0.9569666,1082
0.9586333,1198
0.9603,1155
0.9619667,1280
0.9636334,998
0.9653,1263
0.9669667,951
0.9686334,943
0.9703,900
0.9719667,940
0.9736333,925
0.9753,911
0.9769667,917
0.9786333,923
0.9803,982
0.9819667,836
0.9836333,869
0.9853,991
0.9869667,1015
0.9886333,1064
0.9903,789
0.9919667,891
0.9936333,964
0.9953,989
0.9969667,919
0.9986333,826
1.0003,937
1.001967,951
1.003633,909
1.0053,818
1.006967,965
1.008633,931
1.0103,1001
1.011967,957
1.013633,912
1.0153,965
1.016967,1040
1.018633,1042
1.0203,825
1.021967,745
1.023633,798
1.0253,1008
1.026967,1104
1.028633,1018
1.0303,823
1.031967,966
1.033633,951
1.0353,944
1.036967,759
1.038633,827
1.0403,895
1.041967,958
1.043633,869
1.0453,696
1.046967,690
1.048633,658
1.0503,822
1.051967,825
1.053633,851
1.0553,786
1.056967,804
1.058633,821
1.0603,776
1.061967,781
1.063633,786
1.0653,766
1.066967,746
1.068633,774
1.0703,974
1.071967,927
1.073633,693
1.0753,936
1.076967,770
1.078633,1049
1.0803,879
1.081967,925
1.083633,858
1.0853,915
1.086967,861
1.088633,914
1.0903,764
1.091967,1000
1.093633,942
1.0953,769
1.096967,731
1.098633,803
1.1003,793
1.101967,784
1.103633,783
1.1053,845
1.106967,850
1.108633,855
1.1103,814
1.111967,733
1.113633,750
1.1153,660
1.116967,715
1.118633,770
1.1203,805
1.121967,1013
1.123633,997
1.1253,1022
1.126967,1005
1.128633,818
1.1303,854
1.131967,922
1.133633,706
1.1353,918
1.136967,945
1.138633,1023
1.1403,858
1.141967,873
1.143633,707
1.1453,978
1.146967,698
1.148633,791
1.1503,867
1.151967,822
1.153633,794
1.1553,765
1.156967,774
1.158633,787
1.1603,800
1.161967,839
1.163633,709
1.1653,746
1.166967,888
1.168633,1057
1.1703,955
1.171967,847
1.173633,892
1.1753,784
1.176967,937
1.178633,849
1.1803,741
1.181967,888
1.183633,893
1.1853,892
1.186967,879
1.188633,866
1.1903,924
1.191967,874
1.193633,825
1.1953,774
1.196967,817
1.198633,794
