"SampleName","A2Rd2_01-47"
"Target Mass 1",
"Column Name","IA-3 (3um, 4.6X100)"
"Channel","QDa 1: SIR Ch1"
0.00195,310
0.003616667,425
0.005283333,543
0.00695,486
0.008616666,460
0.01028333,435
0.01195,458
0.01361667,481
0.01528333,486
0.01695,377
0.01861667,450
0.02028333,458
0.02195,465
0.02361667,514
0.02528333,563
0.02695,527
0.02861667,550
0.03028333,423
0.03195,560
0.03361667,451
0.03528333,495
0.03695,427
0.03861667,430
0.04028333,432
0.04195,497
0.04361667,507
0.04528333,437
0.04695,478
0.04861667,504
0.05028334,517
0.05195,530
0.05361667,522
0.05528333,482
0.05695,362
0.05861667,437
0.06028333,512
0.06195,344
0.06361666,461
0.06528334,481
0.06695,461
0.06861667,484
0.07028333,508
0.07195,463
0.07361667,418
0.07528333,421
0.07695,414
0.07861666,444
0.08028334,474
0.08195,498
0.08361667,523
0.08528333,488
0.08695,542
0.08861667,449
0.09028333,484
0.09195,492
0.09361666,428
0.09528334,456
0.09695,436
0.09861667,405
0.1002833,373
0.10195,440
0.1036167,508
0.1052833,484
0.10695,404
0.1086167,490
0.1102833,406
0.11195,414
0.1136167,422
0.1152833,489
0.11695,507
0.1186167,456
0.1202833,430
0.12195,427
0.1236167,424
0.1252833,346
0.12695,410
0.1286167,426
0.1302833,537
0.13195,576
0.1336167,594
0.1352833,538
0.13695,509
0.1386167,509
0.1402833,509
0.14195,501
0.1436167,507
0.1452833,513
0.14695,456
0.1486167,543
0.1502833,464
0.15195,353
0.1536167,511
0.1552833,583
0.15695,429
0.1586167,541
0.1602833,637
0.16195,575
0.1636167,489
0.1652833,614
0.16695,501
0.1686167,522
0.1702833,543
0.17195,478
0.1736167,450
0.1752833,568
0.17695,476
0.1786167,378
0.1802833,532
0.18195,477
0.1836167,583
0.1852833,527
0.18695,540
0.1886167,467
0.1902833,444
0.19195,422
0.1936167,425
0.1952833,429
0.19695,429
0.1986167,405
0.2002833,428
0.20195,343
0.2036167,451
0.2052833,417
0.20695,488
0.2086167,485
0.2103,422
0.21195,371
0.2136333,396
0.2152833,421
0.21695,588
0.2186167,622
0.2202833,429
0.22195,553
0.2236167,472
0.2252833,467
0.22695,599
0.2286333,615
0.2302833,420
0.23195,545
0.2336167,565
0.2352833,551
0.23695,552
0.2386333,573
0.2402833,401
0.24195,470
0.2436167,630
0.2453,441
0.2469667,477
0.2486167,369
0.2502833,560
0.25195,500
0.2536167,442
0.2552833,501
0.25695,367
0.2586167,540
0.2602833,439
0.26195,518
0.2636333,547
0.2652833,527
0.26695,383
0.2686167,343
0.2703,498
0.2719667,609
0.2736167,517
0.2752833,406
0.27695,406
0.2786167,479
0.2803,550
0.28195,496
0.2836167,541
0.2852833,548
0.28695,523
0.2886333,376
0.2902833,479
0.29195,443
0.2936167,584
0.2952833,547
0.2969667,550
0.2986333,534
0.3003,513
0.30195,555
0.3036167,438
0.3052833,568
0.30695,531
0.3086167,446
0.3102833,521
0.31195,510
0.3136333,491
0.3153,585
0.31695,605
0.3186333,603
0.3202833,400
0.3219667,465
0.3236167,428
0.3252833,514
0.3269667,513
0.3286333,512
0.3303,515
0.33195,517
0.3336333,418
0.3352833,561
0.3369667,539
0.3386333,516
0.3403,589
0.3419667,574
0.3436167,461
0.3453,604
0.3469667,539
0.3486333,478
0.3503,541
0.3519667,540
0.3536333,439
0.3553,489
0.3569667,553
0.3586333,461
0.3603,662
0.3619667,681
0.3636333,898
0.3653,973
0.3669667,1824
0.3686333,4276
0.3703,5748
0.3719667,6706
0.3736333,7765
0.3753,7685
0.3769667,7358
0.3786333,8504
0.3803,5454
0.3819667,5339
0.3836333,3995
0.3853,4510
0.3869667,3658
0.3886333,3524
0.3903,3092
0.3919667,2745
0.3936333,2160
0.3953,1917
0.3969667,1502
0.3986333,1250
0.4003,1311
0.4019667,1273
0.4036333,1322
0.4053,1372
0.4069667,1378
0.4086333,1385
0.4103,1417
0.4119667,1448
0.4136333,1811
0.4153,1860
0.4169667,1662
0.4186333,1545
0.4203,1929
0.4219667,2036
0.4236333,2055
0.4253,1536
0.4269667,1658
0.4286333,1647
0.4303,1645
0.4319667,1694
0.4336333,2042
0.4353,2687
0.4369667,3568
0.4386333,4964
0.4403,7514
0.4419667,10156
0.4436333,14260
0.4453,19020
0.4469667,25504
0.4486333,37952
0.4503,49312
0.4519667,61936
0.4536333,77936
0.4553,93008
0.4569667,111456
0.4586333,130960
0.4603,155648
0.4619667,177600
0.4636333,204160
0.4653,234176
0.4669667,268608
0.4686333,294144
0.4703,318208
0.4719667,327936
0.4736333,333504
0.4753,325760
0.4769667,312448
0.4786333,284928
0.4803,254976
0.4819667,214912
0.4836333,180224
0.4853,148480
0.4869667,120704
0.4886333,94576
0.4903,76128
0.4919667,56208
0.4936333,42896
0.4953,33312
0.4969667,25620
0.4986333,22080
0.5003,15800
0.5019667,13688
0.5036333,12156
0.5053,9784
0.5069667,8596
0.5086333,7756
0.5103,6930
0.5119666,5805
0.5136333,6096
0.5153,5500
0.5169666,4357
0.5186333,4610
0.5203,3935
0.5219667,3912
0.5236334,3904
0.5253,3646
0.5269667,3208
0.5286334,3112
0.5303,3225
0.5319667,2743
0.5336334,3206
0.5353,2820
0.5369667,2761
0.5386333,2699
0.5403,2389
0.5419667,2134
0.5436333,2418
0.5453,2553
0.5469667,2270
0.5486333,1702
0.5503,1656
0.5519667,1764
0.5536333,1879
0.5553,1498
0.5569667,1921
0.5586333,1691
0.5603,1594
0.5619667,1373
0.5636333,1384
0.5653,1508
0.5669667,1573
0.5686333,1595
0.5703,1471
0.5719666,1162
0.5736333,1235
0.5753,1303
0.5769666,1248
0.5786333,1192
0.5803,1288
0.5819666,1373
0.5836333,1414
0.5853,1005
0.5869667,1269
0.5886334,1422
0.5903,1037
0.5919667,1096
0.5936334,1340
0.5953,1231
0.5969667,1103
0.5986333,1285
0.6003,1263
0.6019667,1142
0.6036333,1253
0.6053,1136
0.6069667,1447
0.6086333,1368
0.6103,1579
0.6119667,1222
0.6136333,1277
0.6153,1248
0.6169667,1136
0.6186333,1002
0.6203,1275
0.6219667,1060
0.6236333,1110
0.6253,949
0.6269667,976
0.6286333,1046
0.6303,788
0.6319667,752
0.6336333,995
0.6353,911
0.6369666,798
0.6386333,992
0.6403,702
0.6419666,738
0.6436333,864
0.6453,764
0.6469667,699
0.6486334,540
0.6503,672
0.6519667,712
0.6536334,653
0.6553,702
0.6569667,751
0.6586334,608
0.6603,752
0.6619667,693
0.6636333,566
0.6653,530
0.6669667,564
0.6686333,698
0.6703,768
0.6719667,643
0.6736333,515
0.6753,523
0.6769667,641
0.6786333,648
0.6803,734
0.6819667,691
0.6836333,565
0.6853,685
0.6869667,530
0.6886333,686
0.6903,550
0.6919667,656
0.6936333,652
0.6953,594
0.6969666,662
0.6986333,554
0.7003,600
0.7019666,567
0.7036333,535
0.7053,630
0.7069666,517
0.7086333,514
0.7103,569
0.7119667,513
0.7136334,514
0.7153,423
0.7169667,562
0.7186334,640
0.7203,547
0.7219667,578
0.7236333,651
0.7253,491
0.7269667,469
0.7286333,492
0.7303,494
0.7319667,532
0.7336333,552
0.7353,572
0.7369667,657
0.7386333,632
0.7403,470
0.7419667,533
0.7436333,490
0.7453,491
0.7469667,493
0.7486333,420
0.7503,347
0.7519667,424
0.7536333,502
0.7553,498
0.7569667,494
0.7586333,478
0.7603,462
0.7619666,502
0.7636333,485
0.7653,468
0.7669666,563
0.7686333,604
0.7703,606
0.7719667,525
0.7736334,396
0.7753,476
0.7769667,444
0.7786334,530
0.7803,523
0.7819667,514
0.7836334,560
0.7853,509
0.7869667,458
0.7886333,542
0.7903,385
0.7919667,552
0.7936333,568
0.7953,451
0.7969667,463
0.7986333,517
0.8003,538
0.8019667,485
0.8036333,525
0.8053,546
0.8069667,567
0.8086333,527
0.8103,498
0.8119667,405
0.8136333,312
0.8153,449
0.8169667,410
0.8186333,582
0.8203,581
0.8219666,574
0.8236333,620
0.8253,667
0.8269666,641
0.8286333,662
0.8303,501
0.8319666,619
0.8336333,542
0.8353,539
0.8369667,536
0.8386334,652
0.8403,653
0.8419667,622
0.8436334,606
0.8453,624
0.8469667,595
0.8486333,544
0.8503,646
0.8519667,596
0.8536333,444
0.8553,720
0.8569667,665
0.8586333,598
0.8603,718
0.8619667,592
0.8636333,535
0.8653,415
0.8669667,532
0.8686333,548
0.8703,467
0.8719667,428
0.8736333,622
0.8753,599
0.8769667,701
0.8786333,676
0.8803,861
0.8819667,1030
0.8836333,1159
0.8853,1264
0.8869666,1852
0.8886333,1922
0.8903,1929
0.8919666,2234
0.8936333,2183
0.8953,2321
0.8969667,1952
0.8986334,2013
0.9003,2374
0.9019667,1873
0.9036334,2202
0.9053,2499
0.9069667,2201
0.9086334,2175
0.9103,2058
0.9119667,2265
0.9136333,2203
0.9153,2142
0.9169667,2215
0.9186333,2257
0.9203,2068
0.9219667,2096
0.9236333,2243
0.9253,2391
0.9269667,1683
0.9286333,2034
0.9303,1985
0.9319667,1830
0.9336333,1789
0.9353,2097
0.9369667,1991
0.9386333,2014
0.9403,1816
0.9419667,1968
0.9436333,2089
0.9453,1835
0.9469666,1865
0.9486333,1954
0.9503,1593
0.9519666,1905
0.9536333,1402
0.9553,1547
0.9569666,1396
0.9586333,1355
0.9603,1187
0.9619667,1180
0.9636334,856
0.9653,1147
0.9669667,1071
0.9686334,832
0.9703,826
0.9719667,791
0.9736333,768
0.9753,682
0.9769667,806
0.9786333,649
0.9803,523
0.9819667,675
0.9836333,527
0.9853,624
0.9869667,497
0.9886333,505
0.9903,559
0.9919667,479
0.9936333,512
0.9953,508
0.9969667,536
0.9986333,544
1.0003,591
1.001967,324
1.003633,387
1.0053,441
1.006967,395
1.008633,371
1.0103,463
1.011967,467
1.013633,381
1.0153,443
1.016967,440
1.018633,420
1.0203,399
1.021967,463
1.023633,487
1.0253,465
1.026967,391
1.028633,339
1.0303,279
1.031967,409
1.033633,418
1.0353,322
1.036967,260
1.038633,509
1.0403,427
1.041967,412
1.043633,442
1.0453,524
1.046967,485
1.048633,446
1.0503,381
1.051967,404
1.053633,448
1.0553,492
1.056967,523
1.058633,500
1.0603,475
1.061967,455
1.063633,468
1.0653,434
1.066967,488
1.068633,321
1.0703,356
1.071967,391
1.073633,462
1.0753,460
1.076967,459
1.078633,436
1.0803,465
1.081967,494
1.083633,393
1.0853,437
1.086967,459
1.088633,480
1.0903,475
1.091967,469
1.093633,452
1.0953,436
1.096967,471
1.098633,469
1.1003,386
1.101967,407
1.103633,428
1.1053,409
1.106967,391
1.108633,403
1.1103,415
1.111967,567
1.113633,527
1.1153,467
1.116967,499
1.118633,532
1.1203,515
1.121967,593
1.123633,584
1.1253,559
1.126967,434
1.128633,443
1.1303,472
1.131967,560
1.133633,613
1.1353,542
1.136967,527
1.138633,539
1.1403,474
1.141967,558
1.143633,570
1.1453,568
1.146967,677
1.148633,676
1.1503,592
1.151967,449
1.153633,535
1.1553,517
1.156967,503
1.158633,565
1.1603,600
1.161967,580
1.163633,561
1.1653,468
1.166967,526
1.168633,564
1.1703,495
1.171967,610
1.173633,611
1.1753,639
1.176967,538
1.178633,549
1.1803,534
1.181967,572
1.183633,534
1.1853,496
1.186967,537
1.188633,555
1.1903,574
1.191967,460
1.193633,598
1.1953,605
1.196967,612
1.198633,600
