"SampleName","A2Rd2_01-85"
"Target Mass 1",
"Column Name","IA-3 (3um, 4.6X100)"
"Channel","QDa 1: SIR Ch2"
0.00195,576
0.003616667,765
0.005283333,634
0.00695,823
0.008616666,881
0.01028333,788
0.01195,841
0.01361667,876
0.01528333,1011
0.01695,870
0.01861667,730
0.02028333,1044
0.02195,924
0.02361667,882
0.02528333,1013
0.02695,950
0.02861667,974
0.03028333,848
0.03195,792
0.03361667,894
0.03528333,930
0.03695,918
0.03861667,907
0.04028333,962
0.04195,1016
0.04361667,1014
0.04528333,1130
0.04695,1102
0.04861667,879
0.05028334,957
0.05195,865
0.05361667,841
0.05528333,926
0.05695,854
0.05861667,909
0.06028333,985
0.06195,1049
0.06361666,795
0.06528334,899
0.06695,1088
0.06861667,1074
0.07028333,950
0.07195,954
0.07361667,907
0.07528333,760
0.07695,849
0.07861666,839
0.08028334,830
0.08195,763
0.08361667,697
0.08528333,694
0.08695,692
0.08861667,774
0.09028333,861
0.09195,948
0.09361666,846
0.09528334,934
0.09695,801
0.09861667,833
0.1002833,786
0.10195,822
0.1036167,859
0.1052833,899
0.10695,890
0.1086167,881
0.1102833,968
0.11195,995
0.1136167,729
0.1152833,916
0.11695,1038
0.1186167,813
0.1202833,794
0.12195,783
0.1236167,802
0.1252833,821
0.12695,865
0.1286167,843
0.1302833,822
0.13195,943
0.1336167,885
0.1352833,827
0.13695,809
0.1386167,891
0.1402833,903
0.14195,915
0.1436167,873
0.1452833,831
0.14695,903
0.1486167,939
0.1502833,948
0.15195,930
0.1536167,857
0.1552833,835
0.15695,813
0.1586167,861
0.1602833,861
0.16195,860
0.1636167,908
0.1652833,782
0.16695,760
0.1686167,737
0.1702833,834
0.17195,895
0.1736167,900
0.1752833,625
0.17695,767
0.1786167,853
0.1802833,830
0.18195,884
0.1836167,864
0.1852833,738
0.18695,837
0.1886167,922
0.1902833,817
0.19195,847
0.1936167,880
0.1952833,767
0.19695,877
0.1986167,937
0.2002833,1044
0.20195,952
0.2036167,789
0.2052833,827
0.20695,804
0.2086167,738
0.2102833,865
0.21195,905
0.2136167,881
0.2152833,1014
0.21695,999
0.2186167,1067
0.2202833,1012
0.22195,1024
0.2236167,1199
0.2252833,1276
0.22695,836
0.2286333,1272
0.2302833,1217
0.23195,1138
0.2336167,1044
0.2352833,1153
0.23695,1139
0.2386167,1186
0.2402833,1185
0.24195,1095
0.2436167,1015
0.2453,1215
0.24695,1212
0.2486167,1234
0.2502833,1210
0.25195,1079
0.2536167,1044
0.2552833,1227
0.25695,1163
0.2586167,1008
0.2602833,1249
0.26195,1030
0.2636333,1134
0.2652833,925
0.26695,988
0.2686167,1052
0.2702833,1060
0.27195,1069
0.2736167,1066
0.2752833,1063
0.27695,1013
0.2786167,963
0.2803,970
0.28195,1025
0.2836167,967
0.2852833,958
0.28695,949
0.2886167,978
0.2902833,1008
0.29195,1005
0.2936167,1046
0.2952833,938
0.29695,874
0.2986333,1110
0.3002833,1020
0.30195,1148
0.3036333,1135
0.3053,1046
0.3069667,1208
0.3086333,1357
0.3103,1259
0.3119667,1126
0.3136167,1287
0.3153,948
0.3169667,1176
0.3186167,1254
0.3203,1088
0.32195,1130
0.3236167,1040
0.3252833,1202
0.32695,1236
0.3286333,1010
0.3302833,1202
0.33195,1281
0.3336333,1222
0.3352833,1163
0.3369667,1285
0.3386167,1311
0.3403,1384
0.34195,1168
0.3436333,1217
0.3452833,1370
0.3469667,1281
0.3486167,1322
0.3503,1396
0.35195,1155
0.3536333,1283
0.3552833,1314
0.3569667,1345
0.3586167,1439
0.3603,1572
0.36195,1503
0.3636333,1645
0.3652833,2983
0.3669667,3809
0.3686333,4468
0.3703,4820
0.3719667,4666
0.3736333,4982
0.3753,4855
0.3769667,4501
0.3786333,4408
0.3803,3908
0.3819667,2998
0.3836333,2226
0.3853,1956
0.3869667,1572
0.3886333,1441
0.3903,1013
0.3919667,871
0.3936333,701
0.3953,714
0.3969667,538
0.3986333,566
0.4003,512
0.4019667,541
0.4036333,571
0.4053,567
0.4069667,530
0.4086333,560
0.4103,323
0.4119667,434
0.4136333,545
0.4153,679
0.4169667,660
0.4186333,723
0.4203,795
0.4219667,694
0.4236333,592
0.4253,645
0.4269667,698
0.4286333,884
0.4303,862
0.4319667,970
0.4336333,969
0.4353,917
0.4369667,1010
0.4386333,1022
0.4403,955
0.4419667,1155
0.4436333,1123
0.4453,1264
0.4469667,1046
0.4486333,1115
0.4503,1345
0.4519667,1383
0.4536333,1273
0.4553,1493
0.4569667,1555
0.4586333,1336
0.4603,1305
0.4619667,1768
0.4636333,1693
0.4653,1344
0.4669667,1483
0.4686333,1641
0.4703,1544
0.4719667,1477
0.4736333,1476
0.4753,1475
0.4769667,1516
0.4786333,1556
0.4803,1555
0.4819667,1519
0.4836333,1482
0.4853,1210
0.4869667,1418
0.4886333,1104
0.4903,1339
0.4919667,1126
0.4936333,1441
0.4953,894
0.4969667,1178
0.4986333,1319
0.5003,1198
0.5019667,1074
0.5036333,876
0.5053,1021
0.5069667,1013
0.5086333,1050
0.5103,944
0.5119666,919
0.5136333,908
0.5153,1027
0.5169666,958
0.5186333,889
0.5203,942
0.5219667,736
0.5236334,829
0.5253,922
0.5269667,949
0.5286334,742
0.5303,1049
0.5319667,1000
0.5336334,997
0.5353,1141
0.5369667,741
0.5386333,975
0.5403,951
0.5419667,931
0.5436333,884
0.5453,900
0.5469667,759
0.5486333,960
0.5503,830
0.5519667,909
0.5536333,987
0.5553,956
0.5569667,925
0.5586333,873
0.5603,801
0.5619667,968
0.5636333,893
0.5653,1047
0.5669667,1047
0.5686333,887
0.5703,850
0.5719666,901
0.5736333,878
0.5753,854
0.5769666,858
0.5786333,862
0.5803,914
0.5819666,967
0.5836333,942
0.5853,923
0.5869667,984
0.5886334,870
0.5903,811
0.5919667,946
0.5936334,841
0.5953,860
0.5969667,803
0.5986333,1016
0.6003,1036
0.6019667,1028
0.6036333,911
0.6053,888
0.6069667,783
0.6086333,775
0.6103,767
0.6119667,837
0.6136333,845
0.6153,852
0.6169667,794
0.6186333,738
0.6203,682
0.6219667,741
0.6236333,772
0.6253,804
0.6269667,721
0.6286333,987
0.6303,1009
0.6319667,858
0.6336333,939
0.6353,756
0.6369666,975
0.6386333,1013
0.6403,924
0.6419666,1012
0.6436333,991
0.6453,898
0.6469667,862
0.6486334,860
0.6503,678
0.6519667,727
0.6536334,848
0.6553,762
0.6569667,793
0.6586334,829
0.6603,834
0.6619667,846
0.6636333,857
0.6653,844
0.6669667,832
0.6686333,899
0.6703,902
0.6719667,680
0.6736333,1001
0.6753,881
0.6769667,732
0.6786333,772
0.6803,789
0.6819667,805
0.6836333,830
0.6853,867
0.6869667,841
0.6886333,815
0.6903,823
0.6919667,831
0.6936333,728
0.6953,742
0.6969666,756
0.6986333,817
0.7003,879
0.7019666,877
0.7036333,860
0.7053,844
0.7069666,739
0.7086333,872
0.7103,897
0.7119667,799
0.7136334,779
0.7153,1030
0.7169667,1012
0.7186334,907
0.7203,854
0.7219667,917
0.7236333,840
0.7253,875
0.7269667,796
0.7286333,880
0.7303,810
0.7319667,895
0.7336333,1012
0.7353,699
0.7369667,764
0.7386333,1002
0.7403,818
0.7419667,829
0.7436333,745
0.7453,783
0.7469667,899
0.7486333,910
0.7503,640
0.7519667,855
0.7536333,906
0.7553,790
0.7569667,831
0.7586333,935
0.7603,817
0.7619666,691
0.7636333,915
0.7653,824
0.7669666,920
0.7686333,909
0.7703,769
0.7719667,807
0.7736334,902
0.7753,892
0.7769667,909
0.7786334,701
0.7803,795
0.7819667,882
0.7836334,911
0.7853,832
0.7869667,653
0.7886333,887
0.7903,796
0.7919667,802
0.7936333,866
0.7953,899
0.7969667,831
0.7986333,764
0.8003,883
0.8019667,831
0.8036333,789
0.8053,863
0.8069667,847
0.8086333,1069
0.8103,1072
0.8119667,917
0.8136333,836
0.8153,1023
0.8169667,1064
0.8186333,846
0.8203,851
0.8219666,811
0.8236333,909
0.8253,806
0.8269666,703
0.8286333,952
0.8303,778
0.8319666,886
0.8336333,944
0.8353,783
0.8369667,859
0.8386334,1035
0.8403,723
0.8419667,969
0.8436334,894
0.8453,1038
0.8469667,983
0.8486333,896
0.8503,809
0.8519667,815
0.8536333,716
0.8553,879
0.8569667,814
0.8586333,587
0.8603,756
0.8619667,745
0.8636333,803
0.8653,785
0.8669667,766
0.8686333,721
0.8703,734
0.8719667,748
0.8736333,749
0.8753,750
0.8769667,1030
0.8786333,1018
0.8803,1027
0.8819667,1286
0.8836333,1281
0.8853,1251
0.8869666,1104
0.8886333,1082
0.8903,1099
0.8919666,1137
0.8936333,1419
0.8953,1455
0.8969667,1197
0.8986334,1124
0.9003,1186
0.9019667,1383
0.9036334,1436
0.9053,1295
0.9069667,1330
0.9086334,1215
0.9103,963
0.9119667,1236
0.9136333,1118
0.9153,1284
0.9169667,1293
0.9186333,1172
0.9203,1155
0.9219667,1232
0.9236333,1241
0.9253,1251
0.9269667,1273
0.9286333,1246
0.9303,1219
0.9319667,1213
0.9336333,1214
0.9353,1216
0.9369667,1170
0.9386333,1317
0.9403,1294
0.9419667,1272
0.9436333,1144
0.9453,1119
0.9469666,1216
0.9486333,1337
0.9503,941
0.9519666,1078
0.9536333,958
0.9553,1112
0.9569666,1148
0.9586333,1072
0.9603,1139
0.9619667,1014
0.9636334,712
0.9653,1138
0.9669667,952
0.9686334,918
0.9703,1021
0.9719667,870
0.9736333,907
0.9753,828
0.9769667,825
0.9786333,823
0.9803,823
0.9819667,776
0.9836333,850
0.9853,772
0.9869667,860
0.9886333,666
0.9903,767
0.9919667,652
0.9936333,729
0.9953,758
0.9969667,786
0.9986333,747
1.0003,708
1.001967,860
1.003633,921
1.0053,889
1.006967,868
1.008633,847
1.0103,830
1.011967,812
1.013633,878
1.0153,933
1.016967,908
1.018633,883
1.0203,895
1.021967,768
1.023633,925
1.0253,784
1.026967,807
1.028633,806
1.0303,915
1.031967,942
1.033633,969
1.0353,946
1.036967,858
1.038633,972
1.0403,877
1.041967,995
1.043633,955
1.0453,972
1.046967,909
1.048633,942
1.0503,891
1.051967,918
1.053633,757
1.0553,888
1.056967,852
1.058633,870
1.0603,792
1.061967,848
1.063633,734
1.0653,742
1.066967,751
1.068633,804
1.0703,858
1.071967,816
1.073633,774
1.0753,773
1.076967,773
1.078633,699
1.0803,625
1.081967,819
1.083633,864
1.0853,690
1.086967,747
1.088633,699
1.0903,850
1.091967,780
1.093633,710
1.0953,713
1.096967,925
1.098633,938
1.1003,1030
1.101967,755
1.103633,944
1.1053,908
1.106967,876
1.108633,880
1.1103,885
1.111967,859
1.113633,805
1.1153,894
1.116967,884
1.118633,873
1.1203,707
1.121967,699
1.123633,799
1.1253,810
1.126967,820
1.128633,793
1.1303,826
1.131967,668
1.133633,870
1.1353,1003
1.136967,1031
1.138633,762
1.1403,973
1.141967,906
1.143633,663
1.1453,898
1.146967,934
1.148633,897
1.1503,893
1.151967,888
1.153633,857
1.1553,813
1.156967,1021
1.158633,994
1.1603,788
1.161967,749
1.163633,811
1.1653,832
1.166967,699
1.168633,853
1.1703,799
1.171967,855
1.173633,875
1.1753,810
1.176967,781
1.178633,753
1.1803,796
1.181967,1062
1.183633,1009
1.1853,991
1.186967,850
1.188633,915
1.1903,869
1.191967,822
1.193633,876
1.1953,685
1.196967,845
1.198633,894
