"SampleName","A2Rd2_01-61"
"Target Mass 1",
"Column Name","IA-3 (3um, 4.6X100)"
"Channel","QDa 1: SIR Ch1"
0.00195,339
0.003616667,410
0.005283333,427
0.00695,554
0.008616666,536
0.01028333,518
0.01195,524
0.01361667,530
0.01528333,459
0.01695,492
0.01861667,477
0.02028333,461
0.02195,593
0.02361667,327
0.02528333,583
0.02695,563
0.02861667,541
0.03028333,550
0.03195,473
0.03361667,487
0.03528333,494
0.03695,458
0.03861667,432
0.04028333,633
0.04195,639
0.04361667,550
0.04528333,605
0.04695,464
0.04861667,514
0.05028334,342
0.05195,428
0.05363333,534
0.05528333,569
0.05695,520
0.05861667,520
0.06028333,508
0.06195,494
0.06361666,468
0.06528334,539
0.06696667,537
0.06861667,534
0.0703,497
0.07195,479
0.07361667,462
0.07528333,459
0.07695,456
0.07863333,465
0.08028334,498
0.08196667,411
0.08363333,427
0.0853,444
0.08696666,515
0.08863334,586
0.0903,560
0.09196667,479
0.09363333,574
0.0953,515
0.09696667,445
0.09863333,496
0.1003,477
0.1019667,534
0.1036333,547
0.1053,494
0.1069667,440
0.1086333,494
0.1103,306
0.1119667,526
0.1136333,429
0.1153,460
0.1169667,496
0.1186333,402
0.1203,410
0.1219667,494
0.1236333,491
0.1253,483
0.1269667,485
0.1286333,412
0.1303,517
0.1319667,484
0.1336333,451
0.1353,343
0.1369667,539
0.1386333,477
0.1403,551
0.1419667,550
0.1436333,475
0.1453,528
0.1469667,551
0.1486333,419
0.1503,436
0.1519667,452
0.1536333,565
0.1553,499
0.1569667,433
0.1586333,655
0.1603,590
0.1619667,398
0.1636333,554
0.1653,437
0.1669667,520
0.1686333,436
0.1703,565
0.1719667,341
0.1736333,534
0.1753,439
0.1769667,541
0.1786333,564
0.1803,605
0.1819667,431
0.1836333,440
0.1853,427
0.1869667,459
0.1886333,431
0.1903,403
0.1919667,372
0.1936333,560
0.1953,551
0.1969667,418
0.1986333,512
0.2003,350
0.2019667,472
0.2036333,544
0.2053,559
0.2069667,515
0.2086333,452
0.2103,427
0.2119667,472
0.2136333,477
0.2153,483
0.2169667,453
0.2186333,447
0.2203,407
0.2219667,469
0.2236333,662
0.2253,607
0.2269667,535
0.2286333,415
0.2303,494
0.2319667,567
0.2336333,393
0.2353,526
0.2369667,511
0.2386333,529
0.2403,527
0.2419667,465
0.2436333,466
0.2453,391
0.2469667,522
0.2486333,511
0.2503,475
0.2519667,380
0.2536333,441
0.2553,472
0.2569667,439
0.2586333,312
0.2603,366
0.2619667,421
0.2636333,364
0.2653,433
0.2669667,487
0.2686333,436
0.2703,436
0.2719667,437
0.2736333,458
0.2753,456
0.2769667,453
0.2786333,460
0.2803,360
0.2819667,462
0.2836333,343
0.2853,364
0.2869667,385
0.2886333,406
0.2903,427
0.2919667,441
0.2936333,455
0.2953,492
0.2969667,529
0.2986333,492
0.3003,455
0.3019667,579
0.3036333,517
0.3053,454
0.3069667,472
0.3086333,623
0.3103,589
0.3119667,564
0.3136333,556
0.3153,587
0.3169667,556
0.3186333,599
0.3203,496
0.3219667,537
0.3236333,561
0.3253,532
0.3269667,553
0.3286333,574
0.3303,571
0.3319667,485
0.3336333,618
0.3353,490
0.3369667,546
0.3386333,559
0.3403,429
0.3419667,513
0.3436333,515
0.3453,495
0.3469667,512
0.3486333,529
0.3503,496
0.3519667,463
0.3536333,446
0.3553,451
0.3569667,496
0.3586333,540
0.3603,590
0.3619667,678
0.3636333,897
0.3653,1371
0.3669667,2731
0.3686333,4100
0.3703,5666
0.3719667,7003
0.3736333,7471
0.3753,7330
0.3769667,6389
0.3786333,5547
0.3803,5131
0.3819667,3656
0.3836333,3064
0.3853,2584
0.3869667,1527
0.3886333,1291
0.3903,1106
0.3919667,1013
0.3936333,990
0.3953,896
0.3969667,856
0.3986333,949
0.4003,1040
0.4019667,1295
0.4036333,1429
0.4053,1195
0.4069667,1364
0.4086333,1588
0.4103,1746
0.4119667,1831
0.4136333,1921
0.4153,1996
0.4169667,2072
0.4186333,2397
0.4203,2324
0.4219667,2392
0.4236333,2235
0.4253,2439
0.4269667,2533
0.4286333,2469
0.4303,3055
0.4319667,3750
0.4336333,4771
0.4353,6176
0.4369667,7738
0.4386333,10636
0.4403,13912
0.4419667,18868
0.4436333,24532
0.4453,30812
0.4469667,41664
0.4486333,51952
0.4503,66864
0.4519667,79904
0.4536333,97376
0.4553,112144
0.4569667,131840
0.4586333,152000
0.4603,173376
0.4619667,197120
0.4636333,222016
0.4653,254144
0.4669667,281792
0.4686333,315264
0.4703,345792
0.4719667,364736
0.4736333,385280
0.4753,379520
0.4769667,375232
0.4786333,357184
0.4803,330560
0.4819667,291136
0.4836333,250048
0.4853,215616
0.4869667,174400
0.4886333,143936
0.4903,110192
0.4919667,88432
0.4936333,68704
0.4953,50640
0.4969667,39184
0.4986333,30624
0.5003,24328
0.5019667,19248
0.5036333,15448
0.5053,13044
0.5069667,11356
0.5086333,9788
0.5103,8976
0.5119666,8208
0.5136333,7229
0.5153,6378
0.5169666,6449
0.5186333,5765
0.5203,5794
0.5219667,5268
0.5236334,4810
0.5253,4591
0.5269667,4752
0.5286334,4665
0.5303,4326
0.5319667,3943
0.5336334,3506
0.5353,4092
0.5369667,3530
0.5386333,3665
0.5403,3167
0.5419667,3693
0.5436333,3262
0.5453,3122
0.5469667,2980
0.5486333,3144
0.5503,2876
0.5519667,2576
0.5536333,2784
0.5553,2538
0.5569667,2511
0.5586333,2417
0.5603,2191
0.5619667,2504
0.5636333,2293
0.5653,2213
0.5669667,2140
0.5686333,1992
0.5703,2145
0.5719666,2268
0.5736333,2344
0.5753,2533
0.5769666,2452
0.5786333,2002
0.5803,2042
0.5819666,2250
0.5836333,2509
0.5853,2404
0.5869667,1939
0.5886334,2022
0.5903,2108
0.5919667,2508
0.5936334,2417
0.5953,2348
0.5969667,2276
0.5986333,2163
0.6003,2186
0.6019667,2199
0.6036333,2116
0.6053,2143
0.6069667,2132
0.6086333,2227
0.6103,1973
0.6119667,1851
0.6136333,1900
0.6153,1993
0.6169667,2086
0.6186333,2114
0.6203,2004
0.6219667,2163
0.6236333,1720
0.6253,1786
0.6269667,2024
0.6286333,1594
0.6303,1768
0.6319667,1640
0.6336333,1455
0.6353,1701
0.6369666,1472
0.6386333,1418
0.6403,1363
0.6419666,1322
0.6436333,1282
0.6453,1547
0.6469667,1513
0.6486334,1660
0.6503,1100
0.6519667,1518
0.6536334,1335
0.6553,1438
0.6569667,1406
0.6586334,1420
0.6603,1456
0.6619667,1223
0.6636333,1389
0.6653,1554
0.6669667,1338
0.6686333,1291
0.6703,1379
0.6719667,1227
0.6736333,1465
0.6753,1394
0.6769667,1322
0.6786333,1204
0.6803,1363
0.6819667,1254
0.6836333,1145
0.6853,1307
0.6869667,1299
0.6886333,1388
0.6903,1286
0.6919667,1321
0.6936333,1328
0.6953,1216
0.6969666,1290
0.6986333,1248
0.7003,1226
0.7019666,1204
0.7036333,1173
0.7053,1185
0.7069666,1197
0.7086333,1158
0.7103,1084
0.7119667,1283
0.7136334,1286
0.7153,1128
0.7169667,1217
0.7186334,1142
0.7203,1183
0.7219667,988
0.7236333,1137
0.7253,1349
0.7269667,1335
0.7286333,1448
0.7303,1454
0.7319667,1124
0.7336333,1220
0.7353,1258
0.7369667,1062
0.7386333,1169
0.7403,1160
0.7419667,1150
0.7436333,1049
0.7453,1097
0.7469667,1119
0.7486333,1005
0.7503,892
0.7519667,954
0.7536333,1100
0.7553,1172
0.7569667,1189
0.7586333,1138
0.7603,1264
0.7619666,1285
0.7636333,1250
0.7653,1245
0.7669666,1291
0.7686333,933
0.7703,1304
0.7719667,1063
0.7736334,964
0.7753,1355
0.7769667,1051
0.7786334,1104
0.7803,1149
0.7819667,938
0.7836334,906
0.7853,1170
0.7869667,982
0.7886333,919
0.7903,1120
0.7919667,1067
0.7936333,971
0.7953,1004
0.7969667,1037
0.7986333,1047
0.8003,986
0.8019667,1012
0.8036333,1052
0.8053,1091
0.8069667,1083
0.8086333,1075
0.8103,1109
0.8119667,1143
0.8136333,1129
0.8153,1103
0.8169667,1163
0.8186333,1224
0.8203,1212
0.8219666,981
0.8236333,1009
0.8253,1037
0.8269666,1069
0.8286333,1126
0.8303,1116
0.8319666,1085
0.8336333,1054
0.8353,1066
0.8369667,1072
0.8386334,1122
0.8403,1099
0.8419667,1076
0.8436334,1088
0.8453,1170
0.8469667,1106
0.8486333,1041
0.8503,1058
0.8519667,936
0.8536333,991
0.8553,970
0.8569667,823
0.8586333,1005
0.8603,1046
0.8619667,983
0.8636333,1223
0.8653,2051
0.8669667,2236
0.8686333,2718
0.8703,2927
0.8719667,3971
0.8736333,4800
0.8753,4808
0.8769667,5195
0.8786333,4554
0.8803,4848
0.8819667,4990
0.8836333,4681
0.8853,5025
0.8869666,4178
0.8886333,4743
0.8903,4931
0.8919666,4591
0.8936333,4279
0.8953,4573
0.8969667,4075
0.8986334,4708
0.9003,4643
0.9019667,4765
0.9036334,4796
0.9053,4720
0.9069667,4574
0.9086334,4515
0.9103,4702
0.9119667,4991
0.9136333,4921
0.9153,4799
0.9169667,4365
0.9186333,3898
0.9203,4108
0.9219667,4219
0.9236333,4406
0.9253,4245
0.9269667,3866
0.9286333,3591
0.9303,4361
0.9319667,3561
0.9336333,3589
0.9353,3632
0.9369667,3379
0.9386333,3175
0.9403,2828
0.9419667,3128
0.9436333,2983
0.9453,2747
0.9469666,2442
0.9486333,2557
0.9503,2200
0.9519666,2291
0.9536333,1849
0.9553,2007
0.9569666,1458
0.9586333,1724
0.9603,1961
0.9619667,1352
0.9636334,1677
0.9653,1448
0.9669667,1478
0.9686334,1269
0.9703,1114
0.9719667,1168
0.9736333,1242
0.9753,1027
0.9769667,1091
0.9786333,1155
0.9803,980
0.9819667,965
0.9836333,845
0.9853,842
0.9869667,688
0.9886333,878
0.9903,805
0.9919667,854
0.9936333,700
0.9953,765
0.9969667,776
0.9986333,788
1.0003,726
1.001967,737
1.003633,731
1.0053,724
1.006967,711
1.008633,697
1.0103,693
1.011967,688
1.013633,556
1.0153,701
1.016967,668
1.018633,794
1.0203,700
1.021967,657
1.023633,717
1.0253,736
1.026967,606
1.028633,571
1.0303,637
1.031967,673
1.033633,710
1.0353,761
1.036967,816
1.038633,814
1.0403,812
1.041967,777
1.043633,686
1.0453,678
1.046967,635
1.048633,680
1.0503,725
1.051967,697
1.053633,669
1.0553,695
1.056967,717
1.058633,739
1.0603,763
1.061967,788
1.063633,754
1.0653,749
1.066967,649
1.068633,767
1.0703,774
1.071967,668
1.073633,790
1.0753,797
1.076967,891
1.078633,556
1.0803,761
1.081967,771
1.083633,669
1.0853,706
1.086967,708
1.088633,709
1.0903,748
1.091967,620
1.093633,708
1.0953,670
1.096967,684
1.098633,659
1.1003,663
1.101967,667
1.10365,627
1.1053,833
1.106967,901
1.108633,731
1.1103,667
1.111967,710
1.113633,740
1.1153,769
1.116967,739
1.118633,709
1.120317,795
1.121967,787
1.123633,799
1.1253,847
1.126967,635
1.128633,649
1.1303,662
1.131983,637
1.133633,611
1.1353,631
1.136967,633
1.13865,636
1.1403,651
1.141967,666
1.143633,665
1.1453,663
1.146967,690
1.148633,716
1.1503,782
1.151967,848
1.153633,875
1.155317,718
1.156967,701
1.158633,945
1.1603,806
1.161967,635
1.16365,862
1.1653,939
1.166967,689
1.168633,814
1.1703,716
1.171983,662
1.17365,675
1.1753,688
1.176983,728
1.178633,720
1.180317,712
1.181967,809
1.18365,859
1.1853,821
1.186967,723
1.18865,1067
1.190317,1026
1.191983,896
1.193633,1003
1.1953,846
1.196983,732
1.19865,786
