"SampleName","A2Rd2_01-45"
"Target Mass 1",
"Column Name","IA-3 (3um, 4.6X100)"
"Channel","QDa 1: SIR Ch2"
0.00195,597
0.003616667,568
0.005283333,535
0.00695,713
0.008616666,795
0.01028333,876
0.01195,926
0.01361667,975
0.01528333,930
0.01695,912
0.01861667,642
0.02028333,901
0.02195,962
0.02361667,830
0.02528333,930
0.02695,876
0.02861667,882
0.03028333,848
0.03195,814
0.03361667,650
0.03528333,801
0.03695,849
0.03861667,897
0.04028333,862
0.04195,826
0.04361667,946
0.04528333,930
0.04695,972
0.04861667,905
0.05028334,840
0.05195,814
0.05361667,870
0.05528333,823
0.05695,766
0.05861667,839
0.06028333,813
0.06195,788
0.06361666,889
0.06528334,834
0.06695,780
0.06861667,934
0.07028333,934
0.07195,775
0.07361667,616
0.07528333,1009
0.07695,803
0.07861666,835
0.08028334,943
0.08195,628
0.08361667,726
0.08528333,856
0.08695,885
0.08861667,955
0.09028333,847
0.09195,839
0.09361666,831
0.09528334,646
0.09695,935
0.09861667,970
0.1002833,854
0.10195,955
0.1036167,900
0.1052833,777
0.10695,769
0.1086167,893
0.1102833,744
0.11195,790
0.1136167,869
0.1152833,761
0.11695,661
0.1186167,713
0.1202833,807
0.12195,737
0.1236167,813
0.1252833,743
0.12695,747
0.1286167,682
0.1302833,793
0.13195,798
0.1336167,796
0.1352833,781
0.13695,735
0.1386167,764
0.1402833,762
0.14195,760
0.1436167,768
0.1452833,763
0.14695,758
0.1486167,817
0.1502833,896
0.15195,935
0.1536167,900
0.1552833,917
0.15695,892
0.1586167,867
0.1602833,973
0.16195,754
0.1636167,866
0.1652833,886
0.16695,710
0.1686167,883
0.1702833,711
0.17195,725
0.1736167,780
0.1752833,782
0.17695,783
0.1786167,703
0.1802833,849
0.18195,843
0.1836167,797
0.1852833,751
0.18695,787
0.1886167,822
0.1902833,854
0.19195,737
0.1936167,738
0.1952833,738
0.19695,727
0.1986167,715
0.2002833,744
0.20195,773
0.2036167,891
0.2052833,917
0.20695,968
0.2086167,751
0.2102833,792
0.21195,968
0.2136167,749
0.2152833,958
0.21695,1037
0.2186167,1089
0.2202833,945
0.22195,943
0.2236167,850
0.2252833,844
0.22695,838
0.2286167,943
0.2302833,938
0.23195,932
0.2336167,976
0.2352833,1098
0.23695,1247
0.2386167,1238
0.2402833,996
0.24195,981
0.2436167,989
0.2452833,1085
0.24695,1083
0.2486167,987
0.2502833,1045
0.25195,1102
0.2536167,955
0.2552833,808
0.25695,1204
0.2586167,1129
0.2602833,1160
0.26195,1173
0.2636167,1010
0.2652833,1005
0.26695,1080
0.2686167,1073
0.2702833,951
0.27195,1207
0.2736167,1158
0.2752833,925
0.27695,1031
0.2786167,940
0.2803,953
0.28195,918
0.2836167,910
0.2852833,1070
0.28695,1037
0.2886167,1004
0.2902833,1013
0.29195,1023
0.2936167,1077
0.2952833,1132
0.29695,1154
0.2986333,1143
0.3002833,1155
0.30195,1092
0.3036167,1079
0.3052833,994
0.30695,1135
0.3086167,1091
0.3102833,1048
0.31195,985
0.3136167,1036
0.3153,1088
0.31695,1122
0.3186333,1073
0.3202833,1024
0.32195,1161
0.3236167,1109
0.3252833,1103
0.3269667,1086
0.3286167,1069
0.3303,1186
0.33195,1303
0.3336333,1374
0.3353,1038
0.33695,1140
0.3386167,1261
0.3402833,1382
0.34195,1400
0.3436333,1402
0.3453,1229
0.34695,1456
0.3486333,1260
0.3503,1277
0.3519667,1374
0.3536333,1248
0.3553,1344
0.35695,1612
0.3586167,1673
0.3602833,1336
0.3619667,1344
0.3636167,1964
0.3653,3986
0.3669667,4619
0.3686333,5639
0.3703,5055
0.3719667,5284
0.3736333,4272
0.3753,4056
0.37695,2996
0.3786333,2187
0.3802833,1853
0.3819667,1368
0.3836333,1051
0.3853,652
0.38695,721
0.3886333,739
0.3902833,534
0.3919667,499
0.3936167,503
0.3952833,509
0.39695,502
0.3986333,500
0.4003,497
0.40195,595
0.4036333,614
0.4053,633
0.4069667,1197
0.4086333,1076
0.4102833,1084
0.4119667,1045
0.4136333,1068
0.4153,1165
0.4169667,1092
0.4186333,1018
0.4203,920
0.4219667,1093
0.4236333,835
0.4253,949
0.4269667,1004
0.4286333,1092
0.4303,1142
0.4319667,1192
0.4336333,1224
0.4353,1190
0.4369667,1237
0.4386333,1284
0.4403,1582
0.4419667,1583
0.4436333,1393
0.4453,1426
0.4469667,1400
0.4486333,1530
0.4503,1516
0.4519667,1309
0.4536333,1417
0.4553,1497
0.4569667,1576
0.4586333,1629
0.4603,1568
0.4619667,1835
0.4636333,1789
0.4653,1785
0.4669667,1663
0.4686333,1854
0.4703,1894
0.4719667,1694
0.4736333,1637
0.4753,1872
0.4769667,1436
0.4786333,1589
0.4803,1620
0.4819667,1686
0.4836333,1722
0.4853,1560
0.4869667,1586
0.4886333,1751
0.4903,1704
0.4919667,1693
0.4936333,1678
0.4953,1806
0.4969667,1415
0.4986333,1540
0.5003,1795
0.5019667,1703
0.5036333,1387
0.5053,1733
0.5069667,1847
0.5086333,1425
0.5103,1392
0.5119666,1281
0.5136333,1166
0.5153,1185
0.5169666,1041
0.5186333,1200
0.5203,1058
0.5219667,1128
0.5236334,1198
0.5253,1106
0.5269667,1014
0.5286334,1176
0.5303,1184
0.5319667,1192
0.5336334,1195
0.5353,1121
0.5369667,1145
0.5386333,1281
0.5403,1365
0.5419667,1391
0.5436333,1192
0.5453,1201
0.5469667,1364
0.5486333,1220
0.5503,1096
0.5519667,1199
0.5536333,1285
0.5553,1055
0.5569667,1283
0.5586333,1148
0.5603,1048
0.5619667,1010
0.5636333,1009
0.5653,938
0.5669667,928
0.5686333,918
0.5703,1188
0.5719666,1175
0.5736333,1121
0.5753,1097
0.5769666,1073
0.5786333,1060
0.5803,1065
0.5819666,1070
0.5836333,905
0.5853,1137
0.5869667,1328
0.5886334,1201
0.5903,1191
0.5919667,1179
0.5936334,875
0.5953,1055
0.5969667,1186
0.5986333,1053
0.6003,1215
0.6019667,1038
0.6036333,1039
0.6053,1034
0.6069667,1101
0.6086333,1037
0.6103,972
0.6119667,1178
0.6136333,1320
0.6153,1185
0.6169667,1220
0.6186333,1190
0.6203,1226
0.6219667,1206
0.6236333,1187
0.6253,1275
0.6269667,1363
0.6286333,1434
0.6303,1508
0.6319667,1465
0.6336333,1345
0.6353,1527
0.6369666,1405
0.6386333,1359
0.6403,1313
0.6419666,1382
0.6436333,1451
0.6453,1433
0.6469667,1414
0.6486334,1325
0.6503,1287
0.6519667,1245
0.6536334,1247
0.6553,1001
0.6569667,1204
0.6586334,1253
0.6603,968
0.6619667,1204
0.6636333,1223
0.6653,1117
0.6669667,990
0.6686333,1034
0.6703,888
0.6719667,974
0.6736333,1059
0.6753,1070
0.6769667,1011
0.6786333,1046
0.6803,1080
0.6819667,1361
0.6836333,1355
0.6853,1575
0.6869667,1660
0.6886333,1881
0.6903,2235
0.6919667,2467
0.6936333,2798
0.6953,2936
0.6969666,3695
0.6986333,4185
0.7003,4833
0.7019666,5371
0.7036333,5951
0.7053,6577
0.7069666,6795
0.7086333,7758
0.7103,8356
0.7119667,9548
0.7136334,9796
0.7153,9848
0.7169667,9500
0.7186334,9840
0.7203,10180
0.7219667,10064
0.7236333,9828
0.7253,8704
0.7269667,7628
0.7286333,7215
0.7303,6531
0.7319667,5608
0.7336333,4835
0.7353,4192
0.7369667,3732
0.7386333,3162
0.7403,2575
0.7419667,2435
0.7436333,2245
0.7453,2142
0.7469667,1732
0.7486333,1783
0.7503,1589
0.7519667,1476
0.7536333,1454
0.7553,1244
0.7569667,1550
0.7586333,1395
0.7603,1441
0.7619666,1259
0.7636333,1394
0.7653,1283
0.7669666,1278
0.7686333,1241
0.7703,1244
0.7719667,1248
0.7736334,1238
0.7753,1229
0.7769667,1155
0.7786334,1332
0.7803,1497
0.7819667,1495
0.7836334,1695
0.7853,2118
0.7869667,2330
0.7886333,2521
0.7903,3439
0.7919667,3653
0.7936333,4363
0.7953,5173
0.7969667,6024
0.7986333,7312
0.8003,7413
0.8019667,8284
0.8036333,9940
0.8053,10012
0.8069667,11924
0.8086333,12784
0.8103,14192
0.8119667,15212
0.8136333,15596
0.8153,15576
0.8169667,17136
0.8186333,17452
0.8203,18024
0.8219666,16820
0.8236333,16496
0.8253,15912
0.8269666,14928
0.8286333,13468
0.8303,12324
0.8319666,10464
0.8336333,9652
0.8353,9140
0.8369667,7682
0.8386334,6085
0.8403,5283
0.8419667,4899
0.8436334,3996
0.8453,3678
0.8469667,2914
0.8486333,3055
0.8503,2539
0.8519667,2250
0.8536333,2406
0.8553,1861
0.8569667,2037
0.8586333,1967
0.8603,1697
0.8619667,1875
0.8636333,1933
0.8653,1982
0.8669667,2051
0.8686333,2105
0.8703,2584
0.8719667,2515
0.8736333,2842
0.8753,2406
0.8769667,2311
0.8786333,2498
0.8803,2057
0.8819667,2360
0.8836333,2245
0.8853,1952
0.8869666,2235
0.8886333,1909
0.8903,1832
0.8919666,2022
0.8936333,2053
0.8953,1959
0.8969667,1658
0.8986334,1831
0.9003,1740
0.9019667,1792
0.9036334,1731
0.9053,1498
0.9069667,1684
0.9086334,1631
0.9103,1743
0.9119667,1738
0.9136333,1733
0.9153,1717
0.9169667,1701
0.9186333,1551
0.9203,1683
0.9219667,1593
0.9236333,1729
0.9253,1695
0.9269667,1649
0.9286333,1643
0.9303,1632
0.9319667,1622
0.9336333,1613
0.9353,1633
0.9369667,1505
0.9386333,1545
0.9403,1511
0.9419667,1477
0.9436333,1611
0.9453,1541
0.9469666,1471
0.9486333,1578
0.9503,1561
0.9519666,1806
0.9536333,1946
0.9553,2285
0.9569666,2497
0.9586333,3138
0.9603,3389
0.9619667,3938
0.9636334,4511
0.9653,6216
0.9669667,6607
0.9686334,8091
0.9703,9396
0.9719667,10340
0.9736333,12264
0.9753,15000
0.9769667,17296
0.9786333,19140
0.9803,22888
0.9819667,27152
0.9836333,29820
0.9853,34352
0.9869667,37392
0.9886333,41584
0.9903,46656
0.9919667,48224
0.9936333,53824
0.9953,56064
0.9969667,59920
0.9986333,64768
1.0003,65136
1.001967,69072
1.003633,71296
1.0053,73424
1.006967,71584
1.008633,71360
1.0103,70336
1.011967,69360
1.013633,67920
1.0153,65648
1.016967,57856
1.018633,54336
1.0203,50896
1.021967,45936
1.023633,43072
1.0253,38528
1.026967,32072
1.028633,29636
1.0303,27624
1.031967,23560
1.033633,22080
1.0353,19000
1.036967,17224
1.038633,15228
1.0403,15812
1.041967,14456
1.043633,12948
1.0453,12756
1.046967,12212
1.048633,10756
1.0503,11160
1.051967,10792
1.053633,10300
1.0553,9872
1.056967,10308
1.058633,8964
1.0603,9468
1.061967,9584
1.063633,9092
1.0653,9336
1.066967,8864
1.068633,8163
1.0703,8086
1.071967,8500
1.073633,8640
1.0753,8760
1.076967,8800
1.078633,9532
1.0803,9452
1.081967,9420
1.083633,10264
1.0853,10876
1.086967,11772
1.088633,11700
1.0903,12412
1.091967,12716
1.093633,13152
1.0953,13448
1.096967,14528
1.098633,14944
1.1003,15468
1.101967,14788
1.103633,15164
1.1053,15960
1.106967,15440
1.108633,14920
1.1103,14352
1.111967,14548
1.113633,14580
1.1153,14096
1.116967,13332
1.118633,11848
1.1203,11820
1.121967,10376
1.123633,10516
1.1253,9212
1.126967,8224
1.128633,7792
1.1303,7461
1.131967,6655
1.133633,5859
1.1353,5543
1.136967,5018
1.138633,4885
1.1403,4046
1.141967,4212
1.143633,4269
1.1453,3525
1.146967,4007
1.148633,3358
1.1503,2724
1.151967,2880
1.153633,2965
1.1553,2615
1.156967,2895
1.158633,2670
1.1603,2289
1.161967,2261
1.163633,1918
1.1653,1941
1.166967,1963
1.168633,1848
1.1703,1890
1.171967,1547
1.173633,2069
1.1753,1956
1.176967,1818
1.178633,1702
1.1803,1918
1.181967,1874
1.183633,1770
1.1853,1535
1.186967,1894
1.188633,1710
1.1903,1750
1.191967,1790
1.193633,1762
1.1953,1734
1.196967,1889
1.198633,1990
