"SampleName","A2Rd2_01-81"
"Target Mass 1",
"Column Name","IA-3 (3um, 4.6X100)"
"Channel","QDa 1: SIR Ch1"
0.00195,394
0.003616667,495
0.005283333,649
0.00695,574
0.008616666,547
0.01028333,636
0.01195,459
0.01361667,600
0.01528333,676
0.01695,589
0.01861667,670
0.02028333,612
0.02195,586
0.02361667,570
0.02528333,559
0.02695,511
0.02861667,415
0.03028333,465
0.03195,472
0.03361667,478
0.03528333,500
0.03695,521
0.03861667,505
0.04028333,490
0.04195,477
0.04361667,574
0.04528333,566
0.04695,527
0.04861667,463
0.05028334,604
0.05195,497
0.05361667,442
0.05528333,490
0.05695,538
0.05861667,606
0.06028333,579
0.06195,564
0.06361666,568
0.06528334,495
0.06695,570
0.06861667,545
0.07028333,519
0.07195,580
0.07361667,544
0.07528333,491
0.07695,516
0.07861666,529
0.08028334,542
0.08195,554
0.08361667,482
0.08528333,480
0.08695,476
0.08861667,558
0.09028333,568
0.09195,494
0.09361666,566
0.09528334,408
0.09695,518
0.09861667,652
0.1002833,586
0.10195,410
0.1036167,538
0.1052833,467
0.10695,468
0.1086167,555
0.1102833,525
0.11195,495
0.1136167,571
0.1152833,537
0.11695,370
0.1186167,499
0.1202833,510
0.12195,553
0.1236167,526
0.1252833,528
0.12695,506
0.1286167,466
0.1302833,478
0.13195,491
0.1336167,484
0.1352833,477
0.13695,527
0.1386167,422
0.1402833,588
0.14195,667
0.1436167,415
0.1452833,463
0.14695,557
0.1486167,386
0.1502833,481
0.15195,568
0.1536167,439
0.1552833,600
0.15695,404
0.1586167,436
0.1602833,577
0.16195,556
0.1636167,506
0.1652833,396
0.16695,546
0.1686167,629
0.1702833,735
0.17195,614
0.1736167,569
0.1752833,550
0.17695,466
0.1786167,516
0.1802833,526
0.18195,537
0.1836167,529
0.1852833,384
0.18695,431
0.1886167,430
0.1902833,429
0.19195,507
0.1936167,511
0.1952833,515
0.19695,521
0.1986167,519
0.2002833,517
0.20195,437
0.2036167,529
0.2052833,391
0.20695,392
0.2086167,394
0.2103,604
0.21195,552
0.2136167,519
0.2152833,537
0.21695,513
0.2186167,507
0.2202833,501
0.22195,496
0.2236167,542
0.2252833,504
0.22695,466
0.2286167,453
0.2302833,442
0.23195,431
0.2336167,507
0.2352833,462
0.23695,418
0.2386167,577
0.2402833,523
0.24195,559
0.2436167,462
0.2452833,424
0.24695,406
0.2486167,553
0.2502833,566
0.25195,407
0.2536167,430
0.2552833,482
0.25695,470
0.2586167,463
0.2602833,437
0.26195,457
0.2636333,476
0.2652833,452
0.26695,467
0.2686333,295
0.2702833,359
0.27195,422
0.2736167,547
0.2752833,470
0.27695,516
0.2786167,562
0.2803,599
0.28195,458
0.2836167,364
0.2852833,394
0.28695,445
0.2886167,418
0.2902833,444
0.29195,470
0.2936333,473
0.2952833,464
0.29695,575
0.2986333,571
0.3002833,556
0.30195,540
0.3036167,622
0.3052833,695
0.30695,651
0.3086167,622
0.3102833,598
0.31195,530
0.3136167,642
0.3153,548
0.31695,623
0.3186333,559
0.3202833,562
0.32195,565
0.3236167,541
0.3252833,603
0.32695,478
0.3286167,359
0.3302833,462
0.3319667,444
0.3336333,549
0.3352833,575
0.3369667,492
0.3386167,408
0.3402833,428
0.34195,495
0.3436333,456
0.3452833,418
0.3469667,536
0.3486333,551
0.3503,460
0.35195,499
0.3536333,515
0.3552833,531
0.3569667,392
0.3586167,559
0.3603,723
0.36195,666
0.3636333,800
0.3653,899
0.3669667,1400
0.3686333,2509
0.3703,3800
0.3719667,4740
0.3736333,6088
0.3753,6061
0.3769667,6701
0.3786333,7536
0.3803,7296
0.3819667,5795
0.3836333,5382
0.3853,4461
0.3869667,4140
0.3886333,3826
0.3903,3481
0.3919667,2569
0.3936333,2004
0.3953,1487
0.3969667,1323
0.3986333,1132
0.4003,1234
0.4019667,1270
0.4036333,1305
0.4053,1306
0.4069667,1307
0.4086333,1346
0.4103,1465
0.4119667,1398
0.4136333,1332
0.4153,1338
0.4169667,1345
0.4186333,1633
0.4203,1874
0.4219667,1804
0.4236333,1732
0.4253,1976
0.4269667,1842
0.4286333,1707
0.4303,1651
0.4319667,1824
0.4336333,1965
0.4353,2155
0.4369667,2557
0.4386333,3707
0.4403,5551
0.4419667,8796
0.4436333,13116
0.4453,19144
0.4469667,26440
0.4486333,37296
0.4503,49568
0.4519667,62560
0.4536333,78976
0.4553,90256
0.4569667,103760
0.4586333,118928
0.4603,133760
0.4619667,145344
0.4636333,161536
0.4653,176576
0.4669667,192512
0.4686333,209856
0.4703,224960
0.4719667,241152
0.4736333,246144
0.4753,249024
0.4769667,243712
0.4786333,228608
0.4803,208384
0.4819667,187712
0.4836333,162048
0.4853,133120
0.4869667,109552
0.4886333,89792
0.4903,70544
0.4919667,55056
0.4936333,44448
0.4953,32864
0.4969667,25640
0.4986333,18828
0.5003,15432
0.5019667,12220
0.5036333,10268
0.5053,8992
0.5069667,7169
0.5086333,6170
0.5103,5713
0.5119666,4575
0.5136333,4839
0.5153,4171
0.5169666,3760
0.5186333,3788
0.5203,3568
0.5219667,3677
0.5236334,3235
0.5253,3112
0.5269667,2902
0.5286334,2935
0.5303,2871
0.5319667,2564
0.5336334,2504
0.5353,2550
0.5369667,2409
0.5386333,2275
0.5403,2141
0.5419667,2244
0.5436333,2430
0.5453,2462
0.5469667,2029
0.5486333,1691
0.5503,1929
0.5519667,1843
0.5536333,1778
0.5553,1682
0.5569667,1454
0.5586333,1600
0.5603,1613
0.5619667,1565
0.5636333,1466
0.5653,1588
0.5669667,1529
0.5686333,1441
0.5703,1308
0.5719666,1451
0.5736333,1484
0.5753,1379
0.5769666,1279
0.5786333,1486
0.5803,1306
0.5819666,1425
0.5836333,1220
0.5853,1167
0.5869667,1261
0.5886334,1177
0.5903,1165
0.5919667,1192
0.5936334,1219
0.5953,1271
0.5969667,1266
0.5986333,1308
0.6003,1351
0.6019667,1386
0.6036333,1431
0.6053,1333
0.6069667,1235
0.6086333,1367
0.6103,1412
0.6119667,1456
0.6136333,1151
0.6153,1303
0.6169667,1324
0.6186333,1363
0.6203,1327
0.6219667,1259
0.6236333,1190
0.6253,1242
0.6269667,1249
0.6286333,1256
0.6303,1266
0.6319667,1283
0.6336333,1300
0.6353,1077
0.6369666,1081
0.6386333,1127
0.6403,1121
0.6419666,777
0.6436333,1081
0.6453,856
0.6469667,1161
0.6486334,917
0.6503,919
0.6519667,1162
0.6536334,894
0.6553,913
0.6569667,828
0.6586334,709
0.6603,854
0.6619667,832
0.6636333,810
0.6653,915
0.6669667,897
0.6686333,865
0.6703,845
0.6719667,984
0.6736333,723
0.6753,728
0.6769667,843
0.6786333,714
0.6803,821
0.6819667,919
0.6836333,847
0.6853,851
0.6869667,689
0.6886333,857
0.6903,914
0.6919667,766
0.6936333,735
0.6953,907
0.6969666,689
0.6986333,789
0.7003,721
0.7019666,756
0.7036333,769
0.7053,780
0.7069666,677
0.7086333,801
0.7103,718
0.7119667,694
0.7136334,712
0.7153,729
0.7169667,724
0.7186334,719
0.7203,753
0.7219667,786
0.7236333,751
0.7253,716
0.7269667,788
0.7286333,804
0.7303,737
0.7319667,671
0.7336333,759
0.7353,616
0.7369667,645
0.7386333,673
0.7403,846
0.7419667,862
0.7436333,781
0.7453,706
0.7469667,790
0.7486333,810
0.7503,617
0.7519667,768
0.7536333,871
0.7553,672
0.7569667,793
0.7586333,612
0.7603,691
0.7619666,770
0.7636333,827
0.7653,728
0.7669666,742
0.7686333,757
0.7703,710
0.7719667,764
0.7736334,684
0.7753,714
0.7769667,745
0.7786334,812
0.7803,614
0.7819667,630
0.7836334,834
0.7853,821
0.7869667,676
0.7886333,858
0.7903,650
0.7919667,758
0.7936333,689
0.7953,748
0.7969667,635
0.7986333,679
0.8003,678
0.8019667,677
0.8036333,692
0.8053,691
0.8069667,689
0.8086333,781
0.8103,767
0.8119667,754
0.8136333,753
0.8153,752
0.8169667,791
0.8186333,809
0.8203,623
0.8219666,902
0.8236333,855
0.8253,617
0.8269666,635
0.8286333,732
0.8303,768
0.8319666,619
0.8336333,664
0.8353,743
0.8369667,682
0.8386334,685
0.8403,689
0.8419667,647
0.8436334,697
0.8453,592
0.8469667,758
0.8486333,815
0.8503,840
0.8519667,679
0.8536333,684
0.8553,770
0.8569667,751
0.8586333,626
0.8603,605
0.8619667,733
0.8636333,669
0.8653,617
0.8669667,692
0.8686333,625
0.8703,585
0.8719667,694
0.8736333,520
0.8753,616
0.8769667,793
0.8786333,818
0.8803,1036
0.8819667,1447
0.8836333,1607
0.8853,1903
0.8869666,2459
0.8886333,2809
0.8903,2914
0.8919666,3205
0.8936333,3287
0.8953,3177
0.8969667,3209
0.8986334,3240
0.9003,3250
0.9019667,3260
0.9036334,3354
0.9053,3793
0.9069667,3799
0.9086334,3526
0.9103,3643
0.9119667,3638
0.9136333,3534
0.9153,3521
0.9169667,3523
0.9186333,3525
0.9203,3592
0.9219667,3388
0.9236333,3539
0.9253,3052
0.9269667,3215
0.9286333,3287
0.9303,3327
0.9319667,3357
0.9336333,3274
0.9353,3274
0.9369667,2633
0.9386333,3084
0.9403,3039
0.9419667,2995
0.9436333,2716
0.9453,2375
0.9469666,2475
0.9486333,2318
0.9503,2386
0.9519666,2377
0.9536333,1963
0.9553,2007
0.9569666,2018
0.9586333,1664
0.9603,1987
0.9619667,1653
0.9636334,1541
0.9653,1310
0.9669667,1257
0.9686334,1234
0.9703,1204
0.9719667,1174
0.9736333,1215
0.9753,1116
0.9769667,838
0.9786333,996
0.9803,827
0.9819667,796
0.9836333,803
0.9853,783
0.9869667,830
0.9886333,668
0.9903,684
0.9919667,654
0.9936333,550
0.9953,693
0.9969667,589
0.9986333,633
1.0003,636
1.001967,520
1.003633,539
1.0053,710
1.006967,627
1.008633,700
1.0103,689
1.011967,466
1.013633,558
1.0153,499
1.016967,475
1.018633,451
1.0203,602
1.021967,600
1.023633,678
1.0253,553
1.026967,515
1.028633,551
1.0303,587
1.031967,569
1.033633,552
1.0353,622
1.036967,610
1.038633,598
1.0403,550
1.041967,501
1.043633,521
1.0453,495
1.046967,543
1.048633,535
1.0503,526
1.051967,580
1.053633,568
1.0553,610
1.056967,520
1.058633,573
1.0603,626
1.061967,522
1.063633,642
1.0653,675
1.066967,549
1.068633,684
1.0703,607
1.071967,556
1.073633,522
1.0753,569
1.076967,575
1.078633,561
1.0803,547
1.081967,599
1.083633,613
1.0853,628
1.086967,647
1.088633,641
1.0903,634
1.091967,530
1.093633,667
1.0953,706
1.096967,618
1.098633,505
1.1003,573
1.101967,651
1.103633,641
1.1053,631
1.106967,554
1.108633,651
1.1103,594
1.111967,537
1.113633,670
1.1153,673
1.116967,676
1.118633,586
1.1203,619
1.121967,609
1.123633,599
1.1253,429
1.126967,764
1.128633,799
1.1303,586
1.131967,602
1.133633,630
1.1353,545
1.136967,564
1.138633,676
1.1403,677
1.141967,645
1.143633,651
1.1453,465
1.146967,676
1.148633,704
1.1503,638
1.151967,651
1.153633,463
1.1553,690
1.156967,523
1.158633,684
1.1603,453
1.161967,663
1.163633,619
1.1653,658
1.166967,558
1.168633,746
1.1703,743
1.171967,537
1.173633,563
1.1753,619
1.176967,555
1.178633,492
1.1803,575
1.181967,532
1.183633,489
1.1853,499
1.186967,538
1.188633,539
1.1903,539
1.191967,534
1.193633,528
1.1953,571
1.196967,614
1.198633,620
