"SampleName","A2Rd2_01-84"
"Target Mass 1",
"Column Name","IA-3 (3um, 4.6X100)"
"Channel","QDa 1: SIR Ch1"
0.00195,435
0.003616667,537
0.005283333,503
0.00695,492
0.008616666,480
0.01028333,551
0.01195,622
0.01361667,634
0.01528333,613
0.01695,601
0.01861667,545
0.02028333,461
0.02195,484
0.02361667,508
0.02528333,438
0.02695,558
0.02861667,581
0.03028333,464
0.03195,501
0.03361667,487
0.03528333,457
0.03695,411
0.03861667,449
0.04028333,410
0.04195,548
0.04361667,526
0.04528333,478
0.04695,561
0.04861667,436
0.05028334,469
0.05195,441
0.05361667,627
0.05528333,643
0.05695,556
0.05861667,490
0.06028333,583
0.06195,532
0.06361666,481
0.06528334,465
0.06695,449
0.06861667,483
0.07028333,435
0.07195,477
0.07361667,525
0.07528333,522
0.07695,519
0.07861666,515
0.08028334,592
0.08195,422
0.08361667,499
0.08528333,428
0.08695,461
0.08861667,477
0.09028333,493
0.09195,471
0.09361666,477
0.09528334,441
0.09695,467
0.09861667,412
0.1002833,541
0.10195,542
0.1036167,402
0.1052833,594
0.10695,445
0.1086167,529
0.1102833,466
0.11195,435
0.1136167,458
0.1152833,505
0.11695,489
0.1186167,474
0.1202833,502
0.12195,530
0.1236167,436
0.1252833,492
0.12695,336
0.1286167,461
0.1302833,514
0.13195,491
0.1336167,559
0.1352833,529
0.13695,548
0.1386167,448
0.1402833,406
0.14195,511
0.1436167,576
0.1452833,580
0.14695,610
0.1486167,571
0.1502833,564
0.15195,521
0.1536167,518
0.1552833,469
0.15695,532
0.1586167,444
0.1602833,356
0.16195,485
0.1636167,478
0.1652833,424
0.16695,370
0.1686167,521
0.1702833,462
0.17195,386
0.1736167,432
0.1752833,472
0.17695,387
0.1786167,426
0.1802833,459
0.18195,434
0.1836167,409
0.1852833,403
0.18695,387
0.1886167,370
0.1902833,384
0.19195,499
0.1936167,582
0.1952833,504
0.19695,497
0.1986167,524
0.2002833,403
0.20195,567
0.2036167,461
0.2052833,533
0.20695,472
0.2086167,428
0.2102833,462
0.21195,480
0.2136167,405
0.2152833,405
0.21695,533
0.2186167,479
0.2202833,525
0.22195,559
0.2236167,353
0.2252833,386
0.22695,384
0.2286167,374
0.2302833,364
0.23195,410
0.2336167,409
0.2352833,409
0.23695,428
0.2386167,448
0.2402833,448
0.24195,434
0.2436167,421
0.2452833,424
0.24695,487
0.2486167,479
0.2502833,471
0.25195,521
0.2536167,509
0.2552833,399
0.25695,397
0.2586167,434
0.2602833,525
0.26195,534
0.2636167,422
0.2652833,379
0.26695,438
0.2686167,456
0.2702833,391
0.27195,355
0.2736167,506
0.2752833,516
0.27695,473
0.2786167,431
0.2803,471
0.28195,489
0.2836167,460
0.2852833,443
0.28695,473
0.2886167,506
0.2902833,542
0.29195,511
0.2936167,468
0.2952833,473
0.29695,437
0.2986333,437
0.3002833,437
0.30195,461
0.3036167,483
0.3052833,505
0.30695,489
0.3086167,437
0.3102833,438
0.31195,567
0.3136167,584
0.3153,546
0.31695,666
0.3186167,682
0.3202833,628
0.32195,686
0.3236167,485
0.3252833,448
0.32695,459
0.3286167,444
0.3302833,448
0.33195,453
0.3336333,518
0.3352833,533
0.33695,560
0.3386333,458
0.3402833,507
0.34195,602
0.3436167,610
0.3452833,450
0.34695,561
0.3486167,592
0.3503,593
0.35195,594
0.3536167,570
0.3552833,620
0.35695,455
0.3586167,616
0.3602833,492
0.36195,677
0.3636167,985
0.3652833,1186
0.3669667,1934
0.3686333,3705
0.3702833,5138
0.37195,6824
0.3736333,6437
0.3752833,7430
0.37695,8252
0.3786167,8620
0.3802833,8356
0.3819667,7086
0.3836333,6249
0.3853,5756
0.38695,4555
0.3886333,3704
0.3903,3161
0.3919667,2994
0.3936167,2241
0.3952833,1678
0.39695,1588
0.3986333,1708
0.4003,1308
0.4019667,1473
0.4036333,1363
0.4053,1453
0.4069667,1552
0.4086333,1317
0.4103,1346
0.41195,1727
0.4136167,1562
0.4153,1747
0.4169667,1827
0.4186333,1909
0.4203,1619
0.4219667,1849
0.4236333,1997
0.4252833,1962
0.4269667,1770
0.4286333,1867
0.4303,1898
0.4319667,2070
0.4336333,2134
0.4353,2650
0.4369667,3274
0.4386333,4938
0.4403,7300
0.4419667,11532
0.4436333,16636
0.4453,24000
0.4469667,33136
0.4486333,46256
0.4503,60992
0.4519667,74832
0.4536333,91200
0.4553,105920
0.4569667,117264
0.4586333,134592
0.4603,143616
0.4619667,155776
0.4636333,169344
0.4653,183232
0.4669667,199296
0.4686333,216064
0.4703,237952
0.4719667,250304
0.4736333,256128
0.4753,259968
0.4769667,257984
0.4786333,246976
0.4803,223360
0.4819667,204096
0.4836333,176448
0.4853,149952
0.4869667,127664
0.4886333,101984
0.4903,82624
0.4919667,66208
0.4936333,49968
0.4953,39888
0.4969667,30152
0.4986333,22360
0.5003,17932
0.5019667,15776
0.5036333,11708
0.5053,10300
0.5069667,7771
0.5086333,7233
0.5103,6542
0.5119666,5644
0.5136333,5052
0.5153,4715
0.5169666,4125
0.5186333,3737
0.5203,4176
0.5219667,3676
0.5236334,3421
0.5253,3168
0.5269667,3672
0.5286334,2841
0.5303,3548
0.5319667,2760
0.5336334,2174
0.5353,2871
0.5369667,2396
0.5386333,2233
0.5403,2467
0.5419667,2523
0.5436333,2225
0.5453,2530
0.5469667,2000
0.5486333,2193
0.5503,1822
0.5519667,1935
0.5536333,1578
0.5553,1613
0.5569667,1763
0.5586333,1776
0.5603,1852
0.5619667,1446
0.5636333,1457
0.5653,1561
0.5669667,1303
0.5686333,1438
0.5703,1336
0.5719666,1333
0.5736333,1330
0.5753,1230
0.5769666,1130
0.5786333,1149
0.5803,1249
0.5819666,1306
0.5836333,1347
0.5853,1280
0.5869667,1312
0.5886334,1163
0.5903,1185
0.5919667,1207
0.5936334,1171
0.5953,1136
0.5969667,1126
0.5986333,1117
0.6003,1154
0.6019667,1196
0.6036333,1251
0.6053,1247
0.6069667,1247
0.6086333,1247
0.6103,1259
0.6119667,1250
0.6136333,1241
0.6153,1268
0.6169667,1336
0.6186333,1091
0.6203,1415
0.6219667,1076
0.6236333,1256
0.6253,1208
0.6269667,1226
0.6286333,907
0.6303,1023
0.6319667,1025
0.6336333,1055
0.6353,1002
0.6369666,779
0.6386333,951
0.6403,1132
0.6419666,995
0.6436333,815
0.6453,1030
0.6469667,883
0.6486334,966
0.6503,1001
0.6519667,790
0.6536334,723
0.6553,784
0.6569667,832
0.6586334,804
0.6603,775
0.6619667,818
0.6636333,861
0.6653,562
0.6669667,795
0.6686333,775
0.6703,830
0.6719667,842
0.6736333,816
0.6753,731
0.6769667,647
0.6786333,732
0.6803,583
0.6819667,741
0.6836333,842
0.6853,848
0.6869667,649
0.6886333,887
0.6903,811
0.6919667,765
0.6936333,622
0.6953,674
0.6969666,694
0.6986333,715
0.7003,745
0.7019666,620
0.7036333,667
0.7053,785
0.7069666,677
0.7086333,678
0.7103,648
0.7119667,622
0.7136334,691
0.7153,609
0.7169667,581
0.7186334,480
0.7203,773
0.7219667,737
0.7236333,516
0.7253,609
0.7269667,672
0.7286333,638
0.7303,604
0.7319667,651
0.7336333,721
0.7353,688
0.7369667,597
0.7386333,472
0.7403,522
0.7419667,689
0.7436333,725
0.7453,573
0.7469667,719
0.7486333,454
0.7503,618
0.7519667,647
0.7536333,634
0.7553,621
0.7569667,593
0.7586333,604
0.7603,615
0.7619666,622
0.7636333,630
0.7653,596
0.7669666,563
0.7686333,619
0.7703,590
0.7719667,645
0.7736334,603
0.7753,562
0.7769667,635
0.7786334,577
0.7803,520
0.7819667,551
0.7836334,552
0.7853,553
0.7869667,626
0.7886333,601
0.7903,575
0.7919667,541
0.7936333,599
0.7953,660
0.7969667,645
0.7986333,628
0.8003,596
0.8019667,532
0.8036333,709
0.8053,648
0.8069667,776
0.8086333,593
0.8103,802
0.8119667,507
0.8136333,577
0.8153,665
0.8169667,594
0.8186333,522
0.8203,653
0.8219666,702
0.8236333,712
0.8253,763
0.8269666,620
0.8286333,509
0.8303,580
0.8319666,494
0.8336333,635
0.8353,596
0.8369667,690
0.8386334,648
0.8403,606
0.8419667,616
0.8436334,626
0.8453,617
0.8469667,608
0.8486333,612
0.8503,588
0.8519667,685
0.8536333,751
0.8553,804
0.8569667,624
0.8586333,590
0.8603,764
0.8619667,606
0.8636333,744
0.8653,517
0.8669667,669
0.8686333,388
0.8703,616
0.8719667,553
0.8736333,663
0.8753,864
0.8769667,1160
0.8786333,1196
0.8803,1468
0.8819667,1665
0.8836333,1952
0.8853,2052
0.8869666,2083
0.8886333,2040
0.8903,2284
0.8919666,2266
0.8936333,2302
0.8953,2274
0.8969667,2260
0.8986334,2340
0.9003,2157
0.9019667,2343
0.9036334,2414
0.9053,2328
0.9069667,2194
0.9086334,1871
0.9103,2167
0.9119667,1945
0.9136333,2224
0.9153,2291
0.9169667,2386
0.9186333,2261
0.9203,2127
0.9219667,2451
0.9236333,1979
0.9253,2436
0.9269667,2201
0.9286333,1937
0.9303,2421
0.9319667,2308
0.9336333,2195
0.9353,2145
0.9369667,2017
0.9386333,1863
0.9403,1932
0.9419667,2067
0.9436333,1732
0.9453,1978
0.9469666,1947
0.9486333,1824
0.9503,1672
0.9519666,1536
0.9536333,1565
0.9553,1355
0.9569666,1325
0.9586333,1195
0.9603,1362
0.9619667,1310
0.9636334,1258
0.9653,1197
0.9669667,921
0.9686334,799
0.9703,921
0.9719667,887
0.9736333,854
0.9753,798
0.9769667,858
0.9786333,778
0.9803,571
0.9819667,663
0.9836333,595
0.9853,693
0.9869667,554
0.9886333,531
0.9903,706
0.9919667,466
0.9936333,409
0.9953,564
0.9969667,526
0.9986333,492
1.0003,433
1.001967,429
1.003633,425
1.0053,456
1.006967,486
1.008633,543
1.0103,529
1.011967,410
1.013633,454
1.0153,383
1.016967,513
1.018633,555
1.0203,529
1.021967,534
1.023633,476
1.0253,463
1.026967,439
1.028633,415
1.0303,436
1.031967,448
1.033633,460
1.0353,481
1.036967,501
1.038633,524
1.0403,548
1.041967,367
1.043633,381
1.0453,579
1.046967,423
1.048633,515
1.0503,458
1.051967,442
1.053633,478
1.0553,462
1.056967,447
1.058633,446
1.0603,372
1.061967,510
1.063633,505
1.0653,574
1.066967,501
1.068633,452
1.0703,581
1.071967,398
1.073633,672
1.0753,598
1.076967,436
1.078633,499
1.0803,479
1.081967,497
1.083633,519
1.0853,541
1.086967,630
1.088633,508
1.0903,387
1.091967,567
1.093633,387
1.0953,637
1.096967,577
1.098633,440
1.1003,554
1.101967,408
1.103633,526
1.1053,448
1.106967,560
1.108633,571
1.1103,425
1.111967,476
1.113633,527
1.1153,522
1.116967,518
1.118633,516
1.1203,514
1.121967,527
1.123633,582
1.1253,581
1.126967,440
1.128633,569
1.1303,531
1.131967,448
1.133633,603
1.1353,514
1.136967,470
1.138633,525
1.1403,537
1.141967,549
1.143633,515
1.1453,540
1.146967,405
1.148633,498
1.1503,518
1.151967,560
1.153633,630
1.1553,637
1.156967,535
1.158633,510
1.1603,488
1.161967,485
1.163633,482
1.1653,514
1.166967,483
1.168633,453
1.1703,473
1.171967,492
1.173633,510
1.1753,447
1.176967,564
1.178633,538
1.1803,512
1.181967,574
1.183633,594
1.1853,576
1.186967,559
1.188633,513
1.1903,570
1.191967,437
1.193633,553
1.1953,593
1.196967,480
1.198633,541
