"SampleName","A2Rd2_01-87"
"Target Mass 1",
"Column Name","IA-3 (3um, 4.6X100)"
"Channel","QDa 1: SIR Ch1"
0.00195,355
0.003616667,535
0.005283333,439
0.00695,414
0.008616666,468
0.01028333,522
0.01195,288
0.01361667,559
0.01528333,579
0.01695,646
0.01861667,658
0.02028333,629
0.02195,617
0.02361667,433
0.02528333,548
0.02695,467
0.02861667,446
0.03028333,426
0.03195,471
0.03361667,516
0.03528333,525
0.03695,542
0.03861667,516
0.04028333,482
0.04195,553
0.04361667,485
0.04528333,522
0.04695,563
0.04861667,402
0.05028334,507
0.05195,425
0.05361667,562
0.05528333,527
0.05695,490
0.05861667,404
0.06028333,439
0.06195,474
0.06361666,549
0.06528334,601
0.06695,577
0.06861667,553
0.07028333,527
0.07195,566
0.07361667,560
0.07528333,517
0.07695,560
0.07861666,411
0.08028334,459
0.08195,456
0.08361667,487
0.08528333,518
0.08695,516
0.08861667,514
0.09028333,507
0.09195,494
0.09361666,497
0.09528334,474
0.09695,479
0.09861667,483
0.1002833,469
0.10195,488
0.1036167,506
0.1052833,542
0.10695,520
0.1086167,498
0.1102833,626
0.11195,593
0.1136167,560
0.1152833,484
0.11695,414
0.1186167,556
0.1202833,600
0.12195,351
0.1236167,527
0.1252833,462
0.12695,420
0.1286167,399
0.1302833,378
0.13195,535
0.1336167,572
0.1352833,462
0.13695,595
0.1386167,508
0.1402833,577
0.14195,575
0.1436167,570
0.1452833,535
0.14695,576
0.1486167,467
0.1502833,572
0.15195,446
0.1536167,440
0.1552833,576
0.15695,483
0.1586167,489
0.1602833,441
0.16195,485
0.1636167,529
0.1652833,539
0.16695,498
0.1686167,404
0.1702833,554
0.17195,535
0.1736167,503
0.1752833,437
0.17695,487
0.1786167,537
0.1802833,405
0.18195,644
0.1836167,567
0.1852833,479
0.18695,381
0.1886167,543
0.1902833,499
0.19195,603
0.1936167,475
0.1952833,548
0.19695,552
0.1986167,494
0.2002833,521
0.20195,382
0.2036167,544
0.2052833,470
0.20695,448
0.2086167,426
0.2102833,452
0.21195,565
0.2136167,539
0.2152833,494
0.21695,385
0.2186167,536
0.2202833,533
0.22195,531
0.2236167,535
0.2252833,537
0.22695,535
0.2286167,518
0.2302833,500
0.23195,414
0.2336167,533
0.2352833,399
0.23695,465
0.2386167,460
0.2402833,456
0.24195,525
0.2436167,524
0.2453,418
0.24695,493
0.2486167,606
0.2502833,540
0.25195,577
0.2536167,566
0.2552833,571
0.25695,407
0.2586167,460
0.2602833,539
0.26195,575
0.2636333,482
0.2652833,427
0.26695,386
0.2686167,444
0.2702833,460
0.27195,475
0.2736167,484
0.2752833,492
0.27695,452
0.2786167,512
0.2803,497
0.28195,482
0.2836167,396
0.2853,638
0.28695,569
0.2886167,507
0.2902833,447
0.29195,285
0.2936333,500
0.2952833,585
0.29695,596
0.2986333,551
0.3002833,423
0.3019667,641
0.3036167,506
0.3053,472
0.30695,490
0.3086167,593
0.3103,601
0.31195,555
0.3136167,542
0.3153,488
0.31695,541
0.3186333,494
0.3202833,447
0.3219667,491
0.3236167,548
0.3252833,522
0.3269667,572
0.3286167,488
0.3302833,552
0.33195,600
0.3336333,571
0.3353,555
0.3369667,511
0.3386333,522
0.3402833,473
0.34195,417
0.3436333,498
0.3452833,503
0.34695,525
0.3486167,466
0.3503,506
0.3519667,544
0.3536333,494
0.3553,557
0.3569667,547
0.3586167,504
0.3603,624
0.36195,618
0.3636167,807
0.3652833,1185
0.3669667,2222
0.3686333,3395
0.3703,4891
0.3719667,5536
0.3736333,6210
0.3753,7082
0.3769667,6704
0.3786333,6827
0.3803,6950
0.3819667,5648
0.3836333,4723
0.3853,4467
0.3869667,3853
0.3886333,3288
0.3903,3002
0.3919667,2043
0.3936333,1806
0.3953,1383
0.3969667,1141
0.3986333,1064
0.4003,1212
0.4019667,1040
0.4036333,821
0.4053,890
0.4069667,1108
0.4086333,1021
0.4103,935
0.4119667,1192
0.4136333,1103
0.4153,1105
0.4169667,1027
0.4186333,1150
0.4203,1043
0.4219667,1148
0.4236333,1160
0.4253,1187
0.4269667,1093
0.4286333,1212
0.4303,1118
0.4319667,1433
0.4336333,1745
0.4353,2239
0.4369667,3404
0.4386333,5094
0.4403,7894
0.4419667,12680
0.4436333,17908
0.4453,27416
0.4469667,37008
0.4486333,52128
0.4503,67440
0.4519667,85712
0.4536333,99792
0.4553,119456
0.4569667,134016
0.4586333,148032
0.4603,164608
0.4619667,174976
0.4636333,192384
0.4653,203520
0.4669667,219648
0.4686333,239168
0.4703,252608
0.4719667,274304
0.4736333,281984
0.4753,289664
0.4769667,288512
0.4786333,279872
0.4803,269440
0.4819667,245824
0.4836333,223424
0.4853,195328
0.4869667,167424
0.4886333,143744
0.4903,113920
0.4919667,93408
0.4936333,75616
0.4953,59456
0.4969667,45872
0.4986333,38736
0.5003,29284
0.5019667,23368
0.5036333,18604
0.5053,15220
0.5069667,12908
0.5086333,10340
0.5103,8884
0.5119666,7899
0.5136333,7338
0.5153,6305
0.5169666,5263
0.5186333,5164
0.5203,4484
0.5219667,4150
0.5236334,4687
0.5253,3928
0.5269667,4111
0.5286334,3575
0.5303,3459
0.5319667,3168
0.5336334,3140
0.5353,2955
0.5369667,2877
0.5386333,2808
0.5403,2607
0.5419667,2394
0.5436333,2648
0.5453,2743
0.5469667,2280
0.5486333,2152
0.5503,2229
0.5519667,2146
0.5536333,1745
0.5553,2132
0.5569667,2027
0.5586333,1933
0.5603,1848
0.5619667,1823
0.5636333,1740
0.5653,1316
0.5669667,1728
0.5686333,1554
0.5703,1553
0.5719666,1715
0.5736333,1440
0.5753,1266
0.5769666,1029
0.5786333,1626
0.5803,1506
0.5819666,1509
0.5836333,1279
0.5853,1235
0.5869667,1171
0.5886334,1175
0.5903,1180
0.5919667,1026
0.5936334,1120
0.5953,1214
0.5969667,1221
0.5986333,1288
0.6003,1345
0.6019667,1128
0.6036333,1264
0.6053,1045
0.6069667,1334
0.6086333,1338
0.6103,1320
0.6119667,1210
0.6136333,1140
0.6153,1063
0.6169667,964
0.6186333,1104
0.6203,1058
0.6219667,1161
0.6236333,1145
0.6253,1094
0.6269667,987
0.6286333,1015
0.6303,903
0.6319667,988
0.6336333,934
0.6353,892
0.6369666,851
0.6386333,756
0.6403,902
0.6419666,885
0.6436333,868
0.6453,936
0.6469667,731
0.6486334,729
0.6503,727
0.6519667,789
0.6536334,900
0.6553,871
0.6569667,614
0.6586334,852
0.6603,871
0.6619667,839
0.6636333,857
0.6653,843
0.6669667,839
0.6686333,695
0.6703,770
0.6719667,758
0.6736333,740
0.6753,727
0.6769667,784
0.6786333,752
0.6803,719
0.6819667,752
0.6836333,760
0.6853,768
0.6869667,732
0.6886333,778
0.6903,650
0.6919667,716
0.6936333,754
0.6953,642
0.6969666,752
0.6986333,765
0.7003,735
0.7019666,768
0.7036333,573
0.7053,706
0.7069666,849
0.7086333,803
0.7103,740
0.7119667,612
0.7136334,854
0.7153,720
0.7169667,850
0.7186334,671
0.7203,803
0.7219667,741
0.7236333,656
0.7253,617
0.7269667,551
0.7286333,694
0.7303,733
0.7319667,720
0.7336333,657
0.7353,657
0.7369667,627
0.7386333,596
0.7403,692
0.7419667,677
0.7436333,663
0.7453,569
0.7469667,649
0.7486333,793
0.7503,801
0.7519667,785
0.7536333,694
0.7553,850
0.7569667,599
0.7586333,628
0.7603,699
0.7619666,804
0.7636333,779
0.7653,754
0.7669666,722
0.7686333,811
0.7703,824
0.7719667,781
0.7736334,738
0.7753,706
0.7769667,801
0.7786334,740
0.7803,780
0.7819667,713
0.7836334,647
0.7853,818
0.7869667,692
0.7886333,773
0.7903,834
0.7919667,755
0.7936333,764
0.7953,728
0.7969667,760
0.7986333,675
0.8003,657
0.8019667,757
0.8036333,676
0.8053,824
0.8069667,868
0.8086333,660
0.8103,732
0.8119667,755
0.8136333,746
0.8153,736
0.8169667,725
0.8186333,713
0.8203,735
0.8219666,697
0.8236333,659
0.8253,741
0.8269666,724
0.8286333,758
0.8303,744
0.8319666,730
0.8336333,773
0.8353,824
0.8369667,656
0.8386334,941
0.8403,1064
0.8419667,819
0.8436334,864
0.8453,751
0.8469667,598
0.8486333,828
0.8503,820
0.8519667,800
0.8536333,784
0.8553,704
0.8569667,732
0.8586333,761
0.8603,873
0.8619667,896
0.8636333,844
0.8653,954
0.8669667,723
0.8686333,689
0.8703,745
0.8719667,679
0.8736333,577
0.8753,733
0.8769667,776
0.8786333,811
0.8803,1428
0.8819667,1870
0.8836333,1930
0.8853,2265
0.8869666,2722
0.8886333,2613
0.8903,2971
0.8919666,3303
0.8936333,3107
0.8953,3571
0.8969667,3430
0.8986334,3246
0.9003,3074
0.9019667,3197
0.9036334,3156
0.9053,3142
0.9069667,3128
0.9086334,3109
0.9103,3090
0.9119667,3092
0.9136333,3095
0.9153,3095
0.9169667,3095
0.9186333,3201
0.9203,2870
0.9219667,3218
0.9236333,2830
0.9253,3072
0.9269667,3283
0.9286333,3373
0.9303,3176
0.9319667,3197
0.9336333,2629
0.9353,2859
0.9369667,2634
0.9386333,2519
0.9403,2749
0.9419667,2830
0.9436333,2702
0.9453,2715
0.9469666,2323
0.9486333,2152
0.9503,2178
0.9519666,2373
0.9536333,2151
0.9553,1956
0.9569666,1827
0.9586333,1726
0.9603,1711
0.9619667,1778
0.9636334,1540
0.9653,1382
0.9669667,1635
0.9686334,1274
0.9703,1144
0.9719667,1218
0.9736333,1166
0.9753,1063
0.9769667,1113
0.9786333,1102
0.9803,733
0.9819667,770
0.9836333,768
0.9853,807
0.9869667,845
0.9886333,666
0.9903,632
0.9919667,610
0.9936333,594
0.9953,618
0.9969667,591
0.9986333,564
1.0003,562
1.001967,598
1.003633,586
1.0053,566
1.006967,560
1.008633,553
1.0103,583
1.011967,613
1.013633,633
1.0153,560
1.016967,485
1.018633,598
1.0203,548
1.021967,669
1.023633,694
1.0253,821
1.026967,743
1.028633,674
1.0303,667
1.031967,674
1.033633,594
1.0353,451
1.036967,629
1.038633,592
1.0403,593
1.041967,583
1.043633,573
1.0453,606
1.046967,548
1.048633,624
1.0503,557
1.051967,631
1.053633,644
1.0553,646
1.056967,649
1.058633,566
1.0603,646
1.061967,546
1.063633,670
1.0653,628
1.066967,587
1.068633,737
1.0703,408
1.071967,633
1.073633,481
1.0753,685
1.076967,598
1.078633,524
1.0803,696
1.081967,583
1.083633,691
1.0853,679
1.086967,572
1.088633,589
1.0903,637
1.091967,592
1.093633,548
1.0953,579
1.096967,610
1.098633,606
1.1003,603
1.101967,611
1.103633,622
1.1053,633
1.106967,629
1.108633,688
1.1103,678
1.111967,608
1.113633,690
1.1153,533
1.116967,712
1.118633,440
1.1203,746
1.121967,698
1.123633,574
1.1253,516
1.126967,652
1.128633,595
1.1303,589
1.131967,589
1.133633,522
1.1353,801
1.136967,732
1.138633,611
1.1403,474
1.141967,831
1.143633,761
1.1453,593
1.146967,650
1.148633,640
1.1503,629
1.151967,680
1.153633,730
1.1553,777
1.156967,739
1.158633,739
1.1603,564
1.161967,678
1.163633,706
1.1653,791
1.166967,728
1.168633,740
1.1703,753
1.171967,737
1.173633,733
1.1753,738
1.176967,675
1.178633,601
1.1803,694
1.181967,680
1.183633,665
1.1853,654
1.186967,642
1.188633,859
1.1903,831
1.191967,813
1.193633,928
1.1953,873
1.196967,818
1.198633,790
