"SampleName","A2Rd2_01-6"
"Target Mass 1",
"Column Name","IA-3 (3um, 4.6X100)"
"Channel","QDa 1: SIR Ch2"
0.00195,457
0.003616667,595
0.005283333,715
0.00695,802
0.008616666,718
0.01028333,848
0.01195,889
0.01361667,802
0.01528333,836
0.01695,909
0.01861667,766
0.02028333,927
0.02195,825
0.02361667,916
0.02528333,921
0.02695,927
0.02861667,850
0.03028333,869
0.03195,1001
0.03361667,963
0.03528333,925
0.03695,886
0.03861667,936
0.04028333,900
0.04195,864
0.04361667,1012
0.04528333,1065
0.04695,784
0.04861667,912
0.05028334,857
0.05195,872
0.05361667,886
0.05528333,862
0.05695,837
0.05861667,875
0.06028333,843
0.06195,811
0.06361666,901
0.06528334,715
0.06695,918
0.06861667,798
0.07028333,929
0.07195,935
0.07361667,830
0.07528333,725
0.07695,817
0.07861666,843
0.08028334,810
0.08195,829
0.08361667,848
0.08528333,909
0.08695,874
0.08861667,839
0.09028333,846
0.09195,854
0.09361666,908
0.09528334,806
0.09695,704
0.09861667,798
0.1002833,1020
0.10195,974
0.1036167,981
0.1052833,768
0.10695,662
0.1086167,758
0.1102833,812
0.11195,866
0.1136167,765
0.1152833,744
0.11695,844
0.1186167,848
0.1202833,783
0.12195,837
0.1236167,859
0.1252833,880
0.12695,725
0.1286167,782
0.1302833,807
0.13195,770
0.1336167,734
0.1352833,753
0.13695,772
0.1386167,813
0.1402833,854
0.14195,831
0.1436167,811
0.1452833,791
0.14695,736
0.1486167,681
0.1502833,700
0.15195,744
0.1536167,789
0.1552833,849
0.15695,822
0.1586167,795
0.1602833,844
0.16195,890
0.1636167,715
0.1652833,731
0.16695,846
0.1686167,866
0.1702833,758
0.17195,915
0.1736167,680
0.1752833,857
0.17695,820
0.1786167,697
0.1802833,785
0.18195,765
0.1836167,907
0.1852833,935
0.18695,766
0.1886167,847
0.1902833,938
0.19195,823
0.1936167,698
0.1952833,816
0.19695,834
0.1986167,850
0.2002833,665
0.20195,941
0.2036167,992
0.2052833,988
0.20695,908
0.2086167,903
0.2102833,943
0.21195,829
0.2136167,904
0.2152833,901
0.21695,898
0.2186167,1042
0.2202833,1033
0.22195,780
0.2236167,941
0.2252833,923
0.22695,916
0.2286167,1084
0.2302833,1054
0.23195,1091
0.2336167,1059
0.2352833,1027
0.23695,1051
0.2386167,1046
0.2402833,1193
0.24195,1216
0.2436167,1015
0.2452833,1009
0.24695,1099
0.2486167,975
0.2502833,1091
0.25195,1221
0.2536167,1146
0.2552833,894
0.25695,1032
0.2586167,938
0.2602833,950
0.26195,1007
0.2636167,1089
0.2652833,1070
0.26695,1052
0.2686167,1024
0.2702833,995
0.27195,1114
0.2736167,841
0.2752833,1151
0.27695,1003
0.2786167,1132
0.2802833,947
0.28195,957
0.2836167,966
0.2852833,976
0.28695,875
0.2886167,942
0.2902833,1049
0.29195,986
0.2936167,924
0.2952833,848
0.29695,963
0.2986167,1000
0.3002833,858
0.30195,937
0.3036333,1041
0.3052833,1052
0.30695,1109
0.3086167,1089
0.3102833,1126
0.31195,1049
0.3136167,1085
0.3153,836
0.31695,961
0.3186167,1145
0.3202833,1150
0.32195,1151
0.3236167,1172
0.3252833,1116
0.32695,1059
0.3286167,976
0.3302833,1134
0.33195,1173
0.3336333,1201
0.3352833,1235
0.33695,1270
0.3386167,1238
0.3402833,1206
0.34195,1284
0.3436167,976
0.3452833,1201
0.34695,1244
0.3486167,1197
0.3503,1337
0.3519667,1391
0.3536333,1278
0.3552833,1329
0.35695,1380
0.3586167,1560
0.3602833,1574
0.36195,3912
0.3636167,5786
0.3652833,6846
0.3669667,7282
0.3686333,5912
0.3702833,4542
0.37195,3245
0.3736167,2696
0.3752833,2298
0.37695,2112
0.3786167,1666
0.3802833,1486
0.38195,1162
0.3836167,984
0.3853,928
0.38695,884
0.3886333,835
0.3902833,1013
0.39195,961
0.3936167,1060
0.3952833,870
0.39695,1122
0.3986167,1085
0.4003,1237
0.40195,1014
0.4036333,1077
0.4053,941
0.40695,936
0.4086167,1147
0.4102833,1161
0.41195,938
0.4136167,903
0.4153,1018
0.41695,885
0.4186333,905
0.4203,1022
0.4219667,963
0.4236333,904
0.4252833,1242
0.42695,1153
0.4286333,1060
0.4303,1081
0.43195,1256
0.4336333,1388
0.4353,1354
0.43695,1320
0.4386333,1324
0.4402833,1328
0.4419667,1434
0.4436167,1512
0.4453,1465
0.44695,1525
0.4486333,1585
0.4502833,1599
0.4519667,1559
0.4536333,1519
0.4553,1570
0.4569667,1622
0.4586333,1620
0.4602833,1618
0.4619667,1744
0.4636167,1952
0.4653,1885
0.4669667,1793
0.4686333,1627
0.4703,1563
0.4719667,1642
0.4736333,1567
0.4753,1492
0.4769667,1281
0.4786333,1194
0.4803,1214
0.4819667,1225
0.4836333,1236
0.4853,1111
0.4869667,1256
0.4886333,1231
0.4903,1146
0.4919667,1340
0.4936333,1305
0.4953,1226
0.4969667,1312
0.4986333,1287
0.5003,1063
0.5019667,1282
0.5036333,996
0.5053,1060
0.5069667,1101
0.5086333,1036
0.5103,935
0.5119666,1024
0.5136333,998
0.5153,971
0.5169666,1034
0.5186333,920
0.5203,1057
0.5219667,767
0.5236334,1061
0.5253,926
0.5269667,889
0.5286334,1111
0.5303,1142
0.5319667,1065
0.5336334,1244
0.5353,890
0.5369667,1151
0.5386333,1134
0.5403,1098
0.5419667,1192
0.5436333,1038
0.5453,1183
0.5469667,903
0.5486333,894
0.5503,885
0.5519667,893
0.5536333,900
0.5553,826
0.5569667,923
0.5586333,950
0.5603,1005
0.5619667,948
0.5636333,891
0.5653,788
0.5669667,1009
0.5686333,855
0.5703,804
0.5719666,978
0.5736333,934
0.5753,890
0.5769666,976
0.5786333,1055
0.5803,782
0.5819666,1012
0.5836333,968
0.5853,949
0.5869667,989
0.5886334,991
0.5903,993
0.5919667,1017
0.5936334,878
0.5953,972
0.5969667,1066
0.5986333,944
0.6003,900
0.6019667,975
0.6036333,940
0.6053,882
0.6069667,911
0.6086333,934
0.6103,958
0.6119667,819
0.6136333,681
0.6153,709
0.6169667,738
0.6186333,875
0.6203,909
0.6219667,776
0.6236333,965
0.6253,866
0.6269667,859
0.6286333,991
0.6303,799
0.6319667,944
0.6336333,799
0.6353,892
0.6369666,985
0.6386333,884
0.6403,1067
0.6419666,780
0.6436333,1012
0.6453,995
0.6469667,903
0.6486334,980
0.6503,1081
0.6519667,787
0.6536334,844
0.6553,941
0.6569667,772
0.6586334,911
0.6603,733
0.6619667,945
0.6636333,850
0.6653,953
0.6669667,782
0.6686333,867
0.6703,952
0.6719667,678
0.6736333,895
0.6753,1013
0.6769667,713
0.6786333,987
0.6803,913
0.6819667,869
0.6836333,1011
0.6853,776
0.6869667,891
0.6886333,810
0.6903,800
0.6919667,896
0.6936333,714
0.6953,864
0.6969666,798
0.6986333,732
0.7003,760
0.7019666,789
0.7036333,846
0.7053,821
0.7069666,795
0.7086333,815
0.7103,747
0.7119667,895
0.7136334,941
0.7153,989
0.7169667,907
0.7186334,755
0.7203,640
0.7219667,807
0.7236333,956
0.7253,975
0.7269667,813
0.7286333,757
0.7303,789
0.7319667,745
0.7336333,729
0.7353,738
0.7369667,747
0.7386333,749
0.7403,752
0.7419667,755
0.7436333,744
0.7453,733
0.7469667,788
0.7486333,673
0.7503,932
0.7519667,871
0.7536333,869
0.7553,760
0.7569667,840
0.7586333,916
0.7603,694
0.7619666,836
0.7636333,763
0.7653,788
0.7669666,841
0.7686333,829
0.7703,859
0.7719667,927
0.7736334,929
0.7753,932
0.7769667,836
0.7786334,976
0.7803,1003
0.7819667,815
0.7836334,857
0.7853,1000
0.7869667,1034
0.7886333,974
0.7903,855
0.7919667,924
0.7936333,863
0.7953,946
0.7969667,814
0.7986333,872
0.8003,937
0.8019667,762
0.8036333,899
0.8053,790
0.8069667,657
0.8086333,974
0.8103,895
0.8119667,735
0.8136333,856
0.8153,866
0.8169667,755
0.8186333,822
0.8203,887
0.8219666,855
0.8236333,865
0.8253,758
0.8269666,737
0.8286333,843
0.8303,845
0.8319666,893
0.8336333,837
0.8353,867
0.8369667,976
0.8386334,686
0.8403,872
0.8419667,781
0.8436334,810
0.8453,839
0.8469667,845
0.8486333,553
0.8503,969
0.8519667,868
0.8536333,907
0.8553,753
0.8569667,879
0.8586333,881
0.8603,777
0.8619667,721
0.8636333,1067
0.8653,1150
0.8669667,1260
0.8686333,1450
0.8703,1415
0.8719667,1384
0.8736333,1605
0.8753,1176
0.8769667,1191
0.8786333,1270
0.8803,1162
0.8819667,1293
0.8836333,1340
0.8853,1082
0.8869666,1251
0.8886333,1287
0.8903,1302
0.8919666,1237
0.8936333,1148
0.8953,1248
0.8969667,1188
0.8986334,1073
0.9003,1266
0.9019667,1152
0.9036334,1446
0.9053,1455
0.9069667,1097
0.9086334,1389
0.9103,1474
0.9119667,1082
0.9136333,1101
0.9153,1396
0.9169667,1309
0.9186333,1459
0.9203,1328
0.9219667,1440
0.9236333,1482
0.9253,1455
0.9269667,1289
0.9286333,1314
0.9303,1308
0.9319667,1330
0.9336333,1327
0.9353,1452
0.9369667,1478
0.9386333,1257
0.9403,1424
0.9419667,1168
0.9436333,1291
0.9453,1144
0.9469666,1295
0.9486333,1277
0.9503,1224
0.9519666,1229
0.9536333,1293
0.9553,1294
0.9569666,1159
0.9586333,997
0.9603,1100
0.9619667,928
0.9636334,1032
0.9653,988
0.9669667,830
0.9686334,1143
0.9703,968
0.9719667,696
0.9736333,1205
0.9753,932
0.9769667,868
0.9786333,814
0.9803,813
0.9819667,969
0.9836333,1002
0.9853,853
0.9869667,1026
0.9886333,837
0.9903,894
0.9919667,833
0.9936333,841
0.9953,804
0.9969667,853
0.9986333,835
1.0003,818
1.001967,856
1.003633,965
1.0053,977
1.006967,789
1.008633,1019
1.0103,994
1.011967,866
1.013633,905
1.0153,879
1.016967,996
1.018633,703
1.0203,870
1.021967,844
1.023633,909
1.0253,894
1.026967,894
1.028633,955
1.0303,1026
1.031967,796
1.033633,695
1.0353,880
1.036967,957
1.038633,1138
1.0403,1027
1.041967,1003
1.043633,1168
1.0453,962
1.046967,977
1.048633,1059
1.0503,1054
1.051967,812
1.053633,748
1.0553,1019
1.056967,853
1.058633,1094
1.0603,935
1.061967,679
1.063633,1016
1.0653,951
1.066967,1042
1.068633,844
1.0703,1005
1.071967,793
1.073633,928
1.0753,879
1.076967,903
1.078633,928
1.0803,1038
1.081967,1060
1.083633,919
1.0853,937
1.086967,719
1.088633,790
1.0903,861
1.091967,861
1.093633,861
1.0953,695
1.096967,900
1.098633,793
1.1003,686
1.101967,816
1.103633,781
1.1053,944
1.106967,875
1.108633,941
1.1103,845
1.111967,879
1.113633,961
1.1153,633
1.116967,948
1.118633,899
1.1203,802
1.121967,852
1.123633,848
1.1253,845
1.126967,857
1.128633,869
1.1303,828
1.131967,788
1.133633,861
1.1353,917
1.136967,1011
1.138633,690
1.1403,893
1.141967,929
1.143633,871
1.1453,863
1.146967,640
1.148633,943
1.1503,890
1.151967,796
1.153633,1019
1.1553,1024
1.156967,1116
1.158633,879
1.1603,856
1.161967,867
1.163633,949
1.1653,742
1.166967,801
1.168633,859
1.1703,763
1.171967,814
1.173633,822
1.1753,725
1.176967,790
1.178633,956
1.1803,894
1.181967,765
1.183633,894
1.1853,872
1.186967,877
1.188633,818
1.1903,764
1.191967,734
1.193633,703
1.1953,706
1.196967,709
1.198633,850
