"SampleName","A2Rd2_01-79"
"Target Mass 1",
"Column Name","IA-3 (3um, 4.6X100)"
"Channel","QDa 1: SIR Ch1"
0.00195,284
0.003616667,560
0.005283333,494
0.00695,613
0.008616666,726
0.01028333,671
0.01195,508
0.01361667,528
0.01528333,577
0.01695,547
0.01861667,516
0.02028333,482
0.02195,610
0.02361667,605
0.02528333,601
0.02695,537
0.02861667,440
0.03028333,554
0.03195,567
0.03361667,418
0.03528333,554
0.03695,655
0.03861667,510
0.04028333,502
0.04195,535
0.04361667,527
0.04528333,381
0.04695,494
0.04861667,472
0.05028334,449
0.05195,479
0.05361667,466
0.05528333,453
0.05695,432
0.05861667,411
0.06028333,563
0.06195,568
0.06361666,548
0.06528334,409
0.06695,496
0.06861667,450
0.07028333,423
0.07195,396
0.07361667,482
0.07528333,518
0.07695,460
0.07861666,548
0.08028334,552
0.08195,572
0.08361667,497
0.08528333,393
0.08695,436
0.08861667,493
0.09028333,504
0.09195,436
0.09361666,528
0.09528334,421
0.09695,541
0.09861667,498
0.1002833,417
0.10195,389
0.1036167,410
0.1052833,431
0.10695,476
0.1086167,422
0.1102833,369
0.11195,538
0.1136167,522
0.1152833,522
0.11695,468
0.1186167,571
0.1202833,560
0.12195,476
0.1236167,449
0.1252833,509
0.12695,517
0.1286167,525
0.1302833,640
0.13195,609
0.1336167,532
0.1352833,622
0.13695,470
0.1386167,543
0.1402833,419
0.14195,546
0.1436167,491
0.1452833,619
0.14695,537
0.1486167,404
0.1502833,469
0.15195,648
0.1536167,669
0.1552833,518
0.15695,624
0.1586167,631
0.1602833,599
0.16195,287
0.1636167,707
0.1652833,572
0.16695,561
0.1686167,503
0.1702833,599
0.17195,600
0.1736167,648
0.1752833,588
0.17695,499
0.1786167,534
0.1802833,527
0.18195,507
0.1836167,341
0.1852833,398
0.18695,447
0.1886167,414
0.1902833,382
0.19195,449
0.1936167,438
0.1952833,428
0.19695,521
0.1986167,488
0.2002833,455
0.20195,469
0.2036167,427
0.2052833,455
0.20695,483
0.2086167,513
0.2102833,542
0.21195,392
0.2136167,452
0.2152833,459
0.21695,491
0.2186167,464
0.2202833,437
0.22195,468
0.2236167,627
0.2252833,634
0.22695,485
0.2286167,442
0.2302833,412
0.23195,425
0.2336167,597
0.2352833,484
0.23695,370
0.2386167,562
0.2402833,450
0.24195,552
0.2436167,588
0.2452833,538
0.24695,464
0.2486167,590
0.2502833,619
0.25195,551
0.2536167,608
0.2552833,360
0.25695,483
0.2586167,518
0.2602833,499
0.26195,469
0.2636167,459
0.2652833,450
0.26695,577
0.2686167,553
0.2702833,618
0.27195,543
0.2736167,515
0.2752833,437
0.27695,487
0.2786167,549
0.2803,515
0.28195,481
0.2836167,504
0.2852833,615
0.28695,317
0.2886167,739
0.2902833,458
0.29195,569
0.2936167,506
0.2952833,611
0.29695,606
0.2986333,427
0.3002833,515
0.30195,616
0.3036167,568
0.3052833,586
0.30695,507
0.3086167,562
0.3102833,520
0.31195,554
0.3136167,489
0.3153,467
0.31695,532
0.3186167,572
0.3203,576
0.32195,507
0.3236167,535
0.3252833,563
0.32695,425
0.3286167,615
0.3302833,502
0.33195,448
0.3336333,576
0.3352833,508
0.33695,543
0.3386333,469
0.3402833,599
0.34195,552
0.3436167,482
0.3452833,570
0.34695,458
0.3486167,475
0.3503,476
0.35195,522
0.3536167,579
0.3553,615
0.35695,648
0.3586167,590
0.3603,533
0.3619667,657
0.3636167,871
0.3653,1023
0.36695,2248
0.3686333,3377
0.3703,5134
0.3719667,5621
0.3736333,7119
0.3753,6956
0.3769667,7153
0.3786333,7171
0.3802833,6135
0.3819667,5047
0.3836167,5256
0.3853,4349
0.38695,3549
0.3886333,3577
0.3902833,2978
0.3919667,2359
0.3936333,1854
0.3953,1407
0.39695,1434
0.3986333,1224
0.4002833,1267
0.4019667,1406
0.4036333,1132
0.4053,1089
0.4069667,1027
0.4086333,1103
0.4103,1127
0.4119667,1133
0.4136333,1195
0.4153,1210
0.41695,1225
0.4186333,1164
0.4203,1191
0.4219667,1217
0.4236333,1196
0.4253,1174
0.4269667,1231
0.4286333,974
0.4303,1260
0.4319667,1586
0.4336333,1775
0.4353,1961
0.4369667,2911
0.4386333,4711
0.4403,7196
0.4419667,11040
0.4436333,16688
0.4453,25856
0.4469667,35488
0.4486333,48176
0.4503,59328
0.4519667,77088
0.4536333,90736
0.4553,105808
0.4569667,121408
0.4586333,132672
0.4603,143808
0.4619667,160960
0.4636333,171712
0.4653,186496
0.4669667,206336
0.4686333,222592
0.4703,239168
0.4719667,254720
0.4736333,270464
0.4753,270208
0.4769667,267392
0.4786333,249664
0.4803,234368
0.4819667,206464
0.4836333,182976
0.4853,154816
0.4869667,129152
0.4886333,106384
0.4903,85568
0.4919667,67408
0.4936333,51504
0.4953,40048
0.4969667,32732
0.4986333,24040
0.5003,20468
0.5019667,16340
0.5036333,13092
0.5053,10484
0.5069667,8592
0.5086333,8017
0.5103,6639
0.5119666,5742
0.5136333,5076
0.5153,5309
0.5169666,4665
0.5186333,4595
0.5203,3627
0.5219667,4156
0.5236334,3745
0.5253,3331
0.5269667,3606
0.5286334,3023
0.5303,3233
0.5319667,2934
0.5336334,3103
0.5353,3071
0.5369667,2580
0.5386333,2339
0.5403,2552
0.5419667,2024
0.5436333,2068
0.5453,2262
0.5469667,1845
0.5486333,2056
0.5503,1896
0.5519667,2141
0.5536333,1668
0.5553,1890
0.5569667,1748
0.5586333,1462
0.5603,1764
0.5619667,1648
0.5636333,1809
0.5653,1655
0.5669667,1494
0.5686333,1737
0.5703,1394
0.5719666,1235
0.5736333,1763
0.5753,1262
0.5769666,1236
0.5786333,1439
0.5803,1469
0.5819666,1300
0.5836333,1392
0.5853,1295
0.5869667,1271
0.5886334,1183
0.5903,1238
0.5919667,1193
0.5936334,1149
0.5953,1212
0.5969667,1131
0.5986333,1189
0.6003,1207
0.6019667,1225
0.6036333,1116
0.6053,1007
0.6069667,1246
0.6086333,1058
0.6103,1249
0.6119667,1217
0.6136333,1022
0.6153,950
0.6169667,1066
0.6186333,1081
0.6203,1095
0.6219667,1010
0.6236333,927
0.6253,740
0.6269667,1066
0.6286333,738
0.6303,965
0.6319667,1102
0.6336333,834
0.6353,1134
0.6369666,999
0.6386333,1125
0.6403,834
0.6419666,1051
0.6436333,1013
0.6453,927
0.6469667,746
0.6486334,875
0.6503,888
0.6519667,822
0.6536334,790
0.6553,781
0.6569667,772
0.6586334,676
0.6603,750
0.6619667,810
0.6636333,705
0.6653,644
0.6669667,722
0.6686333,754
0.6703,880
0.6719667,926
0.6736333,810
0.6753,837
0.6769667,722
0.6786333,626
0.6803,601
0.6819667,615
0.6836333,630
0.6853,772
0.6869667,775
0.6886333,729
0.6903,758
0.6919667,788
0.6936333,807
0.6953,571
0.6969666,758
0.6986333,675
0.7003,680
0.7019666,685
0.7036333,684
0.7053,683
0.7069666,580
0.7086333,633
0.7103,686
0.7119667,740
0.7136334,820
0.7153,798
0.7169667,624
0.7186334,671
0.7203,686
0.7219667,731
0.7236333,576
0.7253,791
0.7269667,546
0.7286333,640
0.7303,584
0.7319667,769
0.7336333,704
0.7353,640
0.7369667,684
0.7386333,728
0.7403,733
0.7419667,582
0.7436333,733
0.7453,659
0.7469667,584
0.7486333,745
0.7503,662
0.7519667,769
0.7536333,654
0.7553,708
0.7569667,736
0.7586333,764
0.7603,693
0.7619666,740
0.7636333,720
0.7653,760
0.7669666,833
0.7686333,637
0.7703,752
0.7719667,775
0.7736334,652
0.7753,636
0.7769667,735
0.7786334,755
0.7803,632
0.7819667,849
0.7836334,578
0.7853,591
0.7869667,723
0.7886333,725
0.7903,577
0.7919667,630
0.7936333,693
0.7953,693
0.7969667,537
0.7986333,608
0.8003,805
0.8019667,788
0.8036333,690
0.8053,832
0.8069667,768
0.8086333,687
0.8103,675
0.8119667,791
0.8136333,730
0.8153,699
0.8169667,741
0.8186333,451
0.8203,748
0.8219666,672
0.8236333,669
0.8253,800
0.8269666,793
0.8286333,690
0.8303,685
0.8319666,837
0.8336333,845
0.8353,854
0.8369667,840
0.8386334,827
0.8403,945
0.8419667,948
0.8436334,876
0.8453,879
0.8469667,882
0.8486333,703
0.8503,818
0.8519667,784
0.8536333,724
0.8553,827
0.8569667,733
0.8586333,716
0.8603,718
0.8619667,732
0.8636333,642
0.8653,644
0.8669667,764
0.8686333,681
0.8703,500
0.8719667,548
0.8736333,673
0.8753,698
0.8769667,804
0.8786333,984
0.8803,1149
0.8819667,1366
0.8836333,1469
0.8853,2254
0.8869666,2205
0.8886333,2855
0.8903,2795
0.8919666,3240
0.8936333,3275
0.8953,3397
0.8969667,3218
0.8986334,2977
0.9003,3027
0.9019667,3322
0.9036334,3392
0.9053,3041
0.9069667,3339
0.9086334,3431
0.9103,3171
0.9119667,3397
0.9136333,3190
0.9153,3251
0.9169667,3394
0.9186333,3162
0.9203,3037
0.9219667,3078
0.9236333,2953
0.9253,3083
0.9269667,3212
0.9286333,3208
0.9303,3180
0.9319667,3200
0.9336333,3123
0.9353,3019
0.9369667,2941
0.9386333,2794
0.9403,2695
0.9419667,2667
0.9436333,2639
0.9453,2659
0.9469666,2486
0.9486333,2722
0.9503,2364
0.9519666,2324
0.9536333,2396
0.9553,2289
0.9569666,2151
0.9586333,1854
0.9603,1950
0.9619667,1384
0.9636334,1632
0.9653,1374
0.9669667,1707
0.9686334,1133
0.9703,1372
0.9719667,1320
0.9736333,1138
0.9753,849
0.9769667,1162
0.9786333,982
0.9803,955
0.9819667,838
0.9836333,574
0.9853,741
0.9869667,774
0.9886333,661
0.9903,536
0.9919667,619
0.9936333,604
0.9953,588
0.9969667,568
0.9986333,521
1.0003,418
1.001967,602
1.003633,601
1.0053,601
1.006967,542
1.008633,639
1.0103,508
1.011967,630
1.013633,665
1.0153,691
1.016967,638
1.018633,440
1.0203,740
1.021967,593
1.023633,455
1.0253,499
1.026967,549
1.028633,565
1.0303,581
1.031967,547
1.033633,551
1.0353,555
1.036967,478
1.038633,638
1.0403,618
1.041967,718
1.043633,571
1.0453,549
1.046967,538
1.048633,555
1.0503,572
1.051967,600
1.053633,496
1.0553,530
1.056967,619
1.058633,619
1.0603,624
1.061967,643
1.063633,662
1.0653,659
1.066967,648
1.068633,512
1.0703,617
1.071967,511
1.073633,619
1.0753,732
1.076967,728
1.078633,716
1.0803,600
1.081967,804
1.083633,786
1.0853,499
1.086967,482
1.088633,711
1.0903,696
1.091967,680
1.093633,648
1.0953,638
1.096967,613
1.098633,640
1.1003,535
1.101967,560
1.103633,585
1.1053,661
1.106967,759
1.108633,723
1.1103,727
1.111967,576
1.113633,630
1.1153,686
1.116967,597
1.118633,613
1.1203,672
1.121967,624
1.123633,633
1.1253,597
1.126967,579
1.128633,561
1.1303,689
1.131967,666
1.133633,634
1.1353,673
1.136967,664
1.138633,655
1.1403,565
1.141967,744
1.143633,783
1.1453,653
1.146967,762
1.148633,595
1.1503,598
1.151967,768
1.153633,554
1.1553,638
1.156967,546
1.158633,597
1.1603,649
1.161967,647
1.163633,885
1.1653,874
1.166967,593
1.168633,886
1.1703,785
1.171967,555
1.173633,743
1.1753,657
1.176967,718
1.178633,671
1.1803,764
1.181967,713
1.183633,662
1.1853,714
1.186967,676
1.188633,812
1.1903,795
1.191967,727
1.193633,665
1.1953,843
1.196967,677
1.198633,902
