"SampleName","A2Rd2_01-53"
"Target Mass 1",
"Column Name","IA-3 (3um, 4.6X100)"
"Channel","QDa 1: SIR Ch2"
0.00195,353
0.003616667,746
0.005283333,1010
0.00695,785
0.008616666,893
0.01028333,815
0.01195,737
0.01361667,978
0.01528333,1005
0.01695,1104
0.01861667,995
0.02028333,982
0.02195,1170
0.02361667,1081
0.02528333,1052
0.02695,1060
0.02861667,965
0.03028333,1203
0.03195,797
0.03361667,1156
0.03528333,1134
0.03695,1024
0.03861667,1057
0.04028333,1012
0.04195,1003
0.04361667,994
0.04528333,877
0.04695,1055
0.04861667,1017
0.05028334,980
0.05195,977
0.05361667,975
0.05528333,955
0.05695,1036
0.05861667,1035
0.06028333,1034
0.06195,1071
0.06361666,1107
0.06528334,699
0.06695,1063
0.06861667,1186
0.07028333,1044
0.07195,1048
0.07361667,944
0.07528333,1123
0.07695,850
0.07861666,1193
0.08028334,995
0.08195,1051
0.08361667,1124
0.08528333,1112
0.08695,1128
0.08861667,900
0.09028333,987
0.09195,931
0.09361666,978
0.09528334,967
0.09695,956
0.09861667,956
0.1002833,956
0.10195,1024
0.1036167,1077
0.1052833,1080
0.10695,927
0.1086167,816
0.1102833,1088
0.11195,1000
0.1136167,997
0.1152833,855
0.11695,836
0.1186167,1043
0.1202833,957
0.12195,916
0.1236167,1000
0.1252833,998
0.12695,862
0.1286167,981
0.1302833,663
0.13195,1154
0.1336167,1057
0.1352833,939
0.13695,792
0.1386167,785
0.1402833,744
0.14195,1020
0.1436167,962
0.1452833,924
0.14695,943
0.1486167,920
0.1502833,896
0.15195,974
0.1536167,956
0.1552833,994
0.15695,934
0.1586167,974
0.1602833,963
0.16195,951
0.1636167,889
0.1652833,828
0.16695,948
0.1686167,851
0.1702833,1066
0.17195,990
0.1736167,1039
0.1752833,881
0.17695,972
0.1786167,722
0.1802833,1039
0.18195,1077
0.1836167,929
0.1852833,987
0.18695,1036
0.1886167,838
0.1902833,807
0.19195,1031
0.1936167,870
0.1952833,994
0.19695,844
0.1986167,975
0.2002833,863
0.20195,828
0.2036167,943
0.2052833,930
0.20695,1001
0.2086167,938
0.2102833,1043
0.21195,768
0.2136167,1048
0.2152833,1082
0.21695,836
0.2186167,957
0.2202833,1078
0.22195,1129
0.2236167,1097
0.2252833,1065
0.22695,1094
0.2286333,1124
0.2302833,1149
0.23195,1121
0.2336167,1093
0.2352833,1143
0.23695,1193
0.2386167,1349
0.2402833,1269
0.24195,1190
0.2436167,1381
0.2453,1256
0.24695,1180
0.2486167,1259
0.2502833,1196
0.25195,1377
0.2536167,1554
0.2553,1380
0.25695,1206
0.2586333,1225
0.2602833,1421
0.26195,1356
0.2636333,976
0.2652833,1197
0.26695,1221
0.2686167,1341
0.2702833,1109
0.2719667,1453
0.2736333,1287
0.2753,1174
0.2769667,1332
0.2786167,1304
0.2803,1257
0.2819667,1404
0.2836333,1123
0.2852833,1143
0.28695,1115
0.2886333,1269
0.2903,1253
0.29195,1381
0.2936167,1027
0.2952833,1143
0.2969667,1169
0.2986333,1095
0.3002833,1172
0.30195,1350
0.3036167,1319
0.3053,1430
0.3069667,1122
0.3086167,1097
0.3102833,1116
0.31195,1314
0.3136333,1364
0.3153,1098
0.3169667,1186
0.3186333,1462
0.3203,1273
0.3219667,1445
0.3236333,1143
0.3252833,1256
0.3269667,1310
0.3286167,1328
0.3303,1340
0.33195,1290
0.3336333,1240
0.3352833,1222
0.3369667,1219
0.3386333,1216
0.3403,1373
0.3419667,1420
0.3436167,1298
0.3452833,1125
0.3469667,1212
0.3486167,1441
0.3503,1378
0.3519667,1315
0.3536333,1330
0.3553,1344
0.3569667,1189
0.3586333,1263
0.3603,1459
0.3619667,1395
0.3636333,1674
0.3653,2721
0.3669667,3664
0.3686333,3636
0.3703,4016
0.3719667,4087
0.3736333,3299
0.3753,2812
0.3769667,2364
0.3786333,1978
0.3803,1297
0.3819667,1059
0.3836333,1199
0.3853,786
0.3869667,538
0.3886333,478
0.3903,488
0.3919667,497
0.3936333,448
0.3953,429
0.3969667,425
0.3986333,416
0.4003,450
0.4019667,687
0.4036333,667
0.4053,734
0.4069667,763
0.4086333,742
0.4103,779
0.4119667,994
0.4136333,939
0.4153,913
0.4169667,963
0.4186333,891
0.4203,886
0.4219667,894
0.4236333,997
0.4253,977
0.4269667,1004
0.4286333,1007
0.4303,1011
0.4319667,1047
0.4336333,1011
0.4353,976
0.4369667,1080
0.4386333,1236
0.4403,1188
0.4419667,1179
0.4436333,1428
0.4453,1373
0.4469667,1553
0.4486333,1373
0.4503,1621
0.4519667,1530
0.4536333,1591
0.4553,1727
0.4569667,1725
0.4586333,1701
0.4603,1738
0.4619667,1502
0.4636333,1668
0.4653,1633
0.4669667,1683
0.4686333,1626
0.4703,1582
0.4719667,1669
0.4736333,1732
0.4753,1512
0.4769667,1573
0.4786333,1589
0.4803,1119
0.4819667,1521
0.4836333,1507
0.4853,1394
0.4869667,1173
0.4886333,1596
0.4903,1215
0.4919667,1362
0.4936333,1234
0.4953,1050
0.4969667,1144
0.4986333,1160
0.5003,1057
0.5019667,1074
0.5036333,1018
0.5053,980
0.5069667,1056
0.5086333,1043
0.5103,1083
0.5119666,1047
0.5136333,1066
0.5153,1064
0.5169666,1063
0.5186333,1039
0.5203,907
0.5219667,908
0.5236334,1058
0.5253,1001
0.5269667,945
0.5286334,1153
0.5303,1060
0.5319667,966
0.5336334,1249
0.5353,1249
0.5369667,941
0.5386333,1104
0.5403,1101
0.5419667,1185
0.5436333,1280
0.5453,1317
0.5469667,1232
0.5486333,1159
0.5503,1284
0.5519667,1094
0.5536333,1166
0.5553,1105
0.5569667,944
0.5586333,1231
0.5603,893
0.5619667,918
0.5636333,970
0.5653,971
0.5669667,972
0.5686333,932
0.5703,911
0.5719666,890
0.5736333,946
0.5753,1003
0.5769666,1001
0.5786333,920
0.5803,859
0.5819666,987
0.5836333,1021
0.5853,1055
0.5869667,972
0.5886334,985
0.5903,933
0.5919667,878
0.5936334,824
0.5953,860
0.5969667,936
0.5986333,1011
0.6003,1040
0.6019667,1090
0.6036333,1027
0.6053,1094
0.6069667,984
0.6086333,942
0.6103,933
0.6119667,1003
0.6136333,997
0.6153,960
0.6169667,1087
0.6186333,1039
0.6203,991
0.6219667,875
0.6236333,1131
0.6253,1126
0.6269667,1174
0.6286333,1137
0.6303,1026
0.6319667,1098
0.6336333,1058
0.6353,1018
0.6369666,1006
0.6386333,980
0.6403,1194
0.6419666,1177
0.6436333,989
0.6453,1217
0.6469667,1268
0.6486334,1020
0.6503,1139
0.6519667,900
0.6536334,1070
0.6553,947
0.6569667,988
0.6586334,850
0.6603,781
0.6619667,1056
0.6636333,1052
0.6653,1014
0.6669667,885
0.6686333,874
0.6703,874
0.6719667,874
0.6736333,689
0.6753,900
0.6769667,851
0.6786333,783
0.6803,961
0.6819667,910
0.6836333,950
0.6853,991
0.6869667,1178
0.6886333,1334
0.6903,1715
0.6919667,1600
0.6936333,1888
0.6953,1725
0.6969666,1700
0.6986333,2794
0.7003,2730
0.7019666,2756
0.7036333,2529
0.7053,2659
0.7069666,2788
0.7086333,3167
0.7103,3528
0.7119667,3370
0.7136334,3455
0.7153,3428
0.7169667,3401
0.7186334,3258
0.7203,3417
0.7219667,3763
0.7236333,2575
0.7253,2875
0.7269667,3243
0.7286333,2506
0.7303,2532
0.7319667,2505
0.7336333,2074
0.7353,1765
0.7369667,1464
0.7386333,1582
0.7403,1507
0.7419667,1339
0.7436333,1213
0.7453,1146
0.7469667,1399
0.7486333,1198
0.7503,1041
0.7519667,1211
0.7536333,980
0.7553,977
0.7569667,895
0.7586333,1048
0.7603,1100
0.7619666,1091
0.7636333,1015
0.7653,1108
0.7669666,1046
0.7686333,971
0.7703,1041
0.7719667,994
0.7736334,946
0.7753,1008
0.7769667,800
0.7786334,1007
0.7803,1213
0.7819667,1076
0.7836334,1225
0.7853,1602
0.7869667,1718
0.7886333,1740
0.7903,1675
0.7919667,2120
0.7936333,2309
0.7953,2847
0.7969667,3640
0.7986333,3422
0.8003,3942
0.8019667,4304
0.8036333,4450
0.8053,5199
0.8069667,5645
0.8086333,5490
0.8103,6628
0.8119667,6504
0.8136333,6863
0.8153,7311
0.8169667,8364
0.8186333,7964
0.8203,7941
0.8219666,7895
0.8236333,7701
0.8253,7071
0.8269666,6924
0.8286333,6580
0.8303,6191
0.8319666,5883
0.8336333,5269
0.8353,4456
0.8369667,4095
0.8386334,3622
0.8403,3351
0.8419667,2879
0.8436334,2491
0.8453,2390
0.8469667,2380
0.8486333,1761
0.8503,1770
0.8519667,1776
0.8536333,1842
0.8553,1560
0.8569667,1336
0.8586333,1690
0.8603,1273
0.8619667,1134
0.8636333,1354
0.8653,1313
0.8669667,1253
0.8686333,1285
0.8703,1567
0.8719667,1563
0.8736333,1963
0.8753,1761
0.8769667,1880
0.8786333,1875
0.8803,1869
0.8819667,2068
0.8836333,2014
0.8853,1961
0.8869666,1817
0.8886333,1912
0.8903,1996
0.8919666,1953
0.8936333,1910
0.8953,1869
0.8969667,1828
0.8986334,1915
0.9003,1929
0.9019667,1944
0.9036334,1933
0.9053,1935
0.9069667,2030
0.9086334,1725
0.9103,1985
0.9119667,2021
0.9136333,2037
0.9153,1548
0.9169667,1848
0.9186333,1956
0.9203,1697
0.9219667,1806
0.9236333,2148
0.9253,2258
0.9269667,1694
0.9286333,1725
0.9303,1769
0.9319667,1604
0.9336333,1696
0.9353,1777
0.9369667,1575
0.9386333,1697
0.9403,1584
0.9419667,1407
0.9436333,1425
0.9453,1217
0.9469666,1389
0.9486333,1523
0.9503,1303
0.9519666,1327
0.9536333,1430
0.9553,1241
0.9569666,1426
0.9586333,1215
0.9603,1495
0.9619667,1228
0.9636334,1428
0.9653,1674
0.9669667,1694
0.9686334,1537
0.9703,1830
0.9719667,2146
0.9736333,2010
0.9753,2430
0.9769667,2654
0.9786333,3158
0.9803,3346
0.9819667,3494
0.9836333,3936
0.9853,4047
0.9869667,4262
0.9886333,4408
0.9903,4921
0.9919667,5333
0.9936333,5709
0.9953,5847
0.9969667,5931
0.9986333,6357
1.0003,6782
1.001967,7074
1.003633,7913
1.0053,7745
1.006967,7327
1.008633,7586
1.0103,7606
1.011967,7627
1.013633,7095
1.0153,7032
1.016967,6973
1.018633,6647
1.0203,5888
1.021967,5457
1.023633,5201
1.0253,4421
1.026967,4135
1.028633,4087
1.0303,3804
1.031967,3620
1.033633,2956
1.0353,2804
1.036967,2715
1.038633,2557
1.0403,2554
1.041967,2377
1.043633,2248
1.0453,1953
1.046967,1714
1.048633,1861
1.0503,1811
1.051967,1580
1.053633,1918
1.0553,1593
1.056967,1677
1.058633,1837
1.0603,1589
1.061967,1926
1.063633,1847
1.0653,1759
1.066967,1762
1.068633,1766
1.0703,2108
1.071967,2152
1.073633,1963
1.0753,2345
1.076967,2321
1.078633,2455
1.0803,2463
1.081967,2587
1.083633,2712
1.0853,3181
1.086967,3208
1.088633,3212
1.0903,3453
1.091967,3418
1.093633,3478
1.0953,3756
1.096967,4192
1.098633,4207
1.1003,4090
1.101967,4140
1.103633,4190
1.1053,3848
1.106967,4219
1.108633,4299
1.1103,4366
1.111967,4120
1.113633,4285
1.1153,3880
1.116967,4242
1.118633,3685
1.1203,3406
1.121967,3520
1.123633,3446
1.1253,2473
1.126967,2793
1.128633,3269
1.1303,2490
1.131967,2819
1.133633,2156
1.1353,2364
1.136967,2136
1.138633,1995
1.1403,1746
1.141967,1776
1.143633,1794
1.1453,1637
1.146967,1442
1.148633,1523
1.1503,1381
1.151967,1378
1.153633,1286
1.1553,1446
1.156967,1366
1.158633,1369
1.1603,1206
1.161967,1212
1.163633,1278
1.1653,1317
1.166967,1362
1.168633,1149
1.1703,1161
1.171967,1190
1.173633,1064
1.1753,1032
1.176967,917
1.178633,1041
1.1803,990
1.181967,939
1.183633,1087
1.1853,923
1.186967,1201
1.188633,1162
1.1903,1061
1.191967,1036
1.193633,1043
1.1953,1051
1.196967,1213
1.198633,1175
