"SampleName","A2Rd2_01-12"
"Target Mass 1",
"Column Name","IA-3 (3um, 4.6X100)"
"Channel","QDa 1: SIR Ch1"
0.00195,291
0.003616667,620
0.005283333,417
0.00695,556
0.008616666,522
0.01028333,558
0.01195,594
0.01361667,579
0.01528333,564
0.01695,549
0.01861667,535
0.02028333,472
0.02195,554
0.02361667,495
0.02528333,437
0.02695,589
0.02861667,521
0.03028333,445
0.03195,477
0.03361667,493
0.03528333,514
0.03695,536
0.03861667,551
0.04028333,566
0.04195,458
0.04361667,558
0.04528333,427
0.04695,439
0.04861667,593
0.05028334,489
0.05195,436
0.05361667,485
0.05528333,550
0.05695,387
0.05861667,482
0.06028333,485
0.06195,418
0.06361666,444
0.06528334,470
0.06695,459
0.06861667,448
0.07028333,426
0.07195,477
0.07361667,485
0.07528333,494
0.07695,522
0.07861666,373
0.08028334,588
0.08195,500
0.08361667,510
0.08528333,421
0.08695,451
0.08861667,512
0.09028333,499
0.09195,433
0.09361666,431
0.09528334,429
0.09695,428
0.09861667,427
0.1002833,411
0.10195,491
0.1036167,534
0.1052833,520
0.10695,507
0.1086167,567
0.1102833,445
0.11195,484
0.1136167,633
0.1152833,356
0.11695,500
0.1186167,555
0.1202833,527
0.12195,539
0.1236167,454
0.1252833,375
0.12695,514
0.1286167,506
0.1302833,567
0.13195,456
0.1336167,476
0.1352833,459
0.13695,440
0.1386167,420
0.1402833,406
0.14195,402
0.1436167,397
0.1452833,479
0.14695,520
0.1486167,552
0.1502833,454
0.15195,550
0.1536167,465
0.1552833,548
0.15695,569
0.1586167,335
0.1602833,442
0.16195,460
0.1636167,475
0.1652833,462
0.16695,449
0.1686167,493
0.1702833,479
0.17195,465
0.1736167,417
0.1752833,427
0.17695,475
0.1786167,446
0.1802833,417
0.18195,420
0.1836167,397
0.1852833,409
0.18695,430
0.1886167,411
0.1902833,391
0.19195,417
0.1936167,444
0.1952833,491
0.19695,457
0.1986167,423
0.2002833,509
0.20195,527
0.2036167,377
0.2052833,458
0.20695,412
0.2086167,455
0.2102833,498
0.21195,337
0.2136167,492
0.2152833,362
0.21695,446
0.2186167,346
0.2202833,472
0.22195,440
0.2236167,485
0.2252833,422
0.22695,348
0.2286167,441
0.2302833,410
0.23195,379
0.2336167,535
0.2352833,500
0.23695,465
0.2386167,453
0.2402833,418
0.24195,384
0.2436167,329
0.2452833,381
0.24695,381
0.2486167,380
0.2502833,519
0.25195,489
0.2536167,571
0.2552833,511
0.25695,471
0.2586167,492
0.2602833,342
0.26195,372
0.2636333,401
0.2652833,378
0.26695,403
0.2686167,412
0.2702833,420
0.27195,576
0.2736167,629
0.2752833,521
0.27695,398
0.2786167,482
0.2803,422
0.28195,427
0.2836167,354
0.2853,394
0.28695,434
0.2886167,469
0.2902833,503
0.2919667,494
0.2936167,435
0.2952833,507
0.29695,554
0.2986333,540
0.3002833,525
0.30195,444
0.3036167,519
0.3052833,546
0.30695,532
0.3086167,574
0.3102833,339
0.31195,587
0.3136167,588
0.3153,477
0.31695,467
0.3186167,547
0.3202833,575
0.3219667,552
0.3236167,456
0.3252833,579
0.32695,604
0.3286167,498
0.3302833,613
0.33195,483
0.3336333,609
0.3352833,703
0.3369667,430
0.3386333,479
0.3402833,565
0.3419667,547
0.3436167,478
0.3452833,557
0.34695,517
0.3486167,476
0.3503,434
0.35195,387
0.3536333,505
0.3553,559
0.35695,649
0.3586167,667
0.3602833,655
0.36195,825
0.3636167,1222
0.3652833,3060
0.36695,5603
0.3686333,7820
0.3703,8066
0.3719667,8712
0.3736167,7564
0.3753,6314
0.37695,5098
0.3786167,4380
0.3802833,3651
0.38195,3115
0.3836167,2964
0.3853,2328
0.3869667,2236
0.3886333,1982
0.3903,1675
0.3919667,1670
0.3936333,1401
0.3952833,1512
0.3969667,1541
0.3986333,1391
0.4003,1529
0.4019667,1452
0.4036333,1417
0.4053,1516
0.4069667,1407
0.4086333,1014
0.4103,1233
0.4119667,1514
0.4136333,1109
0.4153,1195
0.4169667,1294
0.4186333,1205
0.4203,1031
0.4219667,1171
0.4236333,854
0.4253,854
0.4269667,938
0.4286333,819
0.4303,747
0.4319667,914
0.4336333,1056
0.4353,1330
0.4369667,1653
0.4386333,2294
0.4403,3361
0.4419667,4687
0.4436333,6730
0.4453,9160
0.4469667,12272
0.4486333,16324
0.4503,21832
0.4519667,31332
0.4536333,43152
0.4553,61648
0.4569667,88608
0.4586333,121456
0.4603,162688
0.4619667,204736
0.4636333,256384
0.4653,304960
0.4669667,334464
0.4686333,354240
0.4703,362496
0.4719667,349056
0.4736333,328256
0.4753,296128
0.4769667,255168
0.4786333,215808
0.4803,176128
0.4819667,141184
0.4836333,112480
0.4853,88896
0.4869667,69376
0.4886333,57424
0.4903,47968
0.4919667,37904
0.4936333,31556
0.4953,25660
0.4969667,22548
0.4986333,18640
0.5003,16344
0.5019667,14108
0.5036333,11440
0.5053,10168
0.5069667,9616
0.5086333,8368
0.5103,8031
0.5119666,6419
0.5136333,6194
0.5153,5529
0.5169666,4831
0.5186333,4151
0.5203,4285
0.5219667,3949
0.5236334,3454
0.5253,3676
0.5269667,3253
0.5286334,3060
0.5303,2798
0.5319667,2874
0.5336334,2716
0.5353,2847
0.5369667,2630
0.5386333,2368
0.5403,2574
0.5419667,2436
0.5436333,2313
0.5453,1916
0.5469667,1914
0.5486333,2125
0.5503,2076
0.5519667,1809
0.5536333,2050
0.5553,1707
0.5569667,1556
0.5586333,1626
0.5603,1577
0.5619667,1375
0.5636333,1657
0.5653,1380
0.5669667,1433
0.5686333,1343
0.5703,1212
0.5719666,1338
0.5736333,1286
0.5753,1235
0.5769666,1271
0.5786333,1040
0.5803,1138
0.5819666,1195
0.5836333,1228
0.5853,1261
0.5869667,1294
0.5886334,1056
0.5903,1064
0.5919667,1280
0.5936334,1019
0.5953,1248
0.5969667,1321
0.5986333,1378
0.6003,1163
0.6019667,1359
0.6036333,1202
0.6053,1243
0.6069667,1168
0.6086333,1153
0.6103,1136
0.6119667,1120
0.6136333,1053
0.6153,1076
0.6169667,1100
0.6186333,947
0.6203,999
0.6219667,912
0.6236333,965
0.6253,1017
0.6269667,798
0.6286333,793
0.6303,763
0.6319667,756
0.6336333,795
0.6353,834
0.6369666,818
0.6386333,802
0.6403,907
0.6419666,701
0.6436333,766
0.6453,894
0.6469667,859
0.6486334,673
0.6503,755
0.6519667,806
0.6536334,687
0.6553,780
0.6569667,773
0.6586334,605
0.6603,723
0.6619667,841
0.6636333,786
0.6653,752
0.6669667,893
0.6686333,506
0.6703,706
0.6719667,983
0.6736333,787
0.6753,630
0.6769667,853
0.6786333,674
0.6803,810
0.6819667,725
0.6836333,624
0.6853,631
0.6869667,639
0.6886333,585
0.6903,724
0.6919667,821
0.6936333,734
0.6953,647
0.6969666,708
0.6986333,526
0.7003,660
0.7019666,706
0.7036333,596
0.7053,802
0.7069666,783
0.7086333,523
0.7103,567
0.7119667,591
0.7136334,633
0.7153,642
0.7169667,651
0.7186334,588
0.7203,614
0.7219667,641
0.7236333,652
0.7253,663
0.7269667,649
0.7286333,614
0.7303,643
0.7319667,510
0.7336333,681
0.7353,704
0.7369667,744
0.7386333,750
0.7403,628
0.7419667,810
0.7436333,746
0.7453,648
0.7469667,678
0.7486333,502
0.7503,586
0.7519667,603
0.7536333,587
0.7553,609
0.7569667,704
0.7586333,677
0.7603,650
0.7619666,742
0.7636333,530
0.7653,721
0.7669666,750
0.7686333,626
0.7703,652
0.7719667,694
0.7736334,699
0.7753,608
0.7769667,848
0.7786334,461
0.7803,658
0.7819667,676
0.7836334,598
0.7853,713
0.7869667,540
0.7886333,493
0.7903,741
0.7919667,762
0.7936333,648
0.7953,594
0.7969667,664
0.7986333,538
0.8003,594
0.8019667,628
0.8036333,662
0.8053,607
0.8069667,572
0.8086333,686
0.8103,514
0.8119667,696
0.8136333,626
0.8153,539
0.8169667,767
0.8186333,816
0.8203,826
0.8219666,686
0.8236333,675
0.8253,707
0.8269666,706
0.8286333,704
0.8303,786
0.8319666,777
0.8336333,648
0.8353,856
0.8369667,827
0.8386334,783
0.8403,708
0.8419667,563
0.8436334,719
0.8453,696
0.8469667,598
0.8486333,745
0.8503,779
0.8519667,721
0.8536333,687
0.8553,696
0.8569667,698
0.8586333,728
0.8603,643
0.8619667,649
0.8636333,683
0.8653,717
0.8669667,696
0.8686333,698
0.8703,732
0.8719667,674
0.8736333,652
0.8753,701
0.8769667,751
0.8786333,1234
0.8803,1447
0.8819667,1612
0.8836333,1654
0.8853,2387
0.8869666,2455
0.8886333,2535
0.8903,2714
0.8919666,2685
0.8936333,2799
0.8953,2876
0.8969667,3067
0.8986334,2483
0.9003,2683
0.9019667,2943
0.9036334,2667
0.9053,3014
0.9069667,2691
0.9086334,2885
0.9103,2484
0.9119667,2984
0.9136333,3037
0.9153,2963
0.9169667,2964
0.9186333,2684
0.9203,3118
0.9219667,2451
0.9236333,3125
0.9253,2877
0.9269667,2254
0.9286333,3038
0.9303,2537
0.9319667,2833
0.9336333,2682
0.9353,2744
0.9369667,2616
0.9386333,2341
0.9403,2465
0.9419667,2413
0.9436333,1827
0.9453,1892
0.9469666,1820
0.9486333,1779
0.9503,1738
0.9519666,1779
0.9536333,1564
0.9553,1593
0.9569666,1761
0.9586333,1442
0.9603,1420
0.9619667,1501
0.9636334,1267
0.9653,1101
0.9669667,1037
0.9686334,947
0.9703,908
0.9719667,1001
0.9736333,793
0.9753,921
0.9769667,716
0.9786333,803
0.9803,891
0.9819667,522
0.9836333,675
0.9853,667
0.9869667,645
0.9886333,660
0.9903,550
0.9919667,568
0.9936333,659
0.9953,607
0.9969667,682
0.9986333,535
1.0003,523
1.001967,629
1.003633,597
1.0053,590
1.006967,522
1.008633,573
1.0103,449
1.011967,497
1.013633,517
1.0153,537
1.016967,611
1.018633,599
1.0203,489
1.021967,632
1.023633,637
1.0253,685
1.026967,593
1.028633,559
1.0303,526
1.031967,498
1.033633,553
1.0353,610
1.036967,639
1.038633,608
1.0403,603
1.041967,628
1.043633,481
1.0453,459
1.046967,392
1.048633,522
1.0503,562
1.051967,450
1.053633,625
1.0553,581
1.056967,537
1.058633,533
1.0603,529
1.061967,637
1.063633,576
1.0653,516
1.066967,542
1.068633,619
1.0703,577
1.071967,535
1.073633,726
1.0753,794
1.076967,701
1.078633,663
1.0803,521
1.081967,614
1.083633,610
1.0853,606
1.086967,606
1.088633,495
1.0903,528
1.091967,546
1.093633,575
1.0953,633
1.096967,614
1.098633,596
1.1003,658
1.101967,549
1.103633,669
1.1053,727
1.106967,542
1.108633,466
1.1103,663
1.111967,620
1.113633,517
1.1153,449
1.116967,637
1.118633,594
1.1203,551
1.121967,579
1.123633,541
1.1253,502
1.126967,655
1.128633,704
1.1303,620
1.131967,633
1.133633,635
1.1353,625
1.136967,616
1.138633,712
1.1403,658
1.141967,603
1.143633,709
1.1453,516
1.146967,608
1.148633,602
1.1503,593
1.151967,586
1.153633,580
1.1553,682
1.156967,709
1.158633,725
1.1603,640
1.161967,638
1.163633,685
1.1653,671
1.166967,658
1.168633,620
1.1703,620
1.171967,621
1.173633,645
1.1753,669
1.176967,729
1.178633,713
1.1803,697
1.181967,645
1.183633,685
1.1853,725
1.186967,696
1.188633,667
1.1903,543
1.191967,804
1.193633,793
1.1953,840
1.196967,820
1.198633,795
