"SampleName","A2Rd2_01-4"
"Target Mass 1",
"Column Name","IA-3 (3um, 4.6X100)"
"Channel","QDa 1: SIR Ch2"
0.00195,622
0.003616667,784
0.005283333,711
0.00695,597
0.008616666,752
0.01028333,843
0.01195,784
0.01361667,798
0.01528333,812
0.01695,867
0.01861667,921
0.02028333,733
0.02195,984
0.02361667,825
0.02528333,695
0.02695,1058
0.02861667,1070
0.03028333,856
0.03195,944
0.03361667,979
0.03528333,920
0.03695,971
0.03861667,1022
0.04028333,811
0.04195,863
0.04361667,967
0.04528333,767
0.04695,896
0.04861667,767
0.05028334,721
0.05195,749
0.05361667,771
0.05528333,723
0.05695,674
0.05861667,738
0.06028333,801
0.06195,871
0.06361666,857
0.06528334,842
0.06695,777
0.06861667,867
0.07028333,748
0.07195,716
0.07361667,781
0.07528333,793
0.07695,847
0.07861666,797
0.08028334,715
0.08195,836
0.08361667,950
0.08528333,920
0.08695,672
0.08861667,958
0.09028333,926
0.09195,886
0.09361666,836
0.09528334,887
0.09695,890
0.09861667,894
0.1002833,785
0.10195,932
0.1036167,837
0.1052833,742
0.10695,866
0.1086167,920
0.1102833,892
0.11195,817
0.1136167,742
0.1152833,818
0.11695,726
0.1186167,817
0.1202833,909
0.12195,913
0.1236167,897
0.1252833,726
0.12695,921
0.1286167,782
0.1302833,1010
0.13195,881
0.1336167,930
0.1352833,945
0.13695,863
0.1386167,759
0.1402833,938
0.14195,821
0.1436167,839
0.1452833,828
0.14695,757
0.1486167,795
0.1502833,669
0.15195,805
0.1536167,821
0.1552833,819
0.15695,785
0.1586167,750
0.1602833,617
0.16195,826
0.1636167,818
0.1652833,841
0.16695,861
0.1686167,881
0.1702833,869
0.17195,604
0.1736167,753
0.1752833,932
0.17695,619
0.1786167,649
0.1802833,806
0.18195,1040
0.1836167,975
0.1852833,723
0.18695,700
0.1886167,1050
0.1902833,754
0.19195,869
0.1936167,787
0.1952833,833
0.19695,859
0.1986167,796
0.2002833,734
0.20195,717
0.2036167,707
0.2052833,697
0.20695,949
0.2086167,894
0.2102833,869
0.21195,951
0.2136167,870
0.2152833,788
0.21695,745
0.2186167,968
0.2202833,951
0.22195,964
0.2236167,885
0.2252833,1164
0.22695,1128
0.2286167,1092
0.2302833,1042
0.23195,992
0.2336167,1035
0.2352833,1043
0.23695,1051
0.2386167,1044
0.2402833,1037
0.24195,993
0.2436167,1017
0.2452833,1042
0.24695,1070
0.2486167,1050
0.2502833,1031
0.25195,1064
0.2536167,920
0.2552833,1030
0.25695,1116
0.2586167,1072
0.2602833,921
0.26195,1060
0.2636167,1078
0.2652833,1021
0.26695,1055
0.2686167,996
0.2702833,938
0.27195,951
0.2736167,870
0.2753,990
0.27695,909
0.2786167,829
0.2803,894
0.28195,959
0.2836167,938
0.2853,916
0.28695,794
0.2886167,1031
0.2902833,990
0.29195,1054
0.2936167,921
0.2952833,1069
0.29695,896
0.2986333,850
0.3002833,908
0.30195,953
0.3036167,928
0.3052833,904
0.30695,799
0.3086167,1168
0.3102833,1149
0.31195,1142
0.3136167,1123
0.3153,1172
0.31695,1291
0.3186167,888
0.3202833,1226
0.32195,1167
0.3236167,1155
0.3253,1192
0.32695,1163
0.3286167,1080
0.3302833,1346
0.33195,1293
0.3336333,1408
0.3352833,1329
0.3369667,1284
0.3386167,1457
0.3402833,1548
0.34195,1481
0.3436167,1366
0.3452833,1533
0.34695,1505
0.3486167,1482
0.3503,1458
0.35195,1486
0.3536333,1329
0.3552833,1361
0.35695,1459
0.3586167,1317
0.3603,1666
0.36195,1996
0.3636167,3815
0.3652833,5186
0.36695,5702
0.3686333,5587
0.3703,5134
0.3719667,4359
0.3736167,3073
0.3753,2292
0.37695,1931
0.3786333,1676
0.3803,1315
0.38195,1140
0.3836167,962
0.3853,1125
0.38695,952
0.3886333,1075
0.3902833,1011
0.3919667,1067
0.3936333,947
0.3953,931
0.3969667,934
0.3986333,937
0.4003,1043
0.40195,762
0.4036333,757
0.4053,767
0.4069667,701
0.4086333,584
0.4103,596
0.4119667,676
0.4136333,660
0.4153,670
0.41695,713
0.4186333,723
0.4203,740
0.4219667,788
0.4236333,778
0.4253,778
0.4269667,830
0.4286333,834
0.4303,942
0.4319667,986
0.4336333,1020
0.4353,994
0.4369667,968
0.4386333,981
0.4403,1017
0.4419667,1053
0.4436333,1113
0.4453,1139
0.4469667,1279
0.4486333,1244
0.4503,1162
0.4519667,1244
0.4536333,1076
0.4553,1337
0.4569667,1248
0.4586333,980
0.4603,1273
0.4619667,1158
0.4636333,1314
0.4653,1385
0.4669667,1238
0.4686333,1253
0.4703,1269
0.4719667,1278
0.4736333,1337
0.4753,1397
0.4769667,1154
0.4786333,1293
0.4803,1325
0.4819667,1241
0.4836333,1249
0.4853,1069
0.4869667,1237
0.4886333,1183
0.4903,1218
0.4919667,1030
0.4936333,1049
0.4953,1012
0.4969667,1005
0.4986333,998
0.5003,1069
0.5019667,1182
0.5036333,810
0.5053,884
0.5069667,902
0.5086333,779
0.5103,946
0.5119666,970
0.5136333,952
0.5153,1011
0.5169666,871
0.5186333,1047
0.5203,916
0.5219667,917
0.5236334,1024
0.5253,727
0.5269667,1031
0.5286334,926
0.5303,854
0.5319667,1044
0.5336334,860
0.5353,1029
0.5369667,960
0.5386333,927
0.5403,894
0.5419667,845
0.5436333,965
0.5453,1084
0.5469667,1083
0.5486333,1081
0.5503,994
0.5519667,965
0.5536333,892
0.5553,954
0.5569667,920
0.5586333,887
0.5603,978
0.5619667,900
0.5636333,970
0.5653,892
0.5669667,890
0.5686333,841
0.5703,851
0.5719666,861
0.5736333,828
0.5753,883
0.5769666,882
0.5786333,854
0.5803,897
0.5819666,857
0.5836333,880
0.5853,902
0.5869667,825
0.5886334,747
0.5903,790
0.5919667,833
0.5936334,819
0.5953,956
0.5969667,895
0.5986333,833
0.6003,934
0.6019667,816
0.6036333,772
0.6053,938
0.6069667,985
0.6086333,923
0.6103,949
0.6119667,1044
0.6136333,1118
0.6153,843
0.6169667,1020
0.6186333,906
0.6203,740
0.6219667,954
0.6236333,911
0.6253,1085
0.6269667,1016
0.6286333,826
0.6303,882
0.6319667,807
0.6336333,915
0.6353,693
0.6369666,995
0.6386333,724
0.6403,935
0.6419666,850
0.6436333,841
0.6453,844
0.6469667,848
0.6486334,789
0.6503,860
0.6519667,882
0.6536334,841
0.6553,799
0.6569667,846
0.6586334,846
0.6603,850
0.6619667,853
0.6636333,855
0.6653,857
0.6669667,817
0.6686333,746
0.6703,880
0.6719667,833
0.6736333,683
0.6753,730
0.6769667,867
0.6786333,888
0.6803,728
0.6819667,1000
0.6836333,884
0.6853,886
0.6869667,889
0.6886333,903
0.6903,851
0.6919667,818
0.6936333,920
0.6953,777
0.6969666,771
0.6986333,782
0.7003,957
0.7019666,1031
0.7036333,1005
0.7053,843
0.7069666,784
0.7086333,967
0.7103,874
0.7119667,951
0.7136334,990
0.7153,1064
0.7169667,794
0.7186334,856
0.7203,815
0.7219667,619
0.7236333,687
0.7253,839
0.7269667,663
0.7286333,724
0.7303,785
0.7319667,799
0.7336333,818
0.7353,765
0.7369667,921
0.7386333,786
0.7403,651
0.7419667,752
0.7436333,756
0.7453,966
0.7469667,884
0.7486333,773
0.7503,578
0.7519667,764
0.7536333,846
0.7553,832
0.7569667,854
0.7586333,876
0.7603,747
0.7619666,921
0.7636333,659
0.7653,943
0.7669666,743
0.7686333,932
0.7703,915
0.7719667,788
0.7736334,837
0.7753,886
0.7769667,863
0.7786334,885
0.7803,757
0.7819667,903
0.7836334,900
0.7853,762
0.7869667,894
0.7886333,839
0.7903,827
0.7919667,845
0.7936333,815
0.7953,784
0.7969667,849
0.7986333,632
0.8003,848
0.8019667,861
0.8036333,850
0.8053,838
0.8069667,872
0.8086333,878
0.8103,883
0.8119667,915
0.8136333,947
0.8153,1003
0.8169667,975
0.8186333,1064
0.8203,1034
0.8219666,1020
0.8236333,886
0.8253,929
0.8269666,890
0.8286333,852
0.8303,874
0.8319666,873
0.8336333,796
0.8353,785
0.8369667,803
0.8386334,821
0.8403,834
0.8419667,843
0.8436334,862
0.8453,880
0.8469667,882
0.8486333,887
0.8503,648
0.8519667,789
0.8536333,833
0.8553,900
0.8569667,809
0.8586333,868
0.8603,1038
0.8619667,991
0.8636333,1051
0.8653,738
0.8669667,820
0.8686333,939
0.8703,707
0.8719667,984
0.8736333,728
0.8753,517
0.8769667,920
0.8786333,802
0.8803,840
0.8819667,929
0.8836333,1017
0.8853,1103
0.8869666,1215
0.8886333,1185
0.8903,1093
0.8919666,1201
0.8936333,1052
0.8953,1053
0.8969667,1152
0.8986334,1064
0.9003,985
0.9019667,1094
0.9036334,1045
0.9053,986
0.9069667,928
0.9086334,1165
0.9103,1180
0.9119667,966
0.9136333,967
0.9153,1077
0.9169667,1072
0.9186333,1067
0.9203,1116
0.9219667,1109
0.9236333,1102
0.9253,1015
0.9269667,927
0.9286333,1137
0.9303,1097
0.9319667,1277
0.9336333,1312
0.9353,965
0.9369667,1172
0.9386333,1157
0.9403,1297
0.9419667,1198
0.9436333,1194
0.9453,1093
0.9469666,1238
0.9486333,1267
0.9503,1268
0.9519666,1154
0.9536333,1044
0.9553,914
0.9569666,1120
0.9586333,888
0.9603,1127
0.9619667,1199
0.9636334,982
0.9653,980
0.9669667,915
0.9686334,802
0.9703,927
0.9719667,760
0.9736333,840
0.9753,836
0.9769667,898
0.9786333,877
0.9803,856
0.9819667,815
0.9836333,775
0.9853,684
0.9869667,706
0.9886333,781
0.9903,785
0.9919667,777
0.9936333,821
0.9953,866
0.9969667,858
0.9986333,988
1.0003,958
1.001967,928
1.003633,890
1.0053,944
1.006967,879
1.008633,897
1.0103,914
1.011967,877
1.013633,841
1.0153,838
1.016967,775
1.018633,810
1.0203,846
1.021967,888
1.023633,874
1.0253,860
1.026967,746
1.028633,891
1.0303,1032
1.031967,1102
1.033633,1090
1.0353,878
1.036967,1015
1.038633,892
1.0403,869
1.041967,932
1.043633,965
1.0453,959
1.046967,882
1.048633,953
1.0503,922
1.051967,821
1.053633,1001
1.0553,840
1.056967,946
1.058633,891
1.0603,894
1.061967,910
1.063633,925
1.0653,845
1.066967,843
1.068633,827
1.0703,812
1.071967,780
1.073633,872
1.0753,848
1.076967,864
1.078633,813
1.0803,762
1.081967,873
1.083633,942
1.0853,914
1.086967,991
1.088633,1055
1.0903,728
1.091967,963
1.093633,680
1.0953,897
1.096967,990
1.098633,1016
1.1003,937
1.101967,911
1.103633,995
1.1053,901
1.106967,783
1.108633,902
1.1103,825
1.111967,907
1.113633,915
1.1153,666
1.116967,1087
1.118633,1028
1.1203,692
1.121967,851
1.123633,966
1.1253,896
1.126967,880
1.128633,851
1.1303,822
1.131967,649
1.133633,908
1.1353,836
1.136967,806
1.138633,908
1.1403,849
1.141967,790
1.143633,916
1.1453,912
1.146967,804
1.148633,892
1.1503,822
1.151967,738
1.153633,724
1.1553,710
1.156967,833
1.158633,775
1.1603,718
1.161967,884
1.163633,935
1.1653,840
1.166967,783
1.168633,908
1.1703,795
1.171967,775
1.173633,877
1.1753,892
1.176967,855
1.178633,767
1.1803,794
1.181967,822
1.183633,876
1.1853,704
1.186967,776
1.188633,849
1.1903,950
1.191967,902
1.193633,838
1.1953,786
1.196967,711
1.198633,683
