"SampleName","A2Rd2_01-50"
"Target Mass 1",
"Column Name","IA-3 (3um, 4.6X100)"
"Channel","QDa 1: SIR Ch2"
0.00195,805
0.003616667,513
0.005283333,778
0.00695,641
0.008616666,748
0.01028333,854
0.01195,934
0.01361667,932
0.01528333,875
0.01695,846
0.01861667,816
0.02028333,820
0.02195,817
0.02361667,813
0.02528333,927
0.02695,918
0.02861667,905
0.03028333,860
0.03195,814
0.03361667,892
0.03528333,836
0.03695,796
0.03861667,925
0.04028333,920
0.04195,1026
0.04361667,1048
0.04528333,989
0.04695,924
0.04861667,870
0.05028334,978
0.05195,935
0.05361667,630
0.05528333,973
0.05695,910
0.05861667,1021
0.06028333,837
0.06195,892
0.06361666,896
0.06528334,753
0.06695,877
0.06861667,853
0.07028333,981
0.07195,1072
0.07361667,690
0.07528333,868
0.07695,956
0.07861666,733
0.08028334,803
0.08195,813
0.08361667,985
0.08528333,1029
0.08695,725
0.08861667,943
0.09028333,767
0.09195,896
0.09361666,861
0.09528334,827
0.09695,847
0.09861667,921
0.1002833,942
0.10195,891
0.1036167,872
0.1052833,853
0.10695,877
0.1086167,896
0.1102833,942
0.11195,805
0.1136167,902
0.1152833,983
0.11695,878
0.1186167,867
0.1202833,646
0.12195,816
0.1236167,795
0.1252833,800
0.12695,866
0.1286167,816
0.1302833,767
0.13195,868
0.1336167,886
0.1352833,903
0.13695,839
0.1386167,889
0.1402833,895
0.14195,902
0.1436167,862
0.1452833,869
0.14695,862
0.1486167,660
0.1502833,973
0.15195,824
0.1536167,887
0.1552833,739
0.15695,847
0.1586167,822
0.1602833,796
0.16195,780
0.1636167,673
0.1652833,922
0.16695,932
0.1686167,885
0.1702833,890
0.17195,894
0.1736167,906
0.1752833,917
0.17695,959
0.1786167,813
0.1802833,852
0.18195,987
0.1836167,864
0.1852833,927
0.18695,812
0.1886167,822
0.1902833,952
0.19195,734
0.1936167,922
0.1952833,913
0.19695,942
0.1986167,765
0.2002833,1036
0.20195,722
0.2036167,999
0.2052833,1179
0.20695,932
0.2086167,1038
0.2102833,848
0.21195,758
0.2136167,976
0.2152833,847
0.21695,718
0.2186167,1039
0.2202833,1030
0.22195,1155
0.2236167,1068
0.2252833,1107
0.22695,1050
0.2286167,1118
0.2302833,1159
0.23195,1160
0.2336167,1273
0.2352833,1279
0.23695,1186
0.2386167,1014
0.2402833,1149
0.24195,1174
0.2436167,1214
0.2452833,1170
0.24695,1126
0.2486167,1020
0.2502833,1203
0.25195,1314
0.2536167,1235
0.2552833,1072
0.25695,1060
0.2586167,999
0.2602833,1028
0.26195,1030
0.2636333,1033
0.2653,1062
0.2669667,1234
0.2686167,1212
0.2702833,985
0.27195,950
0.2736167,1061
0.2752833,1010
0.27695,713
0.2786167,937
0.2803,1052
0.28195,1123
0.2836167,805
0.2852833,1008
0.28695,957
0.2886167,1103
0.2902833,914
0.29195,1082
0.2936167,1073
0.2952833,1070
0.29695,1107
0.2986333,1144
0.3002833,1150
0.30195,917
0.3036167,948
0.3052833,870
0.30695,1055
0.3086167,1180
0.3102833,1068
0.31195,1257
0.3136167,1181
0.3153,1104
0.3169667,1178
0.3186167,1252
0.3202833,966
0.32195,1002
0.3236167,1072
0.3252833,1414
0.32695,1358
0.3286167,1155
0.3302833,1338
0.33195,1298
0.3336333,1364
0.3352833,1302
0.33695,1494
0.3386167,1111
0.3402833,1598
0.34195,1391
0.3436167,1309
0.3453,1387
0.3469667,1463
0.3486333,1502
0.3503,1184
0.35195,1508
0.3536167,1225
0.3552833,1383
0.35695,1338
0.3586167,1338
0.3602833,1345
0.3619667,1414
0.3636333,1419
0.3652833,2366
0.3669667,3954
0.3686333,4727
0.3702833,4799
0.3719667,5620
0.3736167,5081
0.3753,5138
0.37695,4808
0.3786333,3865
0.3803,3429
0.38195,2477
0.3836167,2082
0.3853,1940
0.38695,1551
0.3886333,1245
0.3903,962
0.3919667,752
0.3936167,544
0.3953,526
0.3969667,576
0.3986167,501
0.4002833,461
0.4019667,579
0.4036333,569
0.4053,564
0.4069667,559
0.4086167,662
0.4103,765
0.4119667,807
0.4136333,685
0.4153,609
0.4169667,661
0.4186333,581
0.4203,678
0.4219667,829
0.4236333,794
0.4253,741
0.4269667,814
0.4286333,565
0.4303,823
0.4319667,666
0.4336333,902
0.4353,786
0.4369667,871
0.4386333,846
0.4403,810
0.4419667,955
0.4436333,938
0.4453,987
0.4469667,1037
0.4486333,1031
0.4503,1089
0.4519667,1148
0.4536333,1293
0.4553,1352
0.4569667,1353
0.4586333,1252
0.4603,1330
0.4619667,1338
0.4636333,1347
0.4653,1360
0.4669667,1374
0.4686333,1492
0.4703,1610
0.4719667,1521
0.4736333,1766
0.4753,1756
0.4769667,1461
0.4786333,1463
0.4803,1268
0.4819667,1202
0.4836333,1462
0.4853,1020
0.4869667,1385
0.4886333,1318
0.4903,1483
0.4919667,1146
0.4936333,1009
0.4953,987
0.4969667,952
0.4986333,918
0.5003,1012
0.5019667,872
0.5036333,942
0.5053,946
0.5069667,928
0.5086333,910
0.5103,926
0.5119666,845
0.5136333,899
0.5153,781
0.5169666,805
0.5186333,847
0.5203,749
0.5219667,796
0.5236334,816
0.5253,849
0.5269667,883
0.5286334,912
0.5303,914
0.5319667,911
0.5336334,907
0.5353,941
0.5369667,976
0.5386333,844
0.5403,1070
0.5419667,1143
0.5436333,1127
0.5453,1214
0.5469667,871
0.5486333,854
0.5503,1051
0.5519667,917
0.5536333,991
0.5553,815
0.5569667,874
0.5586333,1142
0.5603,1200
0.5619667,860
0.5636333,1164
0.5653,908
0.5669667,967
0.5686333,992
0.5703,1053
0.5719666,1047
0.5736333,931
0.5753,1057
0.5769666,1107
0.5786333,922
0.5803,1083
0.5819666,964
0.5836333,1069
0.5853,991
0.5869667,1071
0.5886334,943
0.5903,962
0.5919667,980
0.5936334,1023
0.5953,842
0.5969667,992
0.5986333,959
0.6003,927
0.6019667,1071
0.6036333,816
0.6053,873
0.6069667,1002
0.6086333,1040
0.6103,871
0.6119667,807
0.6136333,1073
0.6153,753
0.6169667,1010
0.6186333,1110
0.6203,901
0.6219667,1008
0.6236333,989
0.6253,985
0.6269667,1129
0.6286333,1067
0.6303,1004
0.6319667,951
0.6336333,1025
0.6353,1100
0.6369666,1136
0.6386333,1204
0.6403,939
0.6419666,1209
0.6436333,1169
0.6453,1161
0.6469667,1196
0.6486334,1187
0.6503,1178
0.6519667,855
0.6536334,1053
0.6553,1182
0.6569667,1136
0.6586334,958
0.6603,1041
0.6619667,1080
0.6636333,797
0.6653,1114
0.6669667,1061
0.6686333,1180
0.6703,1216
0.6719667,1009
0.6736333,1120
0.6753,1208
0.6769667,1417
0.6786333,1834
0.6803,2139
0.6819667,2646
0.6836333,3497
0.6853,4106
0.6869667,4911
0.6886333,5839
0.6903,6810
0.6919667,7988
0.6936333,9884
0.6953,11652
0.6969666,12864
0.6986333,14424
0.7003,16796
0.7019666,18420
0.7036333,20240
0.7053,22160
0.7069666,22800
0.7086333,25152
0.7103,25772
0.7119667,26748
0.7136334,27180
0.7153,27552
0.7169667,25368
0.7186334,24436
0.7203,23780
0.7219667,22056
0.7236333,19448
0.7253,18164
0.7269667,16396
0.7286333,13520
0.7303,11652
0.7319667,10284
0.7336333,8240
0.7353,7045
0.7369667,6399
0.7386333,4975
0.7403,4741
0.7419667,3907
0.7436333,3553
0.7453,2463
0.7469667,2850
0.7486333,2716
0.7503,2747
0.7519667,2310
0.7536333,1663
0.7553,1579
0.7569667,1702
0.7586333,1399
0.7603,1505
0.7619666,1641
0.7636333,1280
0.7653,1484
0.7669666,1411
0.7686333,1366
0.7703,1209
0.7719667,1413
0.7736334,1429
0.7753,1626
0.7769667,1822
0.7786334,2031
0.7803,2123
0.7819667,2752
0.7836334,3188
0.7853,3913
0.7869667,4914
0.7886333,5322
0.7903,6971
0.7919667,8872
0.7936333,10456
0.7953,12224
0.7969667,14540
0.7986333,16964
0.8003,18204
0.8019667,22344
0.8036333,24944
0.8053,26028
0.8069667,29156
0.8086333,30820
0.8103,33792
0.8119667,37312
0.8136333,37936
0.8153,40208
0.8169667,40784
0.8186333,41360
0.8203,42176
0.8219666,41760
0.8236333,41328
0.8253,40192
0.8269666,38768
0.8286333,36480
0.8303,34592
0.8319666,31508
0.8336333,28724
0.8353,25404
0.8369667,19932
0.8386334,18828
0.8403,15832
0.8419667,13372
0.8436334,11224
0.8453,10272
0.8469667,8115
0.8486333,7988
0.8503,6948
0.8519667,5696
0.8536333,4926
0.8553,4123
0.8569667,4037
0.8586333,3511
0.8603,3452
0.8619667,3047
0.8636333,2771
0.8653,2601
0.8669667,2704
0.8686333,2296
0.8703,1897
0.8719667,2019
0.8736333,1926
0.8753,1953
0.8769667,1981
0.8786333,1837
0.8803,2206
0.8819667,2223
0.8836333,2325
0.8853,2398
0.8869666,2470
0.8886333,2498
0.8903,2377
0.8919666,2024
0.8936333,2157
0.8953,2014
0.8969667,1955
0.8986334,1658
0.9003,2059
0.9019667,1795
0.9036334,1552
0.9053,1896
0.9069667,1739
0.9086334,1617
0.9103,1629
0.9119667,1615
0.9136333,1601
0.9153,1684
0.9169667,1790
0.9186333,1785
0.9203,1560
0.9219667,1448
0.9236333,1576
0.9253,1475
0.9269667,1403
0.9286333,1526
0.9303,1486
0.9319667,1446
0.9336333,1443
0.9353,1399
0.9369667,1453
0.9386333,1743
0.9403,1672
0.9419667,1603
0.9436333,1384
0.9453,1349
0.9469666,1597
0.9486333,1713
0.9503,1700
0.9519666,1687
0.9536333,1577
0.9553,1927
0.9569666,1873
0.9586333,2209
0.9603,2947
0.9619667,2745
0.9636334,3104
0.9653,3839
0.9669667,4507
0.9686334,5272
0.9703,5624
0.9719667,7147
0.9736333,8380
0.9753,9472
0.9769667,11480
0.9786333,12836
0.9803,15156
0.9819667,16336
0.9836333,18228
0.9853,21448
0.9869667,23560
0.9886333,26288
0.9903,29472
0.9919667,31656
0.9936333,33856
0.9953,37232
0.9969667,40240
0.9986333,43072
1.0003,44320
1.001967,46576
1.003633,49424
1.0053,50880
1.006967,53472
1.008633,53392
1.0103,55072
1.011967,54464
1.013633,54912
1.0153,55312
1.016967,54928
1.018633,51328
1.0203,48880
1.021967,46752
1.023633,43792
1.0253,41104
1.026967,38096
1.028633,34336
1.0303,30716
1.031967,27268
1.033633,23956
1.0353,20384
1.036967,18560
1.038633,17308
1.0403,15984
1.041967,13980
1.043633,12740
1.0453,10752
1.046967,9892
1.048633,9028
1.0503,9280
1.051967,8976
1.053633,8692
1.0553,7245
1.056967,7740
1.058633,8054
1.0603,7634
1.061967,7588
1.063633,7515
1.0653,7990
1.066967,8196
1.068633,8552
1.0703,8820
1.071967,9828
1.073633,10476
1.0753,9928
1.076967,10380
1.078633,11680
1.0803,11772
1.081967,13388
1.083633,12728
1.0853,14284
1.086967,14844
1.088633,16172
1.0903,16224
1.091967,16288
1.093633,16060
1.0953,16400
1.096967,16736
1.098633,16716
1.1003,18120
1.101967,18572
1.103633,17336
1.1053,17264
1.106967,17176
1.108633,16840
1.1103,15892
1.111967,13992
1.113633,14464
1.1153,13124
1.116967,12848
1.118633,11540
1.1203,11040
1.121967,11048
1.123633,10032
1.1253,9888
1.126967,8584
1.128633,7508
1.1303,7318
1.131967,6089
1.133633,6403
1.1353,5715
1.136967,4762
1.138633,5233
1.1403,4313
1.141967,3971
1.143633,3673
1.1453,4284
1.146967,3515
1.148633,2982
1.1503,3203
1.151967,2747
1.153633,2907
1.1553,2707
1.156967,2587
1.158633,2417
1.1603,2443
1.161967,2087
1.163633,2490
1.1653,2081
1.166967,2011
1.168633,2314
1.1703,1899
1.171967,2035
1.173633,2125
1.1753,1815
1.176967,1674
1.178633,1710
1.1803,1545
1.181967,1648
1.183633,1523
1.1853,1694
1.186967,1377
1.188633,1629
1.1903,1562
1.191967,1616
1.193633,1671
1.1953,1640
1.196967,1610
1.198633,1777
