"SampleName","A2Rd2_01-64"
"Target Mass 1",
"Column Name","IA-3 (3um, 4.6X100)"
"Channel","QDa 1: SIR Ch1"
0.00195,308
0.003616667,561
0.005283333,542
0.00695,538
0.008616666,539
0.01028333,472
0.01195,550
0.01361667,506
0.01528333,411
0.01695,517
0.01861667,511
0.02028333,598
0.02195,559
0.02361667,528
0.02528333,394
0.02695,459
0.02861667,560
0.03028333,500
0.03195,564
0.03361667,367
0.03528333,403
0.03695,440
0.03861667,457
0.04028333,474
0.04195,479
0.04361667,541
0.04528333,517
0.04695,493
0.04861667,507
0.05028334,520
0.05195,532
0.05361667,544
0.05528333,550
0.05695,489
0.05861667,481
0.06028333,472
0.06195,584
0.06361666,581
0.06528334,556
0.06695,637
0.06861667,458
0.07028333,482
0.07195,553
0.07361667,479
0.07528333,443
0.07695,552
0.07861666,469
0.08028334,457
0.08195,446
0.08361667,466
0.08528333,465
0.08695,463
0.08861667,450
0.09028333,422
0.09195,512
0.09361666,588
0.09528334,618
0.09695,594
0.09861667,632
0.1002833,647
0.10195,461
0.1036167,662
0.1052833,581
0.10695,530
0.1086167,595
0.1102833,576
0.11195,560
0.1136167,477
0.1152833,492
0.11695,519
0.1186167,494
0.1202833,470
0.12195,493
0.1236167,516
0.1252833,505
0.12695,454
0.1286167,465
0.1302833,450
0.13195,444
0.1336167,437
0.1352833,410
0.13695,591
0.1386167,601
0.1402833,523
0.14195,525
0.1436167,453
0.1452833,418
0.14695,553
0.1486167,490
0.1502833,478
0.15195,466
0.1536167,464
0.1552833,452
0.15695,440
0.1586167,514
0.1602833,505
0.16195,622
0.1636167,662
0.1652833,505
0.16695,654
0.1686167,455
0.1702833,571
0.17195,583
0.1736167,422
0.1752833,473
0.17695,550
0.1786167,540
0.1802833,555
0.18195,472
0.1836167,555
0.1853,511
0.18695,487
0.1886167,463
0.1902833,467
0.19195,450
0.1936333,434
0.1952833,479
0.19695,484
0.1986167,489
0.2002833,494
0.20195,366
0.2036167,503
0.2052833,639
0.20695,602
0.2086167,628
0.2103,605
0.21195,468
0.2136333,464
0.2152833,603
0.21695,490
0.2186333,500
0.2202833,509
0.22195,510
0.2236167,510
0.2252833,460
0.22695,522
0.2286333,531
0.2303,540
0.2319667,541
0.2336333,543
0.2353,456
0.2369667,503
0.2386167,518
0.2402833,568
0.24195,412
0.2436333,452
0.2453,458
0.2469667,492
0.2486333,489
0.2503,487
0.2519667,522
0.2536333,402
0.2553,423
0.2569667,444
0.2586333,444
0.2603,470
0.2619667,495
0.2636333,353
0.2653,374
0.2669667,396
0.2686333,447
0.2703,555
0.2719667,521
0.2736333,536
0.2753,477
0.2769667,562
0.2786333,551
0.2803,489
0.2819667,520
0.2836333,508
0.2853,495
0.2869667,522
0.2886333,475
0.2903,427
0.2919667,376
0.2936333,422
0.2953,468
0.2969667,491
0.2986333,447
0.3003,516
0.3019667,624
0.3036333,569
0.3053,515
0.3069667,424
0.3086333,566
0.3103,655
0.3119667,646
0.3136333,668
0.3153,690
0.3169667,520
0.3186333,440
0.3203,726
0.3219667,544
0.3236333,535
0.3253,586
0.3269667,478
0.3286333,526
0.3303,594
0.3319667,540
0.3336333,489
0.3353,512
0.3369667,536
0.3386333,650
0.3403,587
0.3419667,523
0.3436333,532
0.3453,513
0.3469667,431
0.3486333,464
0.3503,469
0.3519667,473
0.3536333,492
0.3553,510
0.3569667,583
0.3586333,566
0.3603,687
0.3619667,847
0.3636333,948
0.3653,1916
0.3669667,2528
0.3686333,4122
0.3703,5860
0.3719667,6514
0.3736333,6235
0.3753,6524
0.3769667,6406
0.3786333,5235
0.3803,4474
0.3819667,3861
0.3836333,2875
0.3853,2072
0.3869667,1846
0.3886333,1213
0.3903,1221
0.3919667,938
0.3936333,1207
0.3953,990
0.3969667,1125
0.3986333,1158
0.4003,1334
0.4019667,1513
0.4036333,1393
0.4053,1518
0.4069667,1648
0.4086333,1940
0.4103,1851
0.4119667,1916
0.4136333,2227
0.4153,2354
0.4169667,2145
0.4186333,2248
0.4203,2335
0.4219667,2292
0.4236333,2355
0.4253,2385
0.4269667,2602
0.4286333,2753
0.4303,3023
0.4319667,4052
0.4336333,4411
0.4353,5725
0.4369667,8069
0.4386333,11180
0.4403,14704
0.4419667,19768
0.4436333,25672
0.4453,34272
0.4469667,43888
0.4486333,55696
0.4503,69056
0.4519667,86368
0.4536333,101632
0.4553,119904
0.4569667,140416
0.4586333,153856
0.4603,177920
0.4619667,203520
0.4636333,228672
0.4653,256960
0.4669667,284160
0.4686333,307904
0.4703,339712
0.4719667,350464
0.4736333,361152
0.4753,357568
0.4769667,342656
0.4786333,318016
0.4803,284992
0.4819667,250240
0.4836333,215744
0.4853,177152
0.4869667,141568
0.4886333,113488
0.4903,87056
0.4919667,69728
0.4936333,51568
0.4953,38288
0.4969667,29760
0.4986333,21964
0.5003,18880
0.5019667,14592
0.5036333,12624
0.5053,10420
0.5069667,9240
0.5086333,7603
0.5103,7619
0.5119666,6184
0.5136333,5904
0.5153,5376
0.5169666,5283
0.5186333,4427
0.5203,4720
0.5219667,4437
0.5236334,4355
0.5253,4605
0.5269667,3966
0.5286334,3826
0.5303,3799
0.5319667,3831
0.5336334,3641
0.5353,3210
0.5369667,3255
0.5386333,3123
0.5403,2971
0.5419667,3205
0.5436333,3134
0.5453,2666
0.5469667,2830
0.5486333,2316
0.5503,2490
0.5519667,2583
0.5536333,2434
0.5553,2464
0.5569667,2060
0.5586333,2310
0.5603,2184
0.5619667,2439
0.5636333,2297
0.5653,2106
0.5669667,1927
0.5686333,2020
0.5703,2218
0.5719666,2107
0.5736333,1738
0.5753,2097
0.5769666,2089
0.5786333,2001
0.5803,2013
0.5819666,2184
0.5836333,1733
0.5853,1920
0.5869667,2272
0.5886334,2246
0.5903,2020
0.5919667,2333
0.5936334,2039
0.5953,2334
0.5969667,2249
0.5986333,1788
0.6003,2247
0.6019667,1938
0.6036333,1997
0.6053,1981
0.6069667,1787
0.6086333,2055
0.6103,1984
0.6119667,1912
0.6136333,1893
0.6153,1796
0.6169667,1940
0.6186333,1652
0.6203,2012
0.6219667,1956
0.6236333,1953
0.6253,1500
0.6269667,1654
0.6286333,1716
0.6303,1429
0.6319667,1520
0.6336333,1561
0.6353,1583
0.6369666,1605
0.6386333,1496
0.6403,1411
0.6419666,1456
0.6436333,1485
0.6453,1132
0.6469667,1090
0.6486334,1461
0.6503,1217
0.6519667,1124
0.6536334,1496
0.6553,1562
0.6569667,1344
0.6586334,1486
0.6603,1277
0.6619667,1354
0.6636333,1354
0.6653,1086
0.6669667,1505
0.6686333,1306
0.6703,1148
0.6719667,1288
0.6736333,1378
0.6753,1221
0.6769667,1078
0.6786333,1253
0.6803,1161
0.6819667,1007
0.6836333,1168
0.6853,1236
0.6869667,1304
0.6886333,1290
0.6903,1277
0.6919667,1190
0.6936333,1012
0.6953,1383
0.6969666,1405
0.6986333,1386
0.7003,1246
0.7019666,1218
0.7036333,1125
0.7053,1234
0.7069666,1175
0.7086333,1265
0.7103,1254
0.7119667,1205
0.7136334,959
0.7153,1141
0.7169667,1081
0.7186334,1085
0.7203,1154
0.7219667,1129
0.7236333,1104
0.7253,1286
0.7269667,1266
0.7286333,1099
0.7303,1385
0.7319667,1102
0.7336333,1218
0.7353,1013
0.7369667,1192
0.7386333,1164
0.7403,1126
0.7419667,1088
0.7436333,1003
0.7453,1083
0.7469667,1162
0.7486333,1162
0.7503,1057
0.7519667,1067
0.7536333,1130
0.7553,995
0.7569667,1215
0.7586333,1187
0.7603,1265
0.7619666,1190
0.7636333,1073
0.7653,1072
0.7669666,1071
0.7686333,1077
0.7703,1065
0.7719667,1046
0.7736334,1083
0.7753,894
0.7769667,1148
0.7786334,925
0.7803,1076
0.7819667,1071
0.7836334,914
0.7853,866
0.7869667,1099
0.7886333,944
0.7903,1167
0.7919667,1132
0.7936333,1112
0.7953,1069
0.7969667,971
0.7986333,1185
0.8003,1197
0.8019667,1183
0.8036333,1034
0.8053,999
0.8069667,1083
0.8086333,1055
0.8103,1113
0.8119667,1101
0.8136333,1089
0.8153,1052
0.8169667,1014
0.8186333,1214
0.8203,1181
0.8219666,1149
0.8236333,1200
0.8253,1187
0.8269666,1174
0.8286333,1086
0.8303,1007
0.8319666,1059
0.8336333,1110
0.8353,1062
0.8369667,1346
0.8386334,1282
0.8403,1275
0.8419667,1145
0.8436334,1253
0.8453,1118
0.8469667,1174
0.8486333,1150
0.8503,1112
0.8519667,1039
0.8536333,959
0.8553,907
0.8569667,984
0.8586333,1148
0.8603,1142
0.8619667,1550
0.8636333,1749
0.8653,2272
0.8669667,3507
0.8686333,3308
0.8703,4069
0.8719667,4804
0.8736333,4682
0.8753,5104
0.8769667,5171
0.8786333,5405
0.8803,5388
0.8819667,4723
0.8836333,5056
0.8853,4905
0.8869666,4653
0.8886333,4157
0.8903,4297
0.8919666,4579
0.8936333,4382
0.8953,4737
0.8969667,4628
0.8986334,4578
0.9003,4539
0.9019667,4186
0.9036334,3953
0.9053,4320
0.9069667,4528
0.9086334,4473
0.9103,4418
0.9119667,4614
0.9136333,4810
0.9153,4842
0.9169667,4856
0.9186333,4429
0.9203,4258
0.9219667,4421
0.9236333,4323
0.9253,4131
0.9269667,4409
0.9286333,4574
0.9303,4021
0.9319667,3840
0.9336333,3762
0.9353,3331
0.9369667,3736
0.9386333,3170
0.9403,3172
0.9419667,2757
0.9436333,2924
0.9453,2593
0.9469666,2458
0.9486333,2762
0.9503,2185
0.9519666,2287
0.9536333,2027
0.9553,1915
0.9569666,1678
0.9586333,1862
0.9603,1840
0.9619667,1478
0.9636334,1482
0.9653,1467
0.9669667,1120
0.9686334,1416
0.9703,1119
0.9719667,1209
0.9736333,1156
0.9753,1095
0.9769667,1028
0.9786333,964
0.9803,946
0.9819667,881
0.9836333,876
0.9853,919
0.9869667,896
0.9886333,874
0.9903,648
0.9919667,806
0.9936333,652
0.9953,650
0.9969667,858
0.9986333,862
1.0003,703
1.001967,676
1.003633,630
1.0053,623
1.006967,694
1.008633,695
1.0103,696
1.011967,671
1.013633,655
1.0153,675
1.016967,674
1.018633,672
1.0203,710
1.021967,746
1.023633,782
1.0253,628
1.026967,715
1.028633,680
1.0303,645
1.031967,740
1.033633,628
1.0353,755
1.036967,723
1.038633,710
1.0403,699
1.041967,687
1.043633,747
1.0453,699
1.046967,652
1.048633,731
1.0503,602
1.051967,884
1.053633,856
1.0553,792
1.056967,840
1.058633,779
1.0603,817
1.061967,691
1.063633,888
1.0653,580
1.066967,782
1.068633,754
1.0703,616
1.071967,825
1.073633,831
1.0753,672
1.076967,659
1.078633,686
1.0803,713
1.081967,787
1.083633,780
1.0853,735
1.086967,807
1.088633,581
1.0903,739
1.091967,802
1.093633,733
1.0953,708
1.096967,683
1.098633,704
1.1003,713
1.101967,722
1.103633,705
1.1053,688
1.106967,790
1.108633,710
1.1103,630
1.111967,798
1.113633,739
1.1153,682
1.116967,763
1.118633,691
1.1203,714
1.121967,738
1.123633,821
1.1253,758
1.126967,695
1.128633,771
1.1303,629
1.131967,882
1.133633,795
1.1353,950
1.136967,803
1.138633,820
1.1403,862
1.141967,859
1.143633,856
1.1453,962
1.146967,938
1.148633,866
1.1503,965
1.151967,806
1.153633,809
1.1553,842
1.156967,876
1.158633,881
1.1603,886
1.161967,915
1.163633,943
1.1653,811
1.166967,872
1.168633,932
1.1703,1121
1.171967,1131
1.173633,1140
1.1753,904
1.176967,986
1.178633,1041
1.1803,1106
1.181967,1044
1.183633,972
1.1853,1011
1.186967,1015
1.188633,1010
1.190317,993
1.191967,1029
1.193633,1019
1.1953,1009
1.196967,1089
1.198633,1154
