"SampleName","A2Rd2_01-55"
"Target Mass 1",
"Column Name","IA-3 (3um, 4.6X100)"
"Channel","QDa 1: SIR Ch2"
0.00195,535
0.003616667,703
0.005283333,677
0.00695,776
0.008616666,893
0.01028333,1017
0.01195,966
0.01361667,980
0.01528333,973
0.01695,965
0.01861667,868
0.02028333,911
0.02195,953
0.02361667,987
0.02528333,1001
0.02695,1027
0.02861667,1053
0.03028333,960
0.03195,1095
0.03361667,908
0.03528333,1156
0.03695,980
0.03861667,1142
0.04028333,786
0.04195,1045
0.04361667,1046
0.04528333,1037
0.04695,1027
0.04861667,1039
0.05028334,1051
0.05195,1161
0.05361667,1178
0.05528333,1246
0.05695,939
0.05861667,1060
0.06028333,822
0.06195,1013
0.06361666,1070
0.06528334,1136
0.06695,1136
0.06861667,906
0.07028333,1014
0.07195,929
0.07361667,1017
0.07528333,960
0.07695,1005
0.07861666,1008
0.08028334,1012
0.08195,1120
0.08361667,1142
0.08528333,958
0.08695,786
0.08861667,1180
0.09028333,1026
0.09195,1108
0.09361666,1251
0.09528334,1136
0.09695,935
0.09861667,1023
0.1002833,1109
0.10195,1027
0.1036167,873
0.1052833,899
0.10695,925
0.1086167,1082
0.1102833,1009
0.11195,936
0.1136167,986
0.1152833,1028
0.11695,1083
0.1186167,1176
0.1202833,760
0.12195,959
0.1236167,921
0.1252833,939
0.12695,986
0.1286167,986
0.1302833,987
0.13195,1000
0.1336167,1012
0.1352833,1038
0.13695,1063
0.1386167,1065
0.1402833,1118
0.14195,1171
0.1436167,842
0.1452833,882
0.14695,833
0.1486167,925
0.1502833,1018
0.15195,1062
0.1536167,942
0.1552833,931
0.15695,1043
0.1586167,1097
0.1602833,1067
0.16195,927
0.1636167,882
0.1652833,902
0.16695,923
0.1686167,904
0.1702833,802
0.17195,944
0.1736167,882
0.1752833,820
0.17695,1017
0.1786167,980
0.1802833,943
0.18195,1122
0.1836167,771
0.1852833,1033
0.18695,1041
0.1886167,966
0.1902833,1023
0.19195,854
0.1936167,907
0.1952833,961
0.19695,907
0.1986167,1014
0.2002833,1022
0.20195,967
0.2036167,911
0.2052833,865
0.20695,925
0.2086167,1002
0.2102833,980
0.21195,1024
0.2136167,1163
0.2152833,1143
0.21695,1108
0.2186167,1120
0.2202833,1198
0.22195,966
0.2236167,1129
0.2252833,1055
0.22695,1087
0.2286167,1118
0.2302833,1081
0.23195,1231
0.2336167,1247
0.2352833,1091
0.23695,1104
0.2386167,1149
0.2402833,1195
0.24195,1329
0.2436167,1366
0.2452833,1163
0.24695,1126
0.2486167,1195
0.2502833,1092
0.25195,1121
0.2536167,1186
0.2552833,1162
0.25695,1139
0.2586167,1238
0.2602833,1204
0.26195,1169
0.2636167,1153
0.2652833,1136
0.26695,1178
0.2686167,1221
0.2702833,1167
0.27195,1114
0.2736167,1107
0.2752833,1100
0.27695,1089
0.2786167,1217
0.2802833,1209
0.28195,1196
0.2836167,1029
0.2852833,1169
0.28695,1006
0.2886167,1145
0.2902833,1204
0.29195,1262
0.2936167,1289
0.2952833,1147
0.29695,1217
0.2986333,1264
0.3002833,1311
0.30195,1302
0.3036167,1328
0.3052833,1208
0.30695,1376
0.3086167,1323
0.3102833,1314
0.31195,1419
0.3136167,1369
0.3153,1320
0.31695,1235
0.3186167,1276
0.3202833,1282
0.32195,1288
0.3236167,1357
0.3252833,1363
0.32695,1190
0.3286167,1434
0.3302833,1400
0.33195,1297
0.3336333,1464
0.3352833,1457
0.33695,1311
0.3386167,1526
0.3402833,1319
0.34195,1259
0.3436167,1379
0.3452833,1413
0.34695,1315
0.3486167,1404
0.3503,1206
0.35195,1267
0.3536167,1328
0.3552833,1369
0.35695,1225
0.3586167,1452
0.3602833,1381
0.36195,1446
0.3636167,1628
0.3652833,2802
0.36695,3738
0.3686333,4532
0.3702833,4912
0.37195,4517
0.3736167,4932
0.3753,3831
0.37695,3523
0.3786167,2315
0.3802833,1906
0.38195,1728
0.3836167,1070
0.3853,1037
0.38695,672
0.3886333,500
0.3902833,606
0.39195,458
0.3936333,417
0.3952833,538
0.39695,430
0.3986167,477
0.4002833,537
0.40195,576
0.4036333,496
0.4053,594
0.4069667,692
0.4086333,813
0.4103,869
0.41195,984
0.4136167,996
0.4153,1079
0.4169667,752
0.4186333,1034
0.4203,983
0.4219667,1043
0.4236333,1065
0.4252833,880
0.4269667,885
0.4286333,1056
0.4303,1058
0.4319667,1024
0.4336333,989
0.4353,1241
0.4369667,1222
0.4386333,1356
0.4403,1291
0.4419667,1204
0.4436333,1439
0.4453,1515
0.4469667,1461
0.4486333,1678
0.4503,1653
0.4519667,1580
0.4536333,1477
0.4553,1504
0.4569667,1684
0.4586333,1671
0.4603,1685
0.4619667,1732
0.4636333,1742
0.4653,1807
0.4669667,1988
0.4686333,1466
0.4703,1744
0.4719667,1705
0.4736333,1706
0.4753,1702
0.4769667,1625
0.4786333,1506
0.4803,1364
0.4819667,1393
0.4836333,1317
0.4853,1241
0.4869667,1453
0.4886333,1124
0.4903,1434
0.4919667,1252
0.4936333,1231
0.4953,1174
0.4969667,1076
0.4986333,1100
0.5003,1088
0.5019667,1239
0.5036333,1169
0.5053,1098
0.5069667,1223
0.5086333,978
0.5103,1048
0.5119666,1036
0.5136333,1169
0.5153,1124
0.5169666,1028
0.5186333,1112
0.5203,1058
0.5219667,1093
0.5236334,1127
0.5253,1145
0.5269667,1127
0.5286334,1109
0.5303,978
0.5319667,1191
0.5336334,1270
0.5353,1211
0.5369667,1277
0.5386333,1130
0.5403,1176
0.5419667,950
0.5436333,1105
0.5453,978
0.5469667,1062
0.5486333,1039
0.5503,971
0.5519667,1120
0.5536333,1128
0.5553,1287
0.5569667,1271
0.5586333,1059
0.5603,1062
0.5619667,1041
0.5636333,1259
0.5653,1300
0.5669667,1002
0.5686333,991
0.5703,1187
0.5719666,1117
0.5736333,1048
0.5753,1053
0.5769666,1041
0.5786333,1028
0.5803,1121
0.5819666,876
0.5836333,1052
0.5853,946
0.5869667,1085
0.5886334,1042
0.5903,1022
0.5919667,1101
0.5936334,968
0.5953,981
0.5969667,994
0.5986333,919
0.6003,956
0.6019667,1009
0.6036333,931
0.6053,945
0.6069667,1050
0.6086333,1130
0.6103,1065
0.6119667,911
0.6136333,1038
0.6153,1068
0.6169667,1191
0.6186333,1259
0.6203,939
0.6219667,1186
0.6236333,1193
0.6253,1269
0.6269667,1263
0.6286333,1258
0.6303,1269
0.6319667,1351
0.6336333,1353
0.6353,1356
0.6369666,1373
0.6386333,1256
0.6403,1140
0.6419666,1356
0.6436333,1220
0.6453,1367
0.6469667,1331
0.6486334,1294
0.6503,1263
0.6519667,1098
0.6536334,1237
0.6553,1117
0.6569667,1031
0.6586334,1063
0.6603,1140
0.6619667,960
0.6636333,1077
0.6653,1026
0.6669667,1108
0.6686333,1099
0.6703,1138
0.6719667,1017
0.6736333,1064
0.6753,1135
0.6769667,1310
0.6786333,1361
0.6803,1196
0.6819667,1676
0.6836333,1639
0.6853,1632
0.6869667,1967
0.6886333,2442
0.6903,2981
0.6919667,3248
0.6936333,3817
0.6953,4676
0.6969666,4963
0.6986333,5110
0.7003,6177
0.7019666,6074
0.7036333,6946
0.7053,7960
0.7069666,8620
0.7086333,8576
0.7103,9692
0.7119667,9960
0.7136334,10120
0.7153,10496
0.7169667,10936
0.7186334,10708
0.7203,10612
0.7219667,9900
0.7236333,9876
0.7253,9072
0.7269667,8644
0.7286333,7004
0.7303,5944
0.7319667,5779
0.7336333,5112
0.7353,4252
0.7369667,3908
0.7386333,3062
0.7403,3108
0.7419667,2437
0.7436333,2392
0.7453,2103
0.7469667,2050
0.7486333,2001
0.7503,2045
0.7519667,2060
0.7536333,1610
0.7553,1498
0.7569667,1258
0.7586333,1229
0.7603,1601
0.7619666,1063
0.7636333,1343
0.7653,1014
0.7669666,1340
0.7686333,1156
0.7703,976
0.7719667,1281
0.7736334,1133
0.7753,1229
0.7769667,1237
0.7786334,1554
0.7803,1497
0.7819667,1424
0.7836334,1769
0.7853,2281
0.7869667,2774
0.7886333,3150
0.7903,4016
0.7919667,4347
0.7936333,5058
0.7953,6398
0.7969667,7161
0.7986333,8456
0.8003,8956
0.8019667,9840
0.8036333,10708
0.8053,12680
0.8069667,12884
0.8086333,13960
0.8103,15796
0.8119667,16564
0.8136333,17904
0.8153,18148
0.8169667,19464
0.8186333,20388
0.8203,19896
0.8219666,19404
0.8236333,18988
0.8253,19064
0.8269666,18820
0.8286333,17372
0.8303,15932
0.8319666,14084
0.8336333,13144
0.8353,11716
0.8369667,10312
0.8386334,8344
0.8403,7454
0.8419667,7383
0.8436334,5815
0.8453,4928
0.8469667,3876
0.8486333,3691
0.8503,3439
0.8519667,2977
0.8536333,2725
0.8553,2306
0.8569667,2504
0.8586333,2074
0.8603,2089
0.8619667,2241
0.8636333,2067
0.8653,2148
0.8669667,2636
0.8686333,2537
0.8703,2438
0.8719667,2573
0.8736333,2709
0.8753,2771
0.8769667,2643
0.8786333,2680
0.8803,2717
0.8819667,2977
0.8836333,2911
0.8853,2393
0.8869666,2487
0.8886333,2648
0.8903,2436
0.8919666,2328
0.8936333,2328
0.8953,2189
0.8969667,2313
0.8986334,2301
0.9003,2179
0.9019667,2321
0.9036334,2267
0.9053,2181
0.9069667,2303
0.9086334,2306
0.9103,2309
0.9119667,2465
0.9136333,2114
0.9153,2574
0.9169667,2385
0.9186333,2186
0.9203,2311
0.9219667,1887
0.9236333,1989
0.9253,1982
0.9269667,2018
0.9286333,2059
0.9303,1617
0.9319667,2039
0.9336333,1881
0.9353,1722
0.9369667,2035
0.9386333,1754
0.9403,1858
0.9419667,1824
0.9436333,1701
0.9453,1853
0.9469666,1671
0.9486333,1688
0.9503,1553
0.9519666,1433
0.9536333,1662
0.9553,1891
0.9569666,1895
0.9586333,1950
0.9603,2127
0.9619667,2486
0.9636334,2886
0.9653,3046
0.9669667,3290
0.9686334,3590
0.9703,4313
0.9719667,4666
0.9736333,5492
0.9753,6579
0.9769667,7339
0.9786333,8340
0.9803,9676
0.9819667,11088
0.9836333,12440
0.9853,12956
0.9869667,15112
0.9886333,16192
0.9903,17656
0.9919667,18692
0.9936333,20836
0.9953,21256
0.9969667,23904
0.9986333,25292
1.0003,25652
1.001967,26336
1.003633,26932
1.0053,27528
1.006967,29128
1.008633,29064
1.0103,28724
1.011967,28384
1.013633,28604
1.0153,28824
1.016967,25612
1.018633,26112
1.0203,24220
1.021967,22684
1.023633,21028
1.0253,18900
1.026967,16748
1.028633,14188
1.0303,14684
1.031967,12516
1.033633,12128
1.0353,9940
1.036967,8728
1.038633,7717
1.0403,7126
1.041967,6630
1.043633,5987
1.0453,5797
1.046967,5096
1.048633,4820
1.0503,4633
1.051967,4625
1.053633,4246
1.0553,4640
1.056967,4459
1.058633,4378
1.0603,4213
1.061967,4186
1.063633,4053
1.0653,3708
1.066967,4343
1.068633,4307
1.0703,4491
1.071967,3894
1.073633,4495
1.0753,4548
1.076967,4400
1.078633,5051
1.0803,5055
1.081967,5188
1.083633,5846
1.0853,6236
1.086967,6681
1.088633,6371
1.0903,7245
1.091967,7289
1.093633,6828
1.0953,7751
1.096967,8352
1.098633,8320
1.1003,8436
1.101967,8352
1.103633,8492
1.1053,8636
1.106967,9264
1.108633,9440
1.1103,8448
1.111967,8912
1.113633,9120
1.1153,8696
1.116967,8740
1.118633,8164
1.1203,7680
1.121967,6539
1.123633,6505
1.1253,6206
1.126967,5883
1.128633,5645
1.1303,5291
1.131967,4573
1.133633,4555
1.1353,3923
1.136967,3668
1.138633,3766
1.1403,3407
1.141967,3154
1.143633,3017
1.1453,2707
1.146967,2501
1.148633,2337
1.1503,2315
1.151967,1909
1.153633,2207
1.1553,1934
1.156967,2138
1.158633,1793
1.1603,1807
1.161967,1861
1.163633,1801
1.1653,1499
1.166967,1642
1.168633,1979
1.1703,1380
1.171967,1612
1.173633,1698
1.1753,1176
1.176967,1566
1.178633,1319
1.1803,1634
1.181967,1465
1.183633,1326
1.1853,1165
1.186967,1398
1.188633,1259
1.1903,1562
1.191967,1620
1.193633,1447
1.1953,1530
1.196967,1342
1.198633,1380
