"SampleName","A2Rd2_01-74"
"Target Mass 1",
"Column Name","IA-3 (3um, 4.6X100)"
"Channel","QDa 1: SIR Ch2"
0.00195,580
0.003616667,654
0.005283333,753
0.00695,662
0.008616666,694
0.01028333,726
0.01195,827
0.01361667,928
0.01528333,856
0.01695,784
0.01861667,816
0.02028333,914
0.02195,1035
0.02361667,1018
0.02528333,830
0.02695,844
0.02861667,855
0.03028333,866
0.03195,953
0.03361667,725
0.03528333,861
0.03695,859
0.03861667,857
0.04028333,822
0.04195,1026
0.04361667,979
0.04528333,1073
0.04695,941
0.04861667,823
0.05028334,1001
0.05195,776
0.05361667,880
0.05528333,816
0.05695,883
0.05861667,765
0.06028333,702
0.06195,788
0.06361666,826
0.06528334,761
0.06695,825
0.06861667,890
0.07028333,900
0.07195,979
0.07361667,964
0.07528333,948
0.07695,1036
0.07861666,861
0.08028334,926
0.08195,859
0.08361667,778
0.08528333,649
0.08695,850
0.08861667,793
0.09028333,754
0.09195,743
0.09361666,753
0.09528334,729
0.09695,751
0.09861667,772
0.1002833,634
0.10195,634
0.1036167,633
0.1052833,816
0.10695,1000
0.1086167,1009
0.1102833,710
0.11195,975
0.1136167,825
0.1152833,1003
0.11695,724
0.1186167,816
0.1202833,787
0.12195,910
0.1236167,880
0.1252833,781
0.12695,733
0.1286167,865
0.1302833,755
0.13195,898
0.1336167,970
0.1352833,1035
0.13695,867
0.1386167,833
0.1402833,834
0.14195,756
0.1436167,908
0.1452833,930
0.14695,795
0.1486167,935
0.1502833,722
0.15195,628
0.1536167,706
0.1552833,768
0.15695,830
0.1586167,849
0.1602833,799
0.16195,868
0.1636167,790
0.1652833,729
0.16695,879
0.1686167,632
0.1702833,690
0.17195,833
0.1736167,665
0.1752833,727
0.17695,894
0.1786167,968
0.1802833,1006
0.18195,966
0.1836167,963
0.1852833,814
0.18695,891
0.1886167,780
0.1902833,908
0.19195,749
0.1936167,909
0.1952833,797
0.19695,696
0.1986167,854
0.2002833,797
0.20195,741
0.2036167,811
0.2052833,880
0.20695,858
0.2086167,848
0.2102833,838
0.21195,856
0.2136167,873
0.2152833,753
0.21695,842
0.2186167,891
0.2202833,940
0.22195,944
0.2236167,949
0.2252833,1043
0.22695,1125
0.2286167,1132
0.2302833,1130
0.23195,1128
0.2336167,1145
0.2352833,1191
0.23695,1238
0.2386167,1208
0.2402833,1192
0.24195,1187
0.2436167,1182
0.2453,1170
0.24695,1157
0.2486167,1143
0.2502833,1089
0.25195,1067
0.2536167,992
0.2552833,1032
0.25695,1073
0.2586167,1184
0.2602833,1248
0.26195,1248
0.2636333,1109
0.2652833,1202
0.26695,1075
0.2686167,1172
0.2702833,935
0.27195,1095
0.2736333,1077
0.2752833,1017
0.27695,932
0.2786167,926
0.2803,1128
0.28195,1191
0.2836167,911
0.2852833,986
0.28695,1113
0.2886167,756
0.2902833,1072
0.29195,926
0.2936167,972
0.2952833,1001
0.29695,1031
0.2986333,1064
0.3002833,1062
0.30195,1060
0.3036167,1120
0.3052833,962
0.30695,1124
0.3086333,1131
0.3102833,1184
0.31195,1265
0.3136167,1001
0.3153,1054
0.31695,907
0.3186167,1166
0.3203,1332
0.32195,1109
0.3236333,886
0.3252833,1122
0.32695,1131
0.3286167,1223
0.3302833,1218
0.33195,1252
0.3336333,1196
0.3352833,1140
0.3369667,1221
0.3386333,1303
0.3402833,1270
0.34195,1203
0.3436167,1136
0.3452833,1273
0.34695,1372
0.3486167,1448
0.3503,1309
0.35195,1370
0.3536333,1145
0.3553,1104
0.35695,1223
0.3586167,1341
0.3602833,1286
0.36195,1404
0.3636167,1523
0.3652833,2980
0.3669667,3873
0.3686333,4648
0.3703,4434
0.3719667,4935
0.3736333,4848
0.3753,4816
0.37695,4241
0.3786167,3982
0.3802833,3136
0.38195,2401
0.3836167,2025
0.3853,1878
0.3869667,1403
0.3886333,1178
0.3903,989
0.3919667,851
0.3936333,831
0.3953,415
0.39695,587
0.3986333,486
0.4002833,535
0.4019667,647
0.4036333,577
0.4053,724
0.4069667,737
0.4086333,592
0.4103,742
0.4119667,780
0.4136333,596
0.4153,866
0.4169667,797
0.4186333,813
0.4203,808
0.4219667,704
0.4236333,676
0.4253,793
0.4269667,586
0.4286333,559
0.4303,776
0.4319667,944
0.4336333,846
0.4353,1012
0.4369667,918
0.4386333,1081
0.4403,1155
0.4419667,1269
0.4436333,1238
0.4453,1315
0.4469667,1155
0.4486333,1242
0.4503,1143
0.4519667,1200
0.4536333,1257
0.4553,1295
0.4569667,1334
0.4586333,1420
0.4603,1741
0.4619667,1708
0.4636333,1517
0.4653,1652
0.4669667,1536
0.4686333,1536
0.4703,1524
0.4719667,1300
0.4736333,1502
0.4753,1517
0.4769667,1495
0.4786333,1449
0.4803,1467
0.4819667,1317
0.4836333,1098
0.4853,1264
0.4869667,1295
0.4886333,1185
0.4903,1191
0.4919667,1260
0.4936333,1120
0.4953,1132
0.4969667,1077
0.4986333,991
0.5003,1123
0.5019667,1179
0.5036333,1227
0.5053,1091
0.5069667,1042
0.5086333,1041
0.5103,909
0.5119666,832
0.5136333,1052
0.5153,831
0.5169666,1081
0.5186333,871
0.5203,788
0.5219667,771
0.5236334,967
0.5253,1011
0.5269667,1014
0.5286334,913
0.5303,1094
0.5319667,809
0.5336334,1084
0.5353,1003
0.5369667,765
0.5386333,1036
0.5403,902
0.5419667,910
0.5436333,917
0.5453,905
0.5469667,892
0.5486333,890
0.5503,888
0.5519667,958
0.5536333,965
0.5553,972
0.5569667,863
0.5586333,896
0.5603,921
0.5619667,918
0.5636333,911
0.5653,904
0.5669667,926
0.5686333,968
0.5703,801
0.5719666,1052
0.5736333,843
0.5753,929
0.5769666,1002
0.5786333,1052
0.5803,935
0.5819666,1042
0.5836333,1070
0.5853,971
0.5869667,1083
0.5886334,1131
0.5903,942
0.5919667,883
0.5936334,892
0.5953,986
0.5969667,1080
0.5986333,1128
0.6003,1097
0.6019667,1131
0.6036333,861
0.6053,1040
0.6069667,1136
0.6086333,1060
0.6103,1040
0.6119667,1043
0.6136333,905
0.6153,963
0.6169667,830
0.6186333,701
0.6203,986
0.6219667,973
0.6236333,1090
0.6253,1053
0.6269667,1106
0.6286333,808
0.6303,845
0.6319667,1024
0.6336333,853
0.6353,998
0.6369666,787
0.6386333,888
0.6403,1157
0.6419666,1065
0.6436333,965
0.6453,951
0.6469667,730
0.6486334,1000
0.6503,1029
0.6519667,1042
0.6536334,1175
0.6553,748
0.6569667,853
0.6586334,901
0.6603,900
0.6619667,812
0.6636333,912
0.6653,723
0.6669667,868
0.6686333,830
0.6703,874
0.6719667,917
0.6736333,919
0.6753,920
0.6769667,927
0.6786333,935
0.6803,772
0.6819667,822
0.6836333,760
0.6853,699
0.6869667,852
0.6886333,1049
0.6903,955
0.6919667,953
0.6936333,1028
0.6953,934
0.6969666,967
0.6986333,729
0.7003,897
0.7019666,808
0.7036333,935
0.7053,971
0.7069666,982
0.7086333,741
0.7103,762
0.7119667,855
0.7136334,878
0.7153,917
0.7169667,895
0.7186334,934
0.7203,737
0.7219667,850
0.7236333,1023
0.7253,893
0.7269667,894
0.7286333,933
0.7303,976
0.7319667,953
0.7336333,971
0.7353,951
0.7369667,909
0.7386333,798
0.7403,903
0.7419667,917
0.7436333,940
0.7453,824
0.7469667,762
0.7486333,822
0.7503,802
0.7519667,783
0.7536333,771
0.7553,806
0.7569667,896
0.7586333,914
0.7603,909
0.7619666,830
0.7636333,790
0.7653,934
0.7669666,957
0.7686333,637
0.7703,905
0.7719667,821
0.7736334,729
0.7753,964
0.7769667,798
0.7786334,748
0.7803,699
0.7819667,813
0.7836334,801
0.7853,789
0.7869667,852
0.7886333,865
0.7903,877
0.7919667,908
0.7936333,1108
0.7953,1159
0.7969667,945
0.7986333,927
0.8003,776
0.8019667,887
0.8036333,1032
0.8053,972
0.8069667,999
0.8086333,848
0.8103,782
0.8119667,1120
0.8136333,992
0.8153,1001
0.8169667,979
0.8186333,866
0.8203,855
0.8219666,1054
0.8236333,1024
0.8253,994
0.8269666,1043
0.8286333,833
0.8303,995
0.8319666,1079
0.8336333,763
0.8353,829
0.8369667,892
0.8386334,851
0.8403,1012
0.8419667,927
0.8436334,842
0.8453,767
0.8469667,800
0.8486333,833
0.8503,821
0.8519667,810
0.8536333,824
0.8553,838
0.8569667,909
0.8586333,981
0.8603,977
0.8619667,864
0.8636333,833
0.8653,943
0.8669667,850
0.8686333,758
0.8703,784
0.8719667,809
0.8736333,763
0.8753,841
0.8769667,566
0.8786333,1097
0.8803,954
0.8819667,1139
0.8836333,1116
0.8853,924
0.8869666,1049
0.8886333,1200
0.8903,1285
0.8919666,1079
0.8936333,1113
0.8953,1303
0.8969667,1357
0.8986334,1272
0.9003,1092
0.9019667,1223
0.9036334,1246
0.9053,1243
0.9069667,1192
0.9086334,1095
0.9103,1225
0.9119667,1230
0.9136333,1253
0.9153,1061
0.9169667,1326
0.9186333,1101
0.9203,1068
0.9219667,1219
0.9236333,1190
0.9253,1175
0.9269667,1160
0.9286333,1338
0.9303,1331
0.9319667,1079
0.9336333,1149
0.9353,1146
0.9369667,1064
0.9386333,958
0.9403,1379
0.9419667,1290
0.9436333,955
0.9453,1187
0.9469666,1290
0.9486333,1175
0.9503,1195
0.9519666,1215
0.9536333,1176
0.9553,1312
0.9569666,1035
0.9586333,1118
0.9603,890
0.9619667,1127
0.9636334,1001
0.9653,1153
0.9669667,956
0.9686334,1152
0.9703,1057
0.9719667,659
0.9736333,814
0.9753,897
0.9769667,920
0.9786333,894
0.9803,868
0.9819667,923
0.9836333,877
0.9853,832
0.9869667,859
0.9886333,887
0.9903,968
0.9919667,945
0.9936333,826
0.9953,909
0.9969667,844
0.9986333,721
1.0003,803
1.001967,885
1.003633,922
1.0053,844
1.006967,766
1.008633,921
1.0103,910
1.011967,1204
1.013633,1123
1.0153,844
1.016967,1042
1.018633,854
1.0203,943
1.021967,1032
1.023633,1004
1.0253,976
1.026967,962
1.028633,949
1.0303,913
1.031967,909
1.033633,906
1.0353,878
1.036967,860
1.038633,842
1.0403,789
1.041967,737
1.043633,745
1.0453,787
1.046967,829
1.048633,754
1.0503,678
1.051967,679
1.053633,679
1.0553,945
1.056967,955
1.058633,667
1.0603,845
1.061967,834
1.063633,876
1.0653,850
1.066967,825
1.068633,920
1.0703,942
1.071967,939
1.073633,940
1.0753,940
1.076967,858
1.078633,775
1.0803,700
1.081967,625
1.083633,995
1.0853,911
1.086967,754
1.088633,899
1.0903,843
1.091967,996
1.093633,1017
1.0953,884
1.096967,780
1.098633,942
1.1003,809
1.101967,979
1.103633,939
1.1053,842
1.106967,891
1.108633,822
1.1103,979
1.111967,680
1.113633,903
1.1153,889
1.116967,910
1.118633,796
1.1203,730
1.121967,868
1.123633,858
1.1253,896
1.126967,846
1.128633,791
1.1303,810
1.131967,851
1.133633,794
1.1353,788
1.136967,833
1.138633,787
1.1403,740
1.141967,829
1.143633,809
1.1453,789
1.146967,814
1.148633,832
1.1503,850
1.151967,831
1.153633,914
1.1553,911
1.156967,939
1.158633,978
1.1603,861
1.161967,905
1.163633,948
1.1653,771
1.166967,776
1.168633,700
1.1703,676
1.171967,651
1.173633,988
1.1753,992
1.176967,865
1.178633,947
1.1803,817
1.181967,807
1.183633,734
1.1853,902
1.186967,844
1.188633,717
1.1903,886
1.191967,1059
1.193633,978
1.1953,897
1.196967,798
1.198633,707
