"SampleName","A2Rd2_01-69"
"Target Mass 1",
"Column Name","IA-3 (3um, 4.6X100)"
"Channel","QDa 1: SIR Ch1"
0.00195,501
0.003616667,417
0.005283333,554
0.00695,531
0.008616666,569
0.01028333,611
0.01195,630
0.01361667,432
0.01528333,559
0.01695,390
0.01861667,446
0.02028333,466
0.02195,487
0.02361667,514
0.02528333,375
0.02695,550
0.02861667,468
0.03028333,501
0.03195,516
0.03361667,492
0.03528333,456
0.03695,421
0.03861667,441
0.04028333,548
0.04195,288
0.04361667,524
0.04528333,496
0.04695,484
0.04861667,442
0.05028334,473
0.05195,486
0.05361667,558
0.05528333,527
0.05695,452
0.05861667,358
0.06028333,441
0.06195,430
0.06361666,418
0.06528334,444
0.06695,470
0.06861667,381
0.07028333,378
0.07195,403
0.07361667,400
0.07528333,506
0.07695,514
0.07861666,466
0.08028334,541
0.08195,444
0.08361667,381
0.08528333,463
0.08695,488
0.08861667,479
0.09028333,469
0.09195,446
0.09361666,429
0.09528334,412
0.09695,408
0.09861667,403
0.1002833,393
0.10195,383
0.1036167,452
0.1052833,437
0.10695,446
0.1086167,456
0.1102833,467
0.11195,523
0.1136167,354
0.1152833,442
0.11695,336
0.1186167,404
0.1202833,509
0.12195,506
0.1236167,504
0.1252833,435
0.12695,538
0.1286167,430
0.1302833,336
0.13195,363
0.1336167,390
0.1352833,546
0.13695,497
0.1386167,412
0.1402833,394
0.14195,422
0.1436167,435
0.1452833,448
0.14695,365
0.1486167,487
0.1502833,553
0.15195,497
0.1536167,487
0.1552833,403
0.15695,416
0.1586167,486
0.1602833,531
0.16195,573
0.1636167,498
0.1652833,496
0.16695,478
0.1686167,466
0.1702833,592
0.17195,544
0.1736167,496
0.1752833,474
0.17695,536
0.1786167,413
0.1802833,504
0.18195,553
0.1836167,555
0.1852833,437
0.18695,502
0.1886167,517
0.1902833,348
0.19195,511
0.1936167,424
0.1952833,405
0.19695,489
0.1986167,435
0.2002833,530
0.20195,505
0.2036167,406
0.2052833,569
0.20695,495
0.2086167,537
0.2102833,405
0.21195,479
0.2136167,530
0.2152833,576
0.21695,372
0.2186167,353
0.2202833,583
0.22195,520
0.2236167,359
0.2252833,487
0.22695,469
0.2286167,402
0.2302833,441
0.23195,480
0.2336167,362
0.2352833,500
0.23695,524
0.2386167,428
0.2402833,494
0.24195,420
0.2436167,544
0.2452833,504
0.24695,449
0.2486167,396
0.2502833,491
0.25195,398
0.2536167,472
0.2552833,461
0.25695,427
0.2586167,412
0.2602833,492
0.26195,494
0.2636167,496
0.2652833,347
0.26695,361
0.2686167,423
0.2702833,452
0.27195,437
0.2736167,451
0.2752833,464
0.27695,433
0.2786167,433
0.2803,434
0.28195,376
0.2836167,318
0.2852833,456
0.28695,519
0.2886167,484
0.2902833,361
0.29195,559
0.2936167,456
0.2952833,500
0.29695,563
0.2986333,570
0.3002833,597
0.30195,625
0.3036167,610
0.3052833,423
0.30695,486
0.3086167,476
0.3102833,501
0.31195,527
0.3136167,429
0.3153,477
0.3169667,502
0.3186167,527
0.3202833,446
0.32195,538
0.3236167,495
0.3252833,549
0.32695,652
0.3286167,730
0.3302833,405
0.33195,648
0.3336333,657
0.3352833,551
0.33695,487
0.3386167,419
0.3402833,361
0.34195,436
0.3436167,511
0.3452833,461
0.34695,561
0.3486167,513
0.3503,516
0.35195,512
0.3536167,508
0.3553,499
0.35695,532
0.3586167,566
0.3602833,571
0.36195,576
0.3636333,993
0.3652833,1384
0.3669667,2299
0.3686333,4438
0.3702833,5105
0.3719667,6927
0.3736167,7342
0.3752833,7880
0.37695,7420
0.3786333,6960
0.3803,6771
0.38195,5788
0.3836167,4973
0.3853,4269
0.38695,4129
0.3886167,3299
0.3902833,3190
0.39195,2242
0.3936333,1983
0.3952833,1707
0.3969667,1610
0.3986167,957
0.4002833,1110
0.4019667,842
0.4036333,1056
0.4053,1045
0.4069667,1070
0.4086333,981
0.4103,1103
0.4119667,922
0.4136333,1079
0.4153,1088
0.4169667,1096
0.4186333,1126
0.4203,900
0.4219667,1230
0.4236333,1034
0.4253,809
0.4269667,904
0.4286333,841
0.4303,918
0.4319667,1357
0.4336333,1640
0.4353,2478
0.4369667,3756
0.4386333,5634
0.4403,8128
0.4419667,12336
0.4436333,18076
0.4453,25888
0.4469667,35392
0.4486333,47152
0.4503,60928
0.4519667,75392
0.4536333,91216
0.4553,105264
0.4569667,121104
0.4586333,137728
0.4603,152960
0.4619667,167040
0.4636333,185536
0.4653,209152
0.4669667,228160
0.4686333,246720
0.4703,263232
0.4719667,276608
0.4736333,281472
0.4753,272896
0.4769667,255552
0.4786333,236288
0.4803,211392
0.4819667,185024
0.4836333,153792
0.4853,130128
0.4869667,103168
0.4886333,82560
0.4903,64528
0.4919667,49200
0.4936333,37808
0.4953,30212
0.4969667,23264
0.4986333,18256
0.5003,15056
0.5019667,12504
0.5036333,10152
0.5053,8700
0.5069667,7674
0.5086333,6705
0.5103,5780
0.5119666,5390
0.5136333,4626
0.5153,4281
0.5169666,4220
0.5186333,3819
0.5203,3400
0.5219667,3630
0.5236334,3063
0.5253,2835
0.5269667,3086
0.5286334,3027
0.5303,2969
0.5319667,2553
0.5336334,2427
0.5353,2224
0.5369667,2468
0.5386333,2334
0.5403,2346
0.5419667,2245
0.5436333,2040
0.5453,2004
0.5469667,1909
0.5486333,1899
0.5503,1889
0.5519667,1826
0.5536333,1818
0.5553,1736
0.5569667,1411
0.5586333,1511
0.5603,1461
0.5619667,1458
0.5636333,1285
0.5653,1301
0.5669667,1256
0.5686333,1384
0.5703,1020
0.5719666,1288
0.5736333,1314
0.5753,1232
0.5769666,970
0.5786333,1315
0.5803,1170
0.5819666,1269
0.5836333,1359
0.5853,1264
0.5869667,1001
0.5886334,1077
0.5903,1201
0.5919667,1112
0.5936334,1023
0.5953,1045
0.5969667,1086
0.5986333,1294
0.6003,1374
0.6019667,1117
0.6036333,966
0.6053,872
0.6069667,975
0.6086333,946
0.6103,778
0.6119667,998
0.6136333,1024
0.6153,1060
0.6169667,897
0.6186333,1041
0.6203,1101
0.6219667,912
0.6236333,861
0.6253,845
0.6269667,906
0.6286333,777
0.6303,648
0.6319667,727
0.6336333,817
0.6353,809
0.6369666,851
0.6386333,660
0.6403,740
0.6419666,635
0.6436333,669
0.6453,704
0.6469667,786
0.6486334,799
0.6503,768
0.6519667,664
0.6536334,599
0.6553,681
0.6569667,616
0.6586334,559
0.6603,578
0.6619667,597
0.6636333,576
0.6653,796
0.6669667,810
0.6686333,589
0.6703,689
0.6719667,478
0.6736333,657
0.6753,657
0.6769667,658
0.6786333,578
0.6803,648
0.6819667,685
0.6836333,616
0.6853,615
0.6869667,687
0.6886333,620
0.6903,525
0.6919667,570
0.6936333,507
0.6953,550
0.6969666,593
0.6986333,570
0.7003,546
0.7019666,521
0.7036333,632
0.7053,619
0.7069666,630
0.7086333,597
0.7103,451
0.7119667,673
0.7136334,614
0.7153,684
0.7169667,442
0.7186334,639
0.7203,631
0.7219667,605
0.7236333,613
0.7253,498
0.7269667,577
0.7286333,674
0.7303,656
0.7319667,593
0.7336333,615
0.7353,612
0.7369667,547
0.7386333,546
0.7403,575
0.7419667,532
0.7436333,537
0.7453,521
0.7469667,550
0.7486333,487
0.7503,599
0.7519667,623
0.7536333,619
0.7553,615
0.7569667,475
0.7586333,690
0.7603,488
0.7619666,718
0.7636333,647
0.7653,605
0.7669666,704
0.7686333,695
0.7703,641
0.7719667,463
0.7736334,689
0.7753,573
0.7769667,770
0.7786334,634
0.7803,578
0.7819667,678
0.7836334,551
0.7853,514
0.7869667,514
0.7886333,567
0.7903,548
0.7919667,529
0.7936333,534
0.7953,538
0.7969667,533
0.7986333,529
0.8003,527
0.8019667,524
0.8036333,590
0.8053,580
0.8069667,570
0.8086333,568
0.8103,567
0.8119667,518
0.8136333,469
0.8153,549
0.8169667,621
0.8186333,569
0.8203,598
0.8219666,640
0.8236333,594
0.8253,583
0.8269666,544
0.8286333,674
0.8303,804
0.8319666,738
0.8336333,780
0.8353,844
0.8369667,713
0.8386334,606
0.8403,503
0.8419667,702
0.8436334,661
0.8453,576
0.8469667,658
0.8486333,608
0.8503,593
0.8519667,578
0.8536333,584
0.8553,594
0.8569667,603
0.8586333,541
0.8603,497
0.8619667,541
0.8636333,584
0.8653,557
0.8669667,546
0.8686333,535
0.8703,595
0.8719667,583
0.8736333,548
0.8753,608
0.8769667,472
0.8786333,679
0.8803,732
0.8819667,855
0.8836333,1248
0.8853,1441
0.8869666,1714
0.8886333,1880
0.8903,2215
0.8919666,2292
0.8936333,2431
0.8953,2333
0.8969667,2190
0.8986334,2312
0.9003,2250
0.9019667,2135
0.9036334,2020
0.9053,2187
0.9069667,2212
0.9086334,2237
0.9103,2211
0.9119667,2340
0.9136333,2328
0.9153,2315
0.9169667,2403
0.9186333,2184
0.9203,2352
0.9219667,2394
0.9236333,2215
0.9253,2091
0.9269667,2015
0.9286333,2065
0.9303,1961
0.9319667,2003
0.9336333,2271
0.9353,2332
0.9369667,2002
0.9386333,1953
0.9403,2005
0.9419667,1783
0.9436333,1853
0.9453,1922
0.9469666,1864
0.9486333,1806
0.9503,1730
0.9519666,1543
0.9536333,1611
0.9553,1598
0.9569666,1564
0.9586333,1366
0.9603,1379
0.9619667,1020
0.9636334,1207
0.9653,1167
0.9669667,1028
0.9686334,951
0.9703,917
0.9719667,883
0.9736333,763
0.9753,836
0.9769667,886
0.9786333,633
0.9803,775
0.9819667,621
0.9836333,597
0.9853,626
0.9869667,528
0.9886333,437
0.9903,476
0.9919667,464
0.9936333,456
0.9953,447
0.9969667,472
0.9986333,444
1.0003,417
1.001967,377
1.003633,393
1.0053,409
1.006967,399
1.008633,389
1.0103,395
1.011967,589
1.013633,655
1.0153,515
1.016967,501
1.018633,507
1.0203,514
1.021967,522
1.023633,502
1.0253,483
1.026967,580
1.028633,404
1.0303,543
1.031967,439
1.033633,425
1.0353,452
1.036967,553
1.038633,558
1.0403,476
1.041967,542
1.043633,574
1.0453,468
1.046967,430
1.048633,486
1.0503,495
1.051967,504
1.053633,487
1.0553,469
1.056967,544
1.058633,540
1.0603,524
1.061967,508
1.063633,559
1.0653,400
1.066967,511
1.068633,614
1.0703,468
1.071967,549
1.073633,576
1.0753,519
1.076967,469
1.078633,460
1.0803,397
1.081967,630
1.083633,576
1.0853,551
1.086967,629
1.088633,517
1.0903,663
1.091967,575
1.093633,487
1.0953,626
1.096967,592
1.098633,557
1.1003,626
1.101967,604
1.103633,581
1.1053,436
1.106967,655
1.108633,600
1.1103,535
1.111967,420
1.113633,606
1.1153,596
1.116967,528
1.118633,599
1.1203,667
1.121967,466
1.123633,609
1.1253,508
1.126967,522
1.128633,536
1.1303,551
1.131967,566
1.133633,593
1.1353,487
1.136967,644
1.138633,607
1.1403,618
1.141967,640
1.143633,662
1.1453,520
1.146967,581
1.148633,564
1.1503,601
1.151967,584
1.153633,566
1.1553,593
1.156967,620
1.158633,599
1.1603,578
1.161967,610
1.163633,641
1.1653,682
1.166967,476
1.168633,560
1.1703,491
1.171967,718
1.173633,670
1.1753,530
1.176967,582
1.178633,595
1.1803,693
1.181967,676
1.183633,645
1.1853,683
1.186967,710
1.188633,467
1.1903,700
1.191967,748
1.193633,724
1.1953,614
1.196967,791
1.198633,730
