"SampleName","A2Rd2_01-86"
"Target Mass 1",
"Column Name","IA-3 (3um, 4.6X100)"
"Channel","QDa 1: SIR Ch2"
0.00195,427
0.003616667,590
0.005283333,614
0.00695,709
0.008616666,729
0.01028333,750
0.01195,806
0.01361667,780
0.01528333,753
0.01695,786
0.01861667,886
0.02028333,932
0.02195,830
0.02361667,728
0.02528333,721
0.02695,791
0.02861667,861
0.03028333,867
0.03195,731
0.03361667,903
0.03528333,871
0.03695,948
0.03861667,928
0.04028333,908
0.04195,931
0.04361667,955
0.04528333,1064
0.04695,589
0.04861667,963
0.05028334,847
0.05195,761
0.05361667,915
0.05528333,902
0.05695,956
0.05861667,926
0.06028333,866
0.06195,919
0.06361666,738
0.06528334,867
0.06695,904
0.06861667,941
0.07028333,909
0.07195,918
0.07361667,857
0.07528333,870
0.07695,743
0.07861666,921
0.08028334,810
0.08195,854
0.08361667,897
0.08528333,851
0.08695,767
0.08861667,880
0.09028333,841
0.09195,865
0.09361666,800
0.09528334,1025
0.09695,1012
0.09861667,765
0.1002833,878
0.10195,824
0.1036167,784
0.1052833,745
0.10695,831
0.1086167,733
0.1102833,723
0.11195,775
0.1136167,827
0.1152833,797
0.11695,699
0.1186167,742
0.1202833,785
0.12195,884
0.1236167,855
0.1252833,787
0.12695,842
0.1286167,880
0.1302833,800
0.13195,770
0.1336167,823
0.1352833,901
0.13695,929
0.1386167,885
0.1402833,876
0.14195,808
0.1436167,920
0.1452833,653
0.14695,711
0.1486167,770
0.1502833,792
0.15195,835
0.1536167,702
0.1552833,793
0.15695,683
0.1586167,693
0.1602833,793
0.16195,774
0.1636167,838
0.1652833,776
0.16695,706
0.1686167,881
0.1702833,700
0.17195,739
0.1736167,939
0.1752833,810
0.17695,1003
0.1786167,878
0.1802833,823
0.18195,844
0.1836167,863
0.1852833,750
0.18695,787
0.1886167,838
0.1902833,852
0.19195,692
0.1936167,675
0.1952833,845
0.19695,819
0.1986167,712
0.2002833,796
0.20195,844
0.2036167,766
0.2052833,819
0.20695,860
0.2086167,782
0.2102833,745
0.21195,798
0.2136167,859
0.2152833,896
0.21695,896
0.2186167,896
0.2202833,914
0.22195,933
0.2236167,949
0.2252833,965
0.22695,976
0.2286167,1061
0.2302833,1128
0.23195,1153
0.2336167,969
0.2352833,1253
0.23695,1165
0.2386167,898
0.2403,1264
0.24195,948
0.2436167,1173
0.2453,1111
0.24695,1345
0.2486167,1246
0.2502833,1099
0.25195,1187
0.2536167,1339
0.2552833,1035
0.25695,1177
0.2586167,1094
0.2602833,995
0.26195,999
0.2636333,1007
0.2652833,927
0.26695,915
0.2686167,904
0.2702833,982
0.27195,973
0.2736167,1045
0.2752833,877
0.27695,990
0.2786167,951
0.2803,955
0.28195,871
0.2836167,1029
0.2852833,1057
0.28695,935
0.2886167,947
0.2902833,916
0.29195,969
0.2936167,960
0.2952833,951
0.29695,957
0.2986333,1028
0.3002833,1076
0.30195,815
0.3036333,1207
0.3052833,1110
0.30695,1228
0.3086167,1173
0.3102833,1239
0.3119667,1321
0.3136167,1356
0.3153,1170
0.31695,1207
0.3186167,1243
0.3203,1240
0.3219667,1083
0.3236333,1242
0.3252833,1252
0.32695,1164
0.3286333,1125
0.3302833,1066
0.33195,1065
0.3336333,1064
0.3352833,1067
0.3369667,1070
0.3386333,1184
0.3403,1297
0.34195,1250
0.3436333,1202
0.3453,1362
0.34695,1338
0.3486167,1435
0.3503,1095
0.35195,1311
0.3536333,1406
0.3553,1484
0.3569667,1304
0.3586167,1180
0.3603,1486
0.3619667,1331
0.3636333,1622
0.3652833,2673
0.36695,3567
0.3686333,4233
0.3703,4197
0.3719667,4097
0.3736333,4244
0.3753,4185
0.3769667,4126
0.3786333,4069
0.3802833,3140
0.3819667,3030
0.3836167,2291
0.3853,1900
0.3869667,1548
0.3886333,1322
0.3903,1010
0.3919667,875
0.3936333,790
0.3953,705
0.3969667,512
0.3986333,450
0.4003,566
0.4019667,358
0.4036333,587
0.4053,493
0.4069667,541
0.4086333,567
0.4103,593
0.4119667,618
0.4136333,623
0.4153,664
0.4169667,705
0.4186333,662
0.4203,618
0.4219667,682
0.4236333,646
0.4253,609
0.4269667,901
0.4286333,873
0.4303,772
0.4319667,805
0.4336333,924
0.4353,965
0.4369667,949
0.4386333,959
0.4403,970
0.4419667,923
0.4436333,880
0.4453,1111
0.4469667,1240
0.4486333,1262
0.4503,1262
0.4519667,1119
0.4536333,1243
0.4553,1279
0.4569667,1358
0.4586333,1344
0.4603,1331
0.4619667,1387
0.4636333,1185
0.4653,1153
0.4669667,1240
0.4686333,1399
0.4703,1345
0.4719667,1149
0.4736333,1677
0.4753,1544
0.4769667,1359
0.4786333,1229
0.4803,1350
0.4819667,1437
0.4836333,1229
0.4853,1186
0.4869667,1204
0.4886333,1189
0.4903,1175
0.4919667,1266
0.4936333,1034
0.4953,967
0.4969667,970
0.4986333,937
0.5003,1160
0.5019667,1142
0.5036333,924
0.5053,991
0.5069667,997
0.5086333,815
0.5103,1051
0.5119666,903
0.5136333,720
0.5153,1053
0.5169666,992
0.5186333,963
0.5203,951
0.5219667,950
0.5236334,950
0.5253,889
0.5269667,904
0.5286334,1110
0.5303,1058
0.5319667,1021
0.5336334,984
0.5353,1068
0.5369667,1076
0.5386333,1084
0.5403,1264
0.5419667,854
0.5436333,1097
0.5453,926
0.5469667,997
0.5486333,952
0.5503,957
0.5519667,1016
0.5536333,1075
0.5553,1106
0.5569667,960
0.5586333,946
0.5603,916
0.5619667,916
0.5636333,869
0.5653,967
0.5669667,940
0.5686333,913
0.5703,796
0.5719666,946
0.5736333,755
0.5753,979
0.5769666,1046
0.5786333,941
0.5803,912
0.5819666,1069
0.5836333,1130
0.5853,1078
0.5869667,1108
0.5886334,1030
0.5903,998
0.5919667,957
0.5936334,1004
0.5953,979
0.5969667,916
0.5986333,778
0.6003,901
0.6019667,1024
0.6036333,947
0.6053,763
0.6069667,1013
0.6086333,860
0.6103,960
0.6119667,677
0.6136333,986
0.6153,882
0.6169667,926
0.6186333,828
0.6203,944
0.6219667,888
0.6236333,831
0.6253,849
0.6269667,835
0.6286333,821
0.6303,869
0.6319667,1023
0.6336333,1039
0.6353,974
0.6369666,986
0.6386333,835
0.6403,971
0.6419666,759
0.6436333,801
0.6453,1035
0.6469667,800
0.6486334,1008
0.6503,929
0.6519667,992
0.6536334,918
0.6553,1074
0.6569667,1035
0.6586334,776
0.6603,745
0.6619667,974
0.6636333,799
0.6653,799
0.6669667,987
0.6686333,878
0.6703,946
0.6719667,1013
0.6736333,890
0.6753,1164
0.6769667,1150
0.6786333,1231
0.6803,1747
0.6819667,1955
0.6836333,1887
0.6853,2486
0.6869667,2527
0.6886333,2895
0.6903,3184
0.6919667,3675
0.6936333,4287
0.6953,4670
0.6969666,5242
0.6986333,5034
0.7003,5312
0.7019666,5464
0.7036333,5617
0.7053,6287
0.7069666,6433
0.7086333,6530
0.7103,5976
0.7119667,6445
0.7136334,6383
0.7153,6473
0.7169667,5921
0.7186334,5956
0.7203,5788
0.7219667,5526
0.7236333,5014
0.7253,5310
0.7269667,4036
0.7286333,4059
0.7303,3774
0.7319667,3023
0.7336333,3055
0.7353,2415
0.7369667,2240
0.7386333,1898
0.7403,1693
0.7419667,1675
0.7436333,1429
0.7453,1212
0.7469667,1403
0.7486333,1578
0.7503,1175
0.7519667,1353
0.7536333,1060
0.7553,1143
0.7569667,976
0.7586333,1172
0.7603,1064
0.7619666,850
0.7636333,904
0.7653,687
0.7669666,1048
0.7686333,957
0.7703,1049
0.7719667,1127
0.7736334,1134
0.7753,1183
0.7769667,1118
0.7786334,1053
0.7803,1499
0.7819667,1841
0.7836334,2078
0.7853,2393
0.7869667,2903
0.7886333,3439
0.7903,4050
0.7919667,4872
0.7936333,5367
0.7953,5871
0.7969667,6994
0.7986333,7864
0.8003,9044
0.8019667,8640
0.8036333,9312
0.8053,10308
0.8069667,10176
0.8086333,11256
0.8103,10888
0.8119667,11032
0.8136333,10996
0.8153,11152
0.8169667,11308
0.8186333,12176
0.8203,11560
0.8219666,10944
0.8236333,11608
0.8253,11792
0.8269666,11132
0.8286333,10004
0.8303,9428
0.8319666,8996
0.8336333,8460
0.8353,7843
0.8369667,6809
0.8386334,6048
0.8403,5689
0.8419667,4788
0.8436334,4406
0.8453,4032
0.8469667,3526
0.8486333,3283
0.8503,3045
0.8519667,2619
0.8536333,2263
0.8553,2063
0.8569667,1988
0.8586333,1563
0.8603,1853
0.8619667,1650
0.8636333,1585
0.8653,1496
0.8669667,1556
0.8686333,1346
0.8703,1108
0.8719667,1365
0.8736333,1400
0.8753,1197
0.8769667,1284
0.8786333,1465
0.8803,1206
0.8819667,1508
0.8836333,1494
0.8853,1563
0.8869666,1481
0.8886333,1498
0.8903,1539
0.8919666,1579
0.8936333,1621
0.8953,1702
0.8969667,1629
0.8986334,1556
0.9003,1690
0.9019667,1698
0.9036334,1436
0.9053,1671
0.9069667,1482
0.9086334,1543
0.9103,1539
0.9119667,1348
0.9136333,1401
0.9153,1354
0.9169667,1364
0.9186333,1396
0.9203,1356
0.9219667,1198
0.9236333,1385
0.9253,1465
0.9269667,1445
0.9286333,1497
0.9303,1321
0.9319667,1383
0.9336333,1217
0.9353,1331
0.9369667,1389
0.9386333,1378
0.9403,1375
0.9419667,1296
0.9436333,1373
0.9453,1365
0.9469666,1185
0.9486333,1370
0.9503,1031
0.9519666,1171
0.9536333,1489
0.9553,1190
0.9569666,1471
0.9586333,1176
0.9603,1498
0.9619667,1859
0.9636334,1970
0.9653,2286
0.9669667,2445
0.9686334,3115
0.9703,2786
0.9719667,3226
0.9736333,3941
0.9753,4098
0.9769667,4611
0.9786333,5358
0.9803,5662
0.9819667,6593
0.9836333,6778
0.9853,6628
0.9869667,7654
0.9886333,7887
0.9903,8416
0.9919667,8296
0.9936333,8584
0.9953,9172
0.9969667,10216
0.9986333,9748
1.0003,10016
1.001967,10208
1.003633,10416
1.0053,10568
1.006967,11608
1.008633,11284
1.0103,10952
1.011967,10852
1.013633,10712
1.0153,11000
1.016967,10444
1.018633,10432
1.0203,9580
1.021967,9128
1.023633,8968
1.0253,8784
1.026967,8588
1.028633,7830
1.0303,7211
1.031967,6276
1.033633,6363
1.0353,5314
1.036967,5122
1.038633,4608
1.0403,4149
1.041967,3925
1.043633,3798
1.0453,3044
1.046967,2803
1.048633,2967
1.0503,2880
1.051967,3117
1.053633,3161
1.0553,2587
1.056967,3169
1.058633,2692
1.0603,3222
1.061967,2909
1.063633,3088
1.0653,3142
1.066967,3193
1.068633,3076
1.0703,3496
1.071967,3499
1.073633,4000
1.0753,3866
1.076967,3928
1.078633,4053
1.0803,4279
1.081967,4473
1.083633,4657
1.0853,4637
1.086967,4381
1.088633,4458
1.0903,4534
1.091967,4648
1.093633,4650
1.0953,4652
1.096967,4727
1.098633,4773
1.1003,4818
1.101967,5057
1.103633,4328
1.1053,4403
1.106967,4848
1.108633,4842
1.1103,4106
1.111967,4049
1.113633,4233
1.1153,3950
1.116967,4212
1.118633,3616
1.1203,3571
1.121967,3160
1.123633,3100
1.1253,3325
1.126967,3060
1.128633,2680
1.1303,2667
1.131967,2407
1.133633,2320
1.1353,1878
1.136967,2128
1.138633,2059
1.1403,2082
1.141967,1673
1.143633,1785
1.1453,1574
1.146967,1349
1.148633,1522
1.1503,1300
1.151967,1519
1.153633,1506
1.1553,1492
1.156967,1566
1.158633,1608
1.1603,1211
1.161967,1330
1.163633,1266
1.1653,1010
1.166967,1150
1.168633,1331
1.1703,1020
1.171967,1284
1.173633,1123
1.1753,1175
1.176967,1154
1.178633,1084
1.1803,1105
1.181967,1108
1.183633,1092
1.1853,1167
1.186967,922
1.188633,823
1.1903,1197
1.191967,1028
1.193633,1124
1.1953,1187
1.196967,1039
1.198633,1335
