"SampleName","A2Rd2_01-54"
"Target Mass 1",
"Column Name","IA-3 (3um, 4.6X100)"
"Channel","QDa 1: SIR Ch2"
0.00195,504
0.003616667,630
0.005283333,622
0.00695,802
0.008616666,796
0.01028333,839
0.01195,879
0.01361667,918
0.01528333,769
0.01695,966
0.01861667,994
0.02028333,968
0.02195,971
0.02361667,974
0.02528333,977
0.02695,967
0.02861667,922
0.03028333,999
0.03195,793
0.03361667,1065
0.03528333,930
0.03695,1046
0.03861667,972
0.04028333,973
0.04195,1053
0.04361667,1133
0.04528333,1074
0.04695,1032
0.04861667,987
0.05028334,893
0.05195,974
0.05361667,778
0.05528333,824
0.05695,988
0.05861667,971
0.06028333,954
0.06195,939
0.06361666,925
0.06528334,1195
0.06695,1159
0.06861667,1031
0.07028333,833
0.07195,963
0.07361667,797
0.07528333,983
0.07695,915
0.07861666,848
0.08028334,891
0.08195,935
0.08361667,952
0.0853,801
0.08695,1011
0.08861667,882
0.09028333,914
0.09195,931
0.09361666,935
0.09528334,940
0.09695,989
0.09861667,835
0.1002833,1073
0.10195,1064
0.1036167,865
0.1052833,1044
0.10695,895
0.1086167,799
0.1102833,842
0.11195,933
0.1136167,1008
0.1152833,1039
0.11695,937
0.1186167,969
0.1202833,922
0.12195,876
0.1236167,831
0.1252833,835
0.12695,871
0.1286167,907
0.1302833,969
0.13195,1030
0.1336167,970
0.1352833,991
0.13695,965
0.1386167,940
0.1402833,914
0.14195,939
0.1436167,954
0.1452833,970
0.14695,973
0.1486167,921
0.1502833,935
0.15195,927
0.1536167,946
0.1552833,929
0.15695,913
0.1586167,873
0.1602833,909
0.16195,945
0.1636167,906
0.1652833,868
0.16695,911
0.1686167,987
0.1702833,975
0.17195,963
0.1736167,1027
0.1752833,835
0.17695,847
0.1786167,841
0.1802833,897
0.18195,954
0.1836167,986
0.1852833,844
0.18695,885
0.1886167,1006
0.1902833,983
0.19195,769
0.1936167,740
0.1952833,975
0.19695,956
0.1986167,1005
0.2002833,964
0.20195,923
0.2036167,901
0.2052833,1014
0.20695,836
0.2086167,1126
0.2102833,1073
0.21195,907
0.2136167,888
0.2152833,987
0.21695,1013
0.2186167,1005
0.2202833,1073
0.22195,1126
0.2236167,1177
0.2252833,1116
0.22695,1251
0.2286167,1297
0.2302833,892
0.23195,1063
0.2336167,887
0.2352833,1036
0.2369667,1185
0.2386167,1071
0.2402833,1268
0.24195,1190
0.2436167,1139
0.2453,903
0.24695,1077
0.2486333,1199
0.2502833,1244
0.25195,1195
0.2536167,1131
0.2552833,1122
0.25695,1246
0.2586167,1029
0.2602833,894
0.26195,1152
0.2636333,1292
0.2653,1270
0.26695,1012
0.2686167,1073
0.2702833,1155
0.27195,1030
0.2736167,1145
0.2752833,1029
0.27695,1016
0.2786167,1003
0.2803,995
0.28195,1016
0.2836333,1011
0.2853,1006
0.2869667,1001
0.2886167,995
0.2902833,1069
0.29195,1076
0.2936167,1083
0.2952833,1046
0.29695,1093
0.2986333,1054
0.3003,1079
0.30195,1104
0.3036333,1344
0.3052833,1327
0.30695,1146
0.3086167,1348
0.3102833,1322
0.31195,1308
0.3136167,1205
0.3153,1311
0.31695,1183
0.3186167,1206
0.3203,1205
0.32195,1168
0.3236167,1132
0.3252833,1175
0.32695,1218
0.3286333,1193
0.3302833,1181
0.33195,1169
0.3336333,1210
0.3353,1187
0.33695,1165
0.3386333,1290
0.3402833,1211
0.34195,1133
0.3436167,1213
0.3452833,1294
0.34695,1309
0.3486333,1323
0.3503,1424
0.35195,1390
0.3536333,1357
0.3553,1182
0.3569667,1427
0.3586167,1462
0.3602833,1334
0.3619667,1131
0.3636167,1850
0.3653,2543
0.3669667,3535
0.3686333,4364
0.3703,4404
0.3719667,4671
0.3736333,4422
0.3753,3838
0.3769667,3336
0.3786333,2553
0.3803,1902
0.3819667,1086
0.3836333,1178
0.3853,637
0.3869667,688
0.3886333,590
0.3903,501
0.3919667,532
0.3936333,473
0.3953,476
0.3969667,428
0.3986333,475
0.4003,490
0.4019667,506
0.4036333,562
0.4053,618
0.4069667,875
0.4086333,929
0.4103,789
0.4119667,886
0.4136333,990
0.4153,873
0.4169667,967
0.4186333,945
0.4203,923
0.4219667,975
0.4236333,1027
0.4253,985
0.4269667,944
0.4286333,1002
0.4303,1183
0.4319667,1159
0.4336333,1145
0.4353,1297
0.4369667,1302
0.4386333,1377
0.4403,1310
0.4419667,1243
0.4436333,1347
0.4453,1358
0.4469667,1370
0.4486333,1407
0.4503,1445
0.4519667,1443
0.4536333,1366
0.4553,1774
0.4569667,1837
0.4586333,1550
0.4603,1890
0.4619667,1704
0.4636333,1679
0.4653,1770
0.4669667,1652
0.4686333,1663
0.4703,1690
0.4719667,1669
0.4736333,1656
0.4753,1643
0.4769667,1651
0.4786333,1536
0.4803,1406
0.4819667,1644
0.4836333,1411
0.4853,1447
0.4869667,1275
0.4886333,1332
0.4903,1216
0.4919667,1214
0.4936333,1356
0.4953,930
0.4969667,1334
0.4986333,1299
0.5003,988
0.5019667,1093
0.5036333,1114
0.5053,1080
0.5069667,1046
0.5086333,1062
0.5103,1043
0.5119666,1024
0.5136333,1093
0.5153,1099
0.5169666,800
0.5186333,942
0.5203,1006
0.5219667,1032
0.5236334,1059
0.5253,1087
0.5269667,1115
0.5286334,1172
0.5303,1161
0.5319667,1138
0.5336334,1191
0.5353,1200
0.5369667,1180
0.5386333,1161
0.5403,1118
0.5419667,1171
0.5436333,1191
0.5453,1165
0.5469667,1140
0.5486333,1095
0.5503,1050
0.5519667,988
0.5536333,927
0.5553,1036
0.5569667,1144
0.5586333,1110
0.5603,1036
0.5619667,1201
0.5636333,960
0.5653,1257
0.5669667,1304
0.5686333,1020
0.5703,1318
0.5719666,1004
0.5736333,948
0.5753,896
0.5769666,1056
0.5786333,1126
0.5803,1062
0.5819666,1158
0.5836333,948
0.5853,1205
0.5869667,1094
0.5886334,1214
0.5903,1124
0.5919667,1054
0.5936334,1047
0.5953,886
0.5969667,984
0.5986333,1114
0.6003,993
0.6019667,1038
0.6036333,926
0.6053,813
0.6069667,904
0.6086333,994
0.6103,1250
0.6119667,1302
0.6136333,1093
0.6153,1059
0.6169667,1166
0.6186333,1240
0.6203,958
0.6219667,1359
0.6236333,1250
0.6253,1191
0.6269667,1436
0.6286333,1467
0.6303,1108
0.6319667,1223
0.6336333,1272
0.6353,1208
0.6369666,1278
0.6386333,1315
0.6403,1295
0.6419666,1287
0.6436333,1279
0.6453,1182
0.6469667,1187
0.6486334,1232
0.6503,1299
0.6519667,1270
0.6536334,1241
0.6553,1144
0.6569667,1098
0.6586334,1170
0.6603,916
0.6619667,1021
0.6636333,1119
0.6653,988
0.6669667,900
0.6686333,1005
0.6703,1063
0.6719667,1059
0.6736333,1085
0.6753,1088
0.6769667,1116
0.6786333,1143
0.6803,1235
0.6819667,1327
0.6836333,1843
0.6853,2370
0.6869667,2247
0.6886333,2716
0.6903,2863
0.6919667,3811
0.6936333,4003
0.6953,4103
0.6969666,5220
0.6986333,6714
0.7003,5909
0.7019666,7623
0.7036333,7897
0.7053,8628
0.7069666,9340
0.7086333,10356
0.7103,10124
0.7119667,11216
0.7136334,10788
0.7153,11252
0.7169667,12188
0.7186334,11908
0.7203,11444
0.7219667,10876
0.7236333,9036
0.7253,9380
0.7269667,8125
0.7286333,7879
0.7303,6856
0.7319667,5712
0.7336333,4944
0.7353,4517
0.7369667,3908
0.7386333,3096
0.7403,2722
0.7419667,2677
0.7436333,2322
0.7453,2486
0.7469667,1979
0.7486333,1773
0.7503,1918
0.7519667,1534
0.7536333,1740
0.7553,1401
0.7569667,1368
0.7586333,1518
0.7603,1337
0.7619666,1283
0.7636333,1251
0.7653,1222
0.7669666,1193
0.7686333,1211
0.7703,1069
0.7719667,1372
0.7736334,1462
0.7753,1258
0.7769667,1530
0.7786334,1499
0.7803,1843
0.7819667,1735
0.7836334,2235
0.7853,2391
0.7869667,2936
0.7886333,3184
0.7903,3875
0.7919667,4497
0.7936333,5801
0.7953,6334
0.7969667,7945
0.7986333,8344
0.8003,10012
0.8019667,10472
0.8036333,13188
0.8053,12552
0.8069667,14964
0.8086333,16336
0.8103,16780
0.8119667,17704
0.8136333,19452
0.8153,20068
0.8169667,20216
0.8186333,20620
0.8203,20968
0.8219666,21316
0.8236333,20172
0.8253,19656
0.8269666,19416
0.8286333,17992
0.8303,15516
0.8319666,14284
0.8336333,12960
0.8353,11072
0.8369667,9820
0.8386334,8516
0.8403,7626
0.8419667,6563
0.8436334,5599
0.8453,4945
0.8469667,4501
0.8486333,3453
0.8503,3613
0.8519667,2818
0.8536333,3074
0.8553,2334
0.8569667,2643
0.8586333,2279
0.8603,2086
0.8619667,2101
0.8636333,2221
0.8653,2273
0.8669667,2330
0.8686333,2386
0.8703,2725
0.8719667,2728
0.8736333,2730
0.8753,2983
0.8769667,3026
0.8786333,3069
0.8803,2451
0.8819667,2400
0.8836333,2604
0.8853,2546
0.8869666,2655
0.8886333,2257
0.8903,2420
0.8919666,2478
0.8936333,1995
0.8953,2284
0.8969667,2412
0.8986334,2402
0.9003,2393
0.9019667,2084
0.9036334,1959
0.9053,2111
0.9069667,2167
0.9086334,2127
0.9103,2008
0.9119667,2016
0.9136333,2025
0.9153,2058
0.9169667,1869
0.9186333,2104
0.9203,1814
0.9219667,1896
0.9236333,1978
0.9253,1946
0.9269667,1915
0.9286333,1961
0.9303,2106
0.9319667,1710
0.9336333,2099
0.9353,1657
0.9369667,2146
0.9386333,1886
0.9403,1812
0.9419667,1731
0.9436333,1515
0.9453,1692
0.9469666,1714
0.9486333,1585
0.9503,1537
0.9519666,1939
0.9536333,1923
0.9553,2015
0.9569666,2031
0.9586333,2047
0.9603,2018
0.9619667,2458
0.9636334,2918
0.9653,3083
0.9669667,3789
0.9686334,4618
0.9703,5365
0.9719667,5569
0.9736333,7019
0.9753,7951
0.9769667,9552
0.9786333,10472
0.9803,11168
0.9819667,12260
0.9836333,14832
0.9853,15844
0.9869667,17064
0.9886333,18828
0.9903,20724
0.9919667,22860
0.9936333,23480
0.9953,26580
0.9969667,28596
0.9986333,30068
1.0003,30612
1.001967,33040
1.003633,33872
1.0053,34208
1.006967,32896
1.008633,34848
1.0103,32784
1.011967,32960
1.013633,31088
1.0153,31560
1.016967,30400
1.018633,27196
1.0203,25184
1.021967,23092
1.023633,21576
1.0253,19824
1.026967,17488
1.028633,15260
1.0303,14284
1.031967,13300
1.033633,11376
1.0353,10100
1.036967,9560
1.038633,8820
1.0403,7413
1.041967,7484
1.043633,6271
1.0453,5829
1.046967,5456
1.048633,5379
1.0503,4814
1.051967,4738
1.053633,5085
1.0553,4806
1.056967,5104
1.058633,4409
1.0603,4343
1.061967,4503
1.063633,4578
1.0653,4583
1.066967,4349
1.068633,4352
1.0703,4570
1.071967,4444
1.073633,4568
1.0753,4693
1.076967,4871
1.078633,5049
1.0803,5371
1.081967,5672
1.083633,6112
1.0853,6152
1.086967,6912
1.088633,7259
1.0903,7497
1.091967,7452
1.093633,7435
1.0953,7978
1.096967,8272
1.098633,8204
1.1003,8256
1.101967,8304
1.103633,9128
1.1053,8900
1.106967,9160
1.108633,9080
1.1103,8728
1.111967,8228
1.113633,8428
1.1153,7966
1.116967,7422
1.118633,6987
1.1203,7471
1.121967,6786
1.123633,6330
1.1253,6032
1.126967,5539
1.128633,5459
1.1303,4825
1.131967,4418
1.133633,3907
1.1353,3873
1.136967,3632
1.138633,3715
1.1403,3196
1.141967,2838
1.143633,2864
1.1453,2393
1.146967,2516
1.148633,2405
1.1503,2450
1.151967,1976
1.153633,2116
1.1553,1920
1.156967,2189
1.158633,2051
1.1603,1753
1.161967,1749
1.163633,1946
1.1653,1705
1.166967,1736
1.168633,1776
1.1703,1441
1.171967,1677
1.173633,1661
1.1753,1589
1.176967,1727
1.178633,1460
1.1803,1396
1.181967,1732
1.183633,1170
1.1853,1151
1.186967,1359
1.188633,1356
1.1903,1562
1.191967,1584
1.193633,1567
1.1953,1637
1.196967,1253
1.198633,1606
