"SampleName","A2Rd2_01-20"
"Target Mass 1",
"Column Name","IA-3 (3um, 4.6X100)"
"Channel","QDa 1: SIR Ch1"
0.00195,467
0.003616667,821
0.005283333,641
0.00695,557
0.008616666,604
0.01028333,586
0.01195,500
0.01361667,622
0.01528333,503
0.01695,645
0.01861667,735
0.02028333,684
0.02195,659
0.02361667,649
0.02528333,517
0.02695,678
0.02861667,676
0.03028333,673
0.03195,584
0.03361667,618
0.03528333,587
0.03695,587
0.03861667,586
0.04028333,664
0.04195,685
0.04361667,530
0.04528333,581
0.04695,703
0.04861667,612
0.05028334,728
0.05195,629
0.05361667,560
0.05528333,533
0.05695,485
0.05861667,526
0.06028333,522
0.06195,519
0.06361666,650
0.06528334,620
0.06695,536
0.06861667,597
0.07028333,558
0.07195,682
0.07361667,661
0.07528333,724
0.07695,695
0.07861666,600
0.08028334,616
0.08195,668
0.08361667,493
0.08528333,575
0.08695,616
0.08861667,563
0.09028333,542
0.09195,520
0.09361666,694
0.09528334,715
0.09695,510
0.09861667,613
0.1002833,686
0.10195,572
0.1036167,567
0.1052833,681
0.10695,705
0.1086167,530
0.1102833,535
0.11195,744
0.1136167,678
0.1152833,610
0.11695,722
0.1186167,694
0.1202833,742
0.12195,798
0.1236167,571
0.1252833,515
0.12695,583
0.1286167,559
0.1302833,587
0.13195,572
0.1336167,557
0.1352833,444
0.13695,535
0.1386167,546
0.1402833,557
0.14195,583
0.1436167,638
0.1452833,627
0.14695,598
0.1486167,570
0.1502833,521
0.15195,542
0.1536167,588
0.1552833,596
0.15695,524
0.1586167,597
0.1602833,591
0.16195,585
0.1636167,558
0.1652833,531
0.16695,503
0.1686167,563
0.1702833,622
0.17195,607
0.1736167,609
0.1752833,611
0.17695,558
0.1786167,627
0.1802833,549
0.18195,588
0.1836167,518
0.1852833,543
0.18695,615
0.1886167,629
0.1902833,406
0.19195,520
0.1936167,622
0.1952833,701
0.19695,410
0.1986167,603
0.2002833,660
0.20195,458
0.2036167,656
0.2052833,570
0.20695,540
0.2086167,477
0.2102833,480
0.21195,537
0.2136167,556
0.2152833,575
0.21695,570
0.2186167,525
0.2202833,541
0.22195,570
0.2236167,482
0.2252833,598
0.22695,601
0.2286167,631
0.2302833,561
0.23195,492
0.2336167,589
0.2352833,543
0.23695,545
0.2386167,546
0.2402833,582
0.24195,561
0.2436167,540
0.2452833,482
0.24695,503
0.2486167,524
0.2502833,469
0.25195,521
0.2536167,573
0.2552833,530
0.25695,512
0.2586167,571
0.2602833,562
0.26195,524
0.2636333,539
0.2652833,570
0.26695,600
0.2686167,492
0.2702833,495
0.27195,521
0.2736167,558
0.2752833,594
0.27695,611
0.2786167,475
0.2803,639
0.28195,563
0.2836167,508
0.2852833,669
0.28695,635
0.2886167,559
0.2902833,647
0.29195,528
0.2936167,620
0.2952833,684
0.29695,715
0.2986333,642
0.3002833,668
0.30195,644
0.3036167,620
0.3053,666
0.30695,789
0.3086167,789
0.3102833,792
0.31195,517
0.3136333,625
0.3153,747
0.31695,508
0.3186167,596
0.3203,702
0.3219667,631
0.3236333,608
0.3253,585
0.32695,520
0.3286167,533
0.3303,547
0.33195,575
0.3336333,604
0.3352833,633
0.33695,651
0.3386333,650
0.3403,649
0.3419667,613
0.3436167,676
0.3452833,532
0.3469667,591
0.3486167,599
0.3503,599
0.35195,600
0.3536333,633
0.3553,525
0.3569667,611
0.3586333,789
0.3603,732
0.36195,1219
0.3636333,2838
0.3652833,5694
0.3669667,7082
0.3686333,7068
0.3703,7342
0.3719667,6652
0.3736333,5819
0.3753,4743
0.3769667,3795
0.3786167,3348
0.3803,3122
0.38195,2570
0.3836333,1869
0.3853,1596
0.3869667,1355
0.3886333,1273
0.3903,1255
0.3919667,1310
0.3936333,1281
0.3953,1424
0.3969667,2015
0.3986333,1925
0.4003,2200
0.4019667,2480
0.4036333,2592
0.4053,2416
0.4069667,2211
0.4086333,1942
0.4103,1920
0.4119667,1687
0.4136333,1668
0.4153,1632
0.4169667,1551
0.4186333,1620
0.4203,1525
0.4219667,1415
0.4236333,1425
0.4253,1368
0.4269667,1166
0.4286333,1202
0.4303,987
0.4319667,1334
0.4336333,1368
0.4353,1667
0.4369667,1768
0.4386333,3196
0.4403,3688
0.4419667,4987
0.4436333,6458
0.4453,9008
0.4469667,13728
0.4486333,17372
0.4503,23820
0.4519667,33216
0.4536333,49056
0.4553,70752
0.4569667,99184
0.4586333,133824
0.4603,177984
0.4619667,227968
0.4636333,277120
0.4653,328576
0.4669667,377664
0.4686333,409216
0.4703,429120
0.4719667,428416
0.4736333,411648
0.4753,377216
0.4769667,343936
0.4786333,292608
0.4803,244672
0.4819667,193600
0.4836333,155072
0.4853,124832
0.4869667,102928
0.4886333,76800
0.4903,63504
0.4919667,50928
0.4936333,42688
0.4953,36352
0.4969667,27264
0.4986333,24736
0.5003,20728
0.5019667,18096
0.5036333,15956
0.5053,14244
0.5069667,11552
0.5086333,10812
0.5103,9340
0.5119666,8892
0.5136333,7739
0.5153,6261
0.5169666,6838
0.5186333,5891
0.5203,4954
0.5219667,5337
0.5236334,4816
0.5253,4484
0.5269667,4476
0.5286334,4214
0.5303,3909
0.5319667,3781
0.5336334,3609
0.5353,3997
0.5369667,3901
0.5386333,3491
0.5403,3135
0.5419667,3112
0.5436333,3192
0.5453,3295
0.5469667,2929
0.5486333,3054
0.5503,2799
0.5519667,2808
0.5536333,2368
0.5553,2775
0.5569667,2115
0.5586333,2354
0.5603,2222
0.5619667,2072
0.5636333,2413
0.5653,1962
0.5669667,2264
0.5686333,1927
0.5703,2032
0.5719666,1949
0.5736333,1954
0.5753,2314
0.5769666,2325
0.5786333,2128
0.5803,2151
0.5819666,1932
0.5836333,1875
0.5853,2042
0.5869667,2210
0.5886334,2349
0.5903,1810
0.5919667,1952
0.5936334,1988
0.5953,1699
0.5969667,1930
0.5986333,1812
0.6003,1727
0.6019667,1642
0.6036333,1671
0.6053,1635
0.6069667,1664
0.6086333,1693
0.6103,1745
0.6119667,1797
0.6136333,1808
0.6153,1689
0.6169667,1462
0.6186333,1512
0.6203,1574
0.6219667,1536
0.6236333,1497
0.6253,1575
0.6269667,1560
0.6286333,1490
0.6303,1193
0.6319667,1345
0.6336333,1403
0.6353,1320
0.6369666,1311
0.6386333,1349
0.6403,1443
0.6419666,1376
0.6436333,1308
0.6453,1118
0.6469667,1180
0.6486334,1313
0.6503,1369
0.6519667,1310
0.6536334,1282
0.6553,1218
0.6569667,1295
0.6586334,1053
0.6603,1202
0.6619667,1048
0.6636333,1164
0.6653,942
0.6669667,1126
0.6686333,1117
0.6703,1109
0.6719667,1046
0.6736333,1223
0.6753,1202
0.6769667,1293
0.6786333,1047
0.6803,1204
0.6819667,1231
0.6836333,1329
0.6853,1153
0.6869667,1260
0.6886333,1209
0.6903,1157
0.6919667,1140
0.6936333,992
0.6953,1057
0.6969666,865
0.6986333,942
0.7003,1019
0.7019666,936
0.7036333,997
0.7053,1065
0.7069666,1087
0.7086333,1109
0.7103,1157
0.7119667,1145
0.7136334,1191
0.7153,1198
0.7169667,1032
0.7186334,1147
0.7203,1142
0.7219667,1131
0.7236333,1081
0.7253,1141
0.7269667,1120
0.7286333,1100
0.7303,1080
0.7319667,1048
0.7336333,945
0.7353,1081
0.7369667,990
0.7386333,976
0.7403,1129
0.7419667,1132
0.7436333,1136
0.7453,1019
0.7469667,1009
0.7486333,1043
0.7503,983
0.7519667,984
0.7536333,1270
0.7553,1335
0.7569667,1117
0.7586333,1256
0.7603,1245
0.7619666,1276
0.7636333,1157
0.7653,1220
0.7669666,1026
0.7686333,1276
0.7703,950
0.7719667,1101
0.7736334,1121
0.7753,1174
0.7769667,1239
0.7786334,1294
0.7803,1060
0.7819667,1123
0.7836334,1148
0.7853,1035
0.7869667,1176
0.7886333,941
0.7903,1199
0.7919667,1128
0.7936333,1085
0.7953,1167
0.7969667,1112
0.7986333,1029
0.8003,1042
0.8019667,1272
0.8036333,1274
0.8053,1444
0.8069667,1059
0.8086333,955
0.8103,1332
0.8119667,1153
0.8136333,1140
0.8153,1246
0.8169667,1164
0.8186333,1082
0.8203,1293
0.8219666,1143
0.8236333,1140
0.8253,1137
0.8269666,1169
0.8286333,1202
0.8303,1275
0.8319666,1349
0.8336333,1504
0.8353,1407
0.8369667,1463
0.8386334,1308
0.8403,994
0.8419667,1217
0.8436334,1312
0.8453,1306
0.8469667,1189
0.8486333,981
0.8503,1061
0.8519667,1003
0.8536333,975
0.8553,1048
0.8569667,1083
0.8586333,1118
0.8603,1262
0.8619667,1328
0.8636333,2087
0.8653,2024
0.8669667,2950
0.8686333,3254
0.8703,3736
0.8719667,4300
0.8736333,4968
0.8753,5237
0.8769667,5482
0.8786333,4578
0.8803,5021
0.8819667,4529
0.8836333,4673
0.8853,4621
0.8869666,4681
0.8886333,4453
0.8903,4595
0.8919666,4663
0.8936333,4415
0.8953,4076
0.8969667,4404
0.8986334,4298
0.9003,4193
0.9019667,4414
0.9036334,4404
0.9053,4395
0.9069667,4649
0.9086334,4965
0.9103,4902
0.9119667,4624
0.9136333,4460
0.9153,4374
0.9169667,4588
0.9186333,4523
0.9203,4458
0.9219667,4444
0.9236333,3760
0.9253,3992
0.9269667,3936
0.9286333,4331
0.9303,4492
0.9319667,3378
0.9336333,3913
0.9353,3163
0.9369667,4010
0.9386333,3485
0.9403,3223
0.9419667,3092
0.9436333,3132
0.9453,2831
0.9469666,2621
0.9486333,2662
0.9503,2618
0.9519666,2516
0.9536333,1965
0.9553,2069
0.9569666,1827
0.9586333,2085
0.9603,1707
0.9619667,1599
0.9636334,1769
0.9653,1554
0.9669667,1416
0.9686334,1404
0.9703,1219
0.9719667,1112
0.9736333,1251
0.9753,1068
0.9769667,1277
0.9786333,1082
0.9803,954
0.9819667,929
0.9836333,723
0.9853,763
0.9869667,954
0.9886333,952
0.9903,770
0.9919667,651
0.9936333,910
0.9953,988
0.9969667,754
0.9986333,655
1.0003,643
1.001967,843
1.003633,807
1.0053,772
1.006967,807
1.008633,793
1.0103,779
1.011967,815
1.013633,851
1.0153,695
1.016967,825
1.018633,702
1.0203,733
1.021967,764
1.023633,789
1.0253,802
1.026967,815
1.028633,830
1.0303,746
1.031967,830
1.033633,943
1.0353,962
1.036967,915
1.038633,678
1.0403,899
1.041967,766
1.043633,969
1.0453,952
1.046967,928
1.048633,835
1.0503,737
1.051967,750
1.053633,713
1.0553,778
1.056967,817
1.058633,817
1.0603,671
1.061967,741
1.063633,874
1.0653,793
1.066967,817
1.068633,790
1.0703,752
1.071967,816
1.073633,922
1.0753,878
1.076967,712
1.078633,845
1.0803,828
1.081967,811
1.083633,714
1.0853,707
1.086967,804
1.088633,717
1.0903,715
1.091967,714
1.093633,769
1.0953,825
1.096967,842
1.098633,854
1.1003,843
1.101967,706
1.103633,791
1.1053,847
1.106967,894
1.108633,713
1.1103,669
1.111967,650
1.113633,630
1.1153,749
1.116967,695
1.118633,642
1.1203,667
1.121967,757
1.123633,871
1.1253,927
1.126967,793
1.128633,749
1.1303,859
1.131967,862
1.133633,747
1.1353,900
1.136967,851
1.138633,829
1.1403,883
1.141967,788
1.143633,819
1.1453,843
1.146967,867
1.148633,870
1.1503,988
1.151967,970
1.153633,956
1.1553,896
1.156967,890
1.158633,913
1.1603,962
1.161967,1011
1.163633,994
1.1653,976
1.166967,1175
1.168633,1225
1.1703,1147
1.171967,987
1.173633,1138
1.1753,973
1.176967,1103
1.178633,1067
1.1803,1030
1.181967,1118
1.183633,1102
1.1853,1083
1.186967,1064
1.188633,932
1.1903,1207
1.191967,1174
1.193633,1178
1.1953,1199
1.196967,1174
1.198633,1149
