"SampleName","A2Rd2_01-62"
"Target Mass 1",
"Column Name","IA-3 (3um, 4.6X100)"
"Channel","QDa 1: SIR Ch1"
0.00195,294
0.003616667,637
0.005283333,684
0.00695,528
0.008616666,623
0.01028333,744
0.01195,629
0.01361667,547
0.01528333,528
0.01695,650
0.01861667,545
0.02028333,473
0.02195,590
0.02361667,514
0.02528333,657
0.02695,601
0.02861667,543
0.03028333,627
0.03195,562
0.03361667,661
0.03528333,612
0.03695,602
0.03861667,582
0.04028333,561
0.04195,485
0.04361667,555
0.04528333,554
0.04695,554
0.04861667,616
0.05028334,610
0.05195,604
0.05361667,584
0.05528333,483
0.05695,658
0.05861667,720
0.06028333,715
0.06195,603
0.06361666,511
0.06528334,647
0.06695,663
0.06861667,659
0.07028333,477
0.07195,602
0.07361667,532
0.07528333,543
0.07695,561
0.07861666,578
0.08028334,594
0.08195,579
0.08361667,596
0.08528333,612
0.08695,517
0.08861667,552
0.09028333,513
0.09195,507
0.09361666,601
0.09528334,590
0.09695,563
0.09861667,536
0.1002833,639
0.10195,656
0.1036167,654
0.1052833,595
0.10695,562
0.1086167,638
0.1102833,571
0.11195,559
0.1136167,509
0.1152833,631
0.11695,628
0.1186167,479
0.1202833,434
0.12195,567
0.1236167,433
0.1252833,620
0.12695,575
0.1286167,652
0.1302833,766
0.13195,419
0.1336167,648
0.1352833,569
0.13695,650
0.1386167,717
0.1402833,547
0.14195,712
0.1436167,670
0.1452833,503
0.14695,448
0.1486167,452
0.1502833,443
0.15195,435
0.1536167,536
0.1552833,637
0.15695,562
0.1586167,487
0.1602833,643
0.16195,572
0.1636167,583
0.1652833,527
0.16695,548
0.1686167,568
0.1702833,451
0.17195,550
0.1736167,495
0.1752833,572
0.17695,510
0.1786167,448
0.1802833,589
0.18195,457
0.1836167,516
0.1852833,601
0.18695,583
0.1886167,564
0.1902833,575
0.19195,586
0.1936167,596
0.1952833,392
0.19695,594
0.1986167,564
0.2002833,589
0.20195,585
0.2036167,578
0.2052833,640
0.20695,678
0.2086167,469
0.2102833,560
0.21195,376
0.2136167,549
0.2152833,838
0.21695,779
0.2186167,576
0.2202833,599
0.22195,605
0.2236167,596
0.2252833,552
0.22695,546
0.2286167,554
0.2302833,563
0.23195,504
0.2336167,573
0.2352833,537
0.23695,487
0.2386167,550
0.2402833,532
0.24195,514
0.2436167,454
0.2453,533
0.24695,552
0.2486167,592
0.2502833,588
0.25195,584
0.2536167,426
0.2552833,697
0.25695,606
0.2586167,604
0.2602833,582
0.26195,576
0.2636167,570
0.2652833,488
0.26695,457
0.2686167,638
0.2702833,559
0.27195,514
0.2736167,608
0.2752833,620
0.27695,609
0.2786167,507
0.2803,525
0.28195,565
0.2836167,583
0.2852833,519
0.28695,510
0.2886167,475
0.2902833,666
0.29195,782
0.2936167,739
0.2952833,689
0.29695,628
0.2986333,608
0.3002833,717
0.30195,576
0.3036167,633
0.3052833,657
0.30695,685
0.3086167,587
0.3102833,487
0.31195,828
0.3136167,702
0.3153,736
0.31695,767
0.3186167,641
0.3202833,775
0.32195,519
0.3236167,581
0.3252833,562
0.32695,576
0.3286167,590
0.3302833,518
0.33195,668
0.3336333,724
0.3352833,450
0.3369667,598
0.3386333,697
0.3402833,692
0.34195,624
0.3436167,634
0.3452833,568
0.34695,448
0.3486167,556
0.3503,598
0.35195,646
0.3536167,583
0.3553,712
0.35695,697
0.3586167,605
0.3603,776
0.36195,955
0.3636167,1271
0.3652833,1605
0.3669667,3151
0.3686333,4368
0.3702833,5854
0.3719667,6899
0.3736167,7016
0.3752833,7246
0.37695,6662
0.3786167,5636
0.3802833,4870
0.38195,4167
0.3836333,2948
0.3853,2369
0.3869667,1898
0.3886333,1416
0.3903,1126
0.3919667,1254
0.3936333,982
0.3953,1130
0.3969667,1169
0.3986167,1039
0.4003,1059
0.40195,1178
0.4036333,1428
0.4052833,1604
0.4069667,1642
0.4086167,1851
0.4103,1837
0.4119667,1822
0.4136333,1931
0.4153,2039
0.4169667,2285
0.4186333,2161
0.4203,1868
0.4219667,2082
0.4236333,2123
0.4253,2209
0.4269667,2401
0.4286333,2900
0.4303,3112
0.4319667,4189
0.4336333,5333
0.4353,6386
0.4369667,8440
0.4386333,12376
0.4403,15676
0.4419667,21944
0.4436333,27336
0.4453,37296
0.4469667,47408
0.4486333,59328
0.4503,72368
0.4519667,89536
0.4536333,106400
0.4553,126432
0.4569667,144000
0.4586333,166592
0.4603,189824
0.4619667,213824
0.4636333,247488
0.4653,278016
0.4669667,305344
0.4686333,339968
0.4703,367488
0.4719667,389120
0.4736333,400640
0.4753,395968
0.4769667,379392
0.4786333,354432
0.4803,323456
0.4819667,281024
0.4836333,246016
0.4853,204352
0.4869667,162688
0.4886333,130432
0.4903,103760
0.4919667,78480
0.4936333,61200
0.4953,45312
0.4969667,35216
0.4986333,26228
0.5003,21068
0.5019667,18232
0.5036333,14404
0.5053,13384
0.5069667,11152
0.5086333,9152
0.5103,8083
0.5119666,7539
0.5136333,6539
0.5153,6272
0.5169666,6280
0.5186333,5236
0.5203,5451
0.5219667,5427
0.5236334,4897
0.5253,4857
0.5269667,4346
0.5286334,4228
0.5303,4066
0.5319667,4005
0.5336334,4002
0.5353,3675
0.5369667,3777
0.5386333,3982
0.5403,3210
0.5419667,3203
0.5436333,3068
0.5453,3346
0.5469667,2924
0.5486333,2944
0.5503,3172
0.5519667,2584
0.5536333,2577
0.5553,2323
0.5569667,2721
0.5586333,2626
0.5603,2632
0.5619667,2255
0.5636333,2109
0.5653,2371
0.5669667,2490
0.5686333,2391
0.5703,2077
0.5719666,2049
0.5736333,2033
0.5753,2124
0.5769666,2377
0.5786333,2500
0.5803,2322
0.5819666,2300
0.5836333,2268
0.5853,2529
0.5869667,2482
0.5886334,2325
0.5903,2410
0.5919667,2029
0.5936334,2544
0.5953,2339
0.5969667,2293
0.5986333,2261
0.6003,2435
0.6019667,2079
0.6036333,2355
0.6053,2424
0.6069667,2375
0.6086333,2103
0.6103,2261
0.6119667,2168
0.6136333,2071
0.6153,2200
0.6169667,2181
0.6186333,2002
0.6203,1814
0.6219667,2144
0.6236333,1550
0.6253,1960
0.6269667,1735
0.6286333,1900
0.6303,1762
0.6319667,1571
0.6336333,1956
0.6353,1886
0.6369666,1607
0.6386333,1607
0.6403,1655
0.6419666,1658
0.6436333,1657
0.6453,1506
0.6469667,1671
0.6486334,1285
0.6503,1704
0.6519667,1403
0.6536334,1584
0.6553,1652
0.6569667,1528
0.6586334,1445
0.6603,1301
0.6619667,1610
0.6636333,1408
0.6653,1116
0.6669667,1508
0.6686333,1684
0.6703,1588
0.6719667,1477
0.6736333,1390
0.6753,1208
0.6769667,1332
0.6786333,1363
0.6803,1453
0.6819667,1465
0.6836333,1431
0.6853,1477
0.6869667,1410
0.6886333,1391
0.6903,1349
0.6919667,1210
0.6936333,1158
0.6953,1201
0.6969666,1223
0.6986333,1245
0.7003,1351
0.7019666,1504
0.7036333,1459
0.7053,1469
0.7069666,1358
0.7086333,1194
0.7103,1079
0.7119667,1118
0.7136334,1158
0.7153,1378
0.7169667,1444
0.7186334,1517
0.7203,1320
0.7219667,1437
0.7236333,1084
0.7253,1165
0.7269667,1217
0.7286333,1181
0.7303,1183
0.7319667,1185
0.7336333,1229
0.7353,1417
0.7369667,1309
0.7386333,1201
0.7403,1188
0.7419667,1419
0.7436333,1356
0.7453,1296
0.7469667,1344
0.7486333,1399
0.7503,1176
0.7519667,1236
0.7536333,1257
0.7553,1277
0.7569667,1287
0.7586333,1205
0.7603,1283
0.7619666,1226
0.7636333,1254
0.7653,1281
0.7669666,1246
0.7686333,1291
0.7703,1207
0.7719667,1141
0.7736334,1159
0.7753,1200
0.7769667,1196
0.7786334,1177
0.7803,1179
0.7819667,1276
0.7836334,1057
0.7853,1417
0.7869667,1328
0.7886333,1090
0.7903,1417
0.7919667,1041
0.7936333,1123
0.7953,1236
0.7969667,1209
0.7986333,1313
0.8003,1229
0.8019667,1225
0.8036333,1220
0.8053,1218
0.8069667,1230
0.8086333,1197
0.8103,1282
0.8119667,1459
0.8136333,1308
0.8153,1157
0.8169667,1147
0.8186333,1425
0.8203,1339
0.8219666,1305
0.8236333,1271
0.8253,1151
0.8269666,1249
0.8286333,1347
0.8303,1302
0.8319666,1263
0.8336333,1223
0.8353,1278
0.8369667,1333
0.8386334,1261
0.8403,1189
0.8419667,1340
0.8436334,1397
0.8453,1399
0.8469667,1275
0.8486333,1300
0.8503,1146
0.8519667,1013
0.8536333,1191
0.8553,910
0.8569667,1136
0.8586333,1018
0.8603,1471
0.8619667,1683
0.8636333,2127
0.8653,2615
0.8669667,3121
0.8686333,4006
0.8703,4719
0.8719667,4820
0.8736333,5277
0.8753,5313
0.8769667,5704
0.8786333,5701
0.8803,5698
0.8819667,5562
0.8836333,5273
0.8853,5541
0.8869666,5209
0.8886333,5353
0.8903,5167
0.8919666,5332
0.8936333,5117
0.8953,4684
0.8969667,5070
0.8986334,5016
0.9003,4962
0.9019667,5109
0.9036334,5112
0.9053,5114
0.9069667,5201
0.9086334,5085
0.9103,4969
0.9119667,4483
0.9136333,5373
0.9153,5053
0.9169667,4979
0.9186333,5094
0.9203,5257
0.9219667,4711
0.9236333,5271
0.9253,4606
0.9269667,4246
0.9286333,3893
0.9303,4311
0.9319667,3961
0.9336333,4115
0.9353,4060
0.9369667,3535
0.9386333,3766
0.9403,3189
0.9419667,3303
0.9436333,2835
0.9453,2827
0.9469666,2539
0.9486333,2898
0.9503,2296
0.9519666,2343
0.9536333,2294
0.9553,1988
0.9569666,2201
0.9586333,2247
0.9603,2060
0.9619667,1509
0.9636334,1657
0.9653,1844
0.9669667,1501
0.9686334,1338
0.9703,1154
0.9719667,1095
0.9736333,1139
0.9753,929
0.9769667,1084
0.9786333,1135
0.9803,926
0.9819667,974
0.9836333,873
0.9853,649
0.9869667,759
0.9886333,792
0.9903,766
0.9919667,751
0.9936333,741
0.9953,808
0.9969667,983
0.9986333,919
1.0003,649
1.001967,768
1.003633,748
1.0053,802
1.006967,789
1.008633,776
1.0103,743
1.011967,717
1.013633,692
1.0153,725
1.016967,757
1.018633,742
1.0203,728
1.021967,829
1.023633,786
1.0253,743
1.026967,718
1.028633,672
1.0303,625
1.031967,767
1.033633,883
1.0353,806
1.036967,733
1.038633,887
1.0403,895
1.041967,794
1.043633,809
1.0453,681
1.046967,917
1.048633,836
1.0503,809
1.051967,866
1.053633,750
1.0553,824
1.056967,824
1.058633,815
1.0603,806
1.061967,822
1.063633,816
1.0653,805
1.066967,795
1.068633,649
1.0703,762
1.071967,758
1.073633,753
1.0753,609
1.076967,890
1.078633,831
1.0803,892
1.081967,929
1.083633,919
1.0853,924
1.086967,951
1.088633,868
1.0903,879
1.091967,875
1.093633,776
1.0953,878
1.096967,841
1.098633,831
1.1003,794
1.101967,760
1.103633,778
1.1053,795
1.106967,666
1.108633,740
1.1103,814
1.111967,710
1.113633,729
1.1153,748
1.116967,808
1.118633,868
1.1203,648
1.121967,794
1.123633,882
1.1253,765
1.126967,649
1.128633,783
1.1303,924
1.131967,873
1.133633,761
1.1353,905
1.136967,881
1.138633,856
1.1403,1109
1.141967,1035
1.143633,962
1.1453,992
1.146967,1039
1.148633,989
1.1503,939
1.151967,916
1.153633,894
1.1553,956
1.156967,1065
1.158633,1165
1.1603,1156
1.161967,1098
1.163633,1183
1.1653,1176
1.166967,1309
1.168633,1250
1.1703,1104
1.171967,1330
1.173633,1347
1.1753,909
1.176967,1170
1.178633,1162
1.1803,1227
1.181967,1062
1.183633,1199
1.1853,1234
1.186967,920
1.188633,1266
1.1903,1345
1.191967,1169
1.193633,1354
1.1953,1100
1.196967,1258
1.198633,1199
