"SampleName","A2Rd2_01-4"
"Target Mass 1",
"Column Name","IA-3 (3um, 4.6X100)"
"Channel","QDa 1: SIR Ch1"
0.00195,486
0.003616667,497
0.005283333,542
0.00695,487
0.008616666,508
0.01028333,530
0.01195,416
0.01361667,517
0.01528333,529
0.01695,541
0.01861667,639
0.02028333,620
0.02195,503
0.02361667,511
0.02528333,499
0.02695,488
0.02861667,419
0.03028333,554
0.03195,480
0.03361667,406
0.03528333,499
0.03695,436
0.03861667,585
0.04028333,555
0.04195,530
0.04361667,485
0.04528333,539
0.04695,518
0.04861667,497
0.05028334,520
0.05195,634
0.05361667,608
0.05528333,612
0.05695,592
0.05861667,574
0.06028333,514
0.06195,572
0.06361666,530
0.06528334,518
0.06695,496
0.06861667,479
0.07028333,481
0.07195,404
0.07361667,498
0.07528333,496
0.07695,542
0.07861666,479
0.08028334,538
0.08195,434
0.08361667,484
0.08528333,533
0.08695,664
0.08861667,667
0.09028333,528
0.09195,715
0.09361666,526
0.09528334,508
0.09695,567
0.09861667,540
0.1002833,455
0.10195,539
0.1036167,459
0.1052833,379
0.10695,505
0.1086167,608
0.1102833,575
0.11195,560
0.1136167,544
0.1152833,434
0.11695,626
0.1186167,542
0.1202833,606
0.12195,608
0.1236167,573
0.1252833,614
0.12695,587
0.1286167,601
0.1302833,650
0.13195,524
0.1336167,485
0.1352833,575
0.13695,424
0.1386167,612
0.1402833,582
0.14195,592
0.1436167,580
0.1452833,563
0.14695,484
0.1486167,405
0.1502833,447
0.15195,483
0.1536167,555
0.1552833,558
0.15695,621
0.1586167,577
0.1602833,543
0.16195,564
0.1636167,536
0.1652833,603
0.16695,481
0.1686167,394
0.1702833,525
0.17195,570
0.1736167,624
0.1752833,557
0.17695,530
0.1786167,583
0.1802833,586
0.18195,476
0.1836167,586
0.1852833,486
0.18695,585
0.1886167,499
0.1902833,607
0.19195,491
0.1936167,525
0.1952833,556
0.19695,563
0.1986167,571
0.2002833,599
0.20195,582
0.2036167,565
0.2052833,593
0.20695,587
0.2086167,524
0.2102833,635
0.21195,509
0.2136167,630
0.2152833,453
0.21695,601
0.2186167,583
0.2202833,557
0.22195,501
0.2236167,487
0.2252833,642
0.22695,614
0.2286167,675
0.2302833,459
0.23195,601
0.2336167,468
0.2352833,613
0.23695,523
0.2386167,607
0.2402833,530
0.24195,556
0.2436167,681
0.2452833,435
0.24695,564
0.2486167,480
0.2502833,546
0.25195,574
0.2536167,579
0.2552833,515
0.25695,534
0.2586167,483
0.2602833,530
0.26195,486
0.2636167,442
0.2652833,648
0.26695,609
0.2686167,452
0.2702833,644
0.27195,554
0.2736167,565
0.2753,488
0.27695,474
0.2786167,459
0.2803,672
0.28195,646
0.2836167,561
0.2853,501
0.28695,688
0.2886167,584
0.2902833,632
0.29195,532
0.2936167,582
0.2952833,473
0.29695,537
0.2986333,726
0.3002833,689
0.30195,699
0.3036167,635
0.3052833,643
0.30695,584
0.3086167,578
0.3102833,549
0.31195,585
0.3136167,528
0.3153,472
0.31695,447
0.3186167,648
0.3202833,672
0.32195,522
0.3236167,655
0.3253,470
0.32695,514
0.3286167,468
0.3302833,563
0.33195,672
0.3336333,648
0.3352833,577
0.3369667,661
0.3386167,468
0.3402833,518
0.34195,636
0.3436167,493
0.3452833,705
0.34695,594
0.3486167,686
0.3503,514
0.35195,595
0.3536333,649
0.3552833,554
0.35695,540
0.3586167,690
0.3603,714
0.36195,850
0.3636167,1962
0.3652833,4732
0.36695,7657
0.3686333,9384
0.3703,9344
0.3719667,7381
0.3736167,6761
0.3753,4957
0.37695,4104
0.3786333,3772
0.3803,3623
0.38195,2883
0.3836167,2488
0.3853,2498
0.38695,2393
0.3886333,2094
0.3902833,2240
0.3919667,2104
0.3936333,1818
0.3953,1908
0.3969667,1989
0.3986333,1415
0.4003,1492
0.40195,1704
0.4036333,1476
0.4053,1293
0.4069667,1292
0.4086333,1482
0.4103,1348
0.4119667,1178
0.4136333,1252
0.4153,1434
0.41695,1334
0.4186333,1282
0.4203,1201
0.4219667,1104
0.4236333,951
0.4253,788
0.4269667,969
0.4286333,943
0.4303,832
0.4319667,928
0.4336333,749
0.4353,834
0.4369667,807
0.4386333,606
0.4403,1006
0.4419667,1123
0.4436333,1472
0.4453,2358
0.4469667,3040
0.4486333,5395
0.4503,8256
0.4519667,14960
0.4536333,23716
0.4553,39888
0.4569667,61072
0.4586333,93040
0.4603,131584
0.4619667,178880
0.4636333,230336
0.4653,279616
0.4669667,322112
0.4686333,359168
0.4703,378496
0.4719667,384320
0.4736333,370880
0.4753,347968
0.4769667,313088
0.4786333,271488
0.4803,231872
0.4819667,188736
0.4836333,157440
0.4853,124736
0.4869667,102832
0.4886333,83072
0.4903,69584
0.4919667,54992
0.4936333,46768
0.4953,39696
0.4969667,33376
0.4986333,26888
0.5003,23840
0.5019667,19752
0.5036333,17100
0.5053,14460
0.5069667,12176
0.5086333,10292
0.5103,9788
0.5119666,7950
0.5136333,7181
0.5153,7175
0.5169666,6198
0.5186333,5473
0.5203,4661
0.5219667,4528
0.5236334,4693
0.5253,3861
0.5269667,4007
0.5286334,3751
0.5303,3536
0.5319667,3537
0.5336334,3471
0.5353,2644
0.5369667,3025
0.5386333,2828
0.5403,3023
0.5419667,2581
0.5436333,2827
0.5453,2723
0.5469667,2417
0.5486333,2428
0.5503,2291
0.5519667,2033
0.5536333,1739
0.5553,1998
0.5569667,1729
0.5586333,1951
0.5603,1844
0.5619667,1606
0.5636333,1711
0.5653,1866
0.5669667,1606
0.5686333,1642
0.5703,1477
0.5719666,1606
0.5736333,1549
0.5753,1440
0.5769666,1276
0.5786333,1246
0.5803,1305
0.5819666,1305
0.5836333,1306
0.5853,1375
0.5869667,1347
0.5886334,1318
0.5903,1165
0.5919667,1505
0.5936334,1381
0.5953,1484
0.5969667,1525
0.5986333,1436
0.6003,1342
0.6019667,1427
0.6036333,1374
0.6053,1188
0.6069667,1367
0.6086333,1396
0.6103,1250
0.6119667,1040
0.6136333,986
0.6153,1323
0.6169667,1336
0.6186333,1163
0.6203,1030
0.6219667,1029
0.6236333,1118
0.6253,1090
0.6269667,1103
0.6286333,1015
0.6303,903
0.6319667,969
0.6336333,889
0.6353,942
0.6369666,735
0.6386333,840
0.6403,838
0.6419666,953
0.6436333,913
0.6453,880
0.6469667,972
0.6486334,1018
0.6503,965
0.6519667,839
0.6536334,694
0.6553,793
0.6569667,771
0.6586334,754
0.6603,737
0.6619667,818
0.6636333,782
0.6653,746
0.6669667,896
0.6686333,858
0.6703,820
0.6719667,795
0.6736333,878
0.6753,864
0.6769667,850
0.6786333,640
0.6803,924
0.6819667,746
0.6836333,731
0.6853,824
0.6869667,801
0.6886333,779
0.6903,748
0.6919667,745
0.6936333,747
0.6953,664
0.6969666,723
0.6986333,712
0.7003,701
0.7019666,601
0.7036333,774
0.7053,766
0.7069666,898
0.7086333,782
0.7103,790
0.7119667,738
0.7136334,781
0.7153,720
0.7169667,528
0.7186334,773
0.7203,560
0.7219667,690
0.7236333,719
0.7253,821
0.7269667,715
0.7286333,616
0.7303,797
0.7319667,631
0.7336333,753
0.7353,655
0.7369667,715
0.7386333,682
0.7403,656
0.7419667,653
0.7436333,571
0.7453,628
0.7469667,638
0.7486333,524
0.7503,681
0.7519667,518
0.7536333,675
0.7553,698
0.7569667,731
0.7586333,617
0.7603,721
0.7619666,757
0.7636333,719
0.7653,680
0.7669666,705
0.7686333,811
0.7703,546
0.7719667,864
0.7736334,770
0.7753,728
0.7769667,672
0.7786334,604
0.7803,705
0.7819667,531
0.7836334,744
0.7853,664
0.7869667,650
0.7886333,661
0.7903,611
0.7919667,648
0.7936333,534
0.7953,598
0.7969667,509
0.7986333,557
0.8003,543
0.8019667,576
0.8036333,610
0.8053,687
0.8069667,761
0.8086333,814
0.8103,661
0.8119667,758
0.8136333,692
0.8153,691
0.8169667,690
0.8186333,725
0.8203,632
0.8219666,724
0.8236333,732
0.8253,570
0.8269666,674
0.8286333,696
0.8303,799
0.8319666,759
0.8336333,657
0.8353,683
0.8369667,670
0.8386334,656
0.8403,733
0.8419667,777
0.8436334,821
0.8453,728
0.8469667,811
0.8486333,662
0.8503,793
0.8519667,719
0.8536333,674
0.8553,658
0.8569667,684
0.8586333,775
0.8603,770
0.8619667,669
0.8636333,758
0.8653,557
0.8669667,750
0.8686333,788
0.8703,658
0.8719667,621
0.8736333,774
0.8753,567
0.8769667,817
0.8786333,840
0.8803,1086
0.8819667,1214
0.8836333,1416
0.8853,1911
0.8869666,2077
0.8886333,2341
0.8903,3116
0.8919666,2950
0.8936333,3137
0.8953,3054
0.8969667,2773
0.8986334,2326
0.9003,2750
0.9019667,2915
0.9036334,2615
0.9053,2479
0.9069667,2690
0.9086334,2836
0.9103,2787
0.9119667,2827
0.9136333,2591
0.9153,2937
0.9169667,2750
0.9186333,2776
0.9203,2802
0.9219667,2728
0.9236333,2654
0.9253,2813
0.9269667,2811
0.9286333,2266
0.9303,2437
0.9319667,2568
0.9336333,2643
0.9353,2286
0.9369667,2430
0.9386333,2247
0.9403,2225
0.9419667,2110
0.9436333,2003
0.9453,1958
0.9469666,2240
0.9486333,1587
0.9503,1987
0.9519666,1548
0.9536333,1651
0.9553,1466
0.9569666,1422
0.9586333,1326
0.9603,1197
0.9619667,1208
0.9636334,1274
0.9653,1095
0.9669667,950
0.9686334,824
0.9703,913
0.9719667,886
0.9736333,848
0.9753,950
0.9769667,792
0.9786333,721
0.9803,738
0.9819667,692
0.9836333,525
0.9853,628
0.9869667,523
0.9886333,657
0.9903,553
0.9919667,549
0.9936333,431
0.9953,449
0.9969667,469
0.9986333,472
1.0003,476
1.001967,512
1.003633,349
1.0053,511
1.006967,614
1.008633,636
1.0103,509
1.011967,536
1.013633,559
1.0153,434
1.016967,531
1.018633,471
1.0203,484
1.021967,497
1.023633,475
1.0253,453
1.026967,440
1.028633,495
1.0303,568
1.031967,620
1.033633,672
1.0353,596
1.036967,469
1.038633,671
1.0403,447
1.041967,516
1.043633,700
1.0453,539
1.046967,497
1.048633,509
1.0503,465
1.051967,436
1.053633,651
1.0553,600
1.056967,514
1.058633,502
1.0603,518
1.061967,527
1.063633,537
1.0653,499
1.066967,495
1.068633,555
1.0703,535
1.071967,600
1.073633,556
1.0753,512
1.076967,506
1.078633,590
1.0803,602
1.081967,632
1.083633,570
1.0853,465
1.086967,630
1.088633,649
1.0903,670
1.091967,665
1.093633,434
1.0953,670
1.096967,610
1.098633,581
1.1003,444
1.101967,493
1.103633,598
1.1053,471
1.106967,596
1.108633,608
1.1103,519
1.111967,485
1.113633,611
1.1153,369
1.116967,539
1.118633,523
1.1203,500
1.121967,512
1.123633,502
1.1253,491
1.126967,493
1.128633,494
1.1303,475
1.131967,536
1.133633,534
1.1353,560
1.136967,588
1.138633,578
1.1403,568
1.141967,557
1.143633,565
1.1453,581
1.146967,477
1.148633,583
1.1503,607
1.151967,597
1.153633,588
1.1553,610
1.156967,615
1.158633,580
1.1603,470
1.161967,554
1.163633,542
1.1653,530
1.166967,531
1.168633,532
1.1703,532
1.171967,533
1.173633,547
1.1753,562
1.176967,633
1.178633,579
1.1803,525
1.181967,777
1.183633,723
1.1853,678
1.186967,688
1.188633,776
1.1903,747
1.191967,566
1.193633,780
1.1953,900
1.196967,777
1.198633,790
