"SampleName","A2Rd2_01-64"
"Target Mass 1",
"Column Name","IA-3 (3um, 4.6X100)"
"Channel","QDa 1: SIR Ch2"
0.00195,529
0.003616667,858
0.005283333,826
0.00695,914
0.008616666,925
0.01028333,1098
0.01195,1124
0.01361667,992
0.01528333,915
0.01695,869
0.01861667,931
0.02028333,937
0.02195,942
0.02361667,973
0.02528333,1004
0.02695,1011
0.02861667,1048
0.03028333,1005
0.03195,961
0.03361667,938
0.03528333,983
0.03695,930
0.03861667,954
0.04028333,978
0.04195,1096
0.04361667,1214
0.04528333,1286
0.04695,1033
0.04861667,1041
0.05028334,1192
0.05195,1134
0.05361667,1136
0.05528333,809
0.05695,1028
0.05861667,985
0.06028333,908
0.06195,981
0.06361666,955
0.06528334,930
0.06695,1004
0.06861667,966
0.07028333,928
0.07195,993
0.07361667,1058
0.07528333,1118
0.07695,996
0.07861666,875
0.08028334,1234
0.08195,1121
0.08361667,1104
0.08528333,1102
0.08695,1106
0.08861667,1067
0.09028333,1096
0.09195,996
0.09361666,846
0.09528334,1058
0.09695,1121
0.09861667,922
0.1002833,719
0.10195,1056
0.1036167,935
0.1052833,946
0.10695,948
0.1086167,854
0.1102833,915
0.11195,986
0.1136167,710
0.1152833,1018
0.11695,844
0.1186167,816
0.1202833,1053
0.12195,1076
0.1236167,1100
0.1252833,1064
0.12695,1028
0.1286167,1013
0.1302833,998
0.13195,962
0.1336167,980
0.1352833,764
0.13695,1015
0.1386167,936
0.1402833,935
0.14195,935
0.1436167,969
0.1452833,1002
0.14695,815
0.1486167,914
0.1502833,959
0.15195,803
0.1536167,955
0.1552833,990
0.15695,933
0.1586167,830
0.1602833,870
0.16195,909
0.1636167,904
0.1652833,900
0.16695,1001
0.1686167,765
0.1702833,891
0.17195,1047
0.1736167,964
0.1752833,1211
0.17695,1148
0.1786167,955
0.1802833,811
0.18195,1057
0.1836167,960
0.1853,1057
0.18695,980
0.1886167,786
0.1902833,1150
0.19195,1032
0.1936333,854
0.1952833,1018
0.19695,1074
0.1986167,955
0.2002833,995
0.20195,1035
0.2036167,956
0.2052833,971
0.20695,984
0.2086167,998
0.2103,925
0.21195,852
0.2136333,1030
0.2152833,940
0.21695,1114
0.2186333,1164
0.2202833,1252
0.22195,1096
0.2236167,1226
0.2252833,1145
0.22695,1183
0.2286333,1173
0.2303,1084
0.2319667,1152
0.2336333,1220
0.2353,1122
0.2369667,1025
0.2386167,1263
0.2402833,1160
0.24195,1261
0.2436333,1316
0.2453,1367
0.2469667,1182
0.2486333,951
0.2503,1203
0.2519667,1132
0.2536333,1367
0.2553,1344
0.2569667,1360
0.2586333,1333
0.2603,1306
0.2619667,1167
0.2636333,1170
0.2653,1208
0.2669667,1265
0.2686333,1088
0.2703,1179
0.2719667,1138
0.2736333,1090
0.2753,1228
0.2769667,1380
0.2786333,1335
0.2803,1197
0.2819667,1284
0.2836333,1241
0.2853,1197
0.2869667,1340
0.2886333,1141
0.2903,1226
0.2919667,1113
0.2936333,1258
0.2953,1266
0.2969667,1274
0.2986333,1264
0.3003,1213
0.3019667,1162
0.3036333,1346
0.3053,1316
0.3069667,1204
0.3086333,1337
0.3103,1333
0.3119667,1328
0.3136333,1299
0.3153,1271
0.3169667,1299
0.3186333,1327
0.3203,1407
0.3219667,1560
0.3236333,1535
0.3253,1342
0.3269667,1578
0.3286333,1293
0.3303,1478
0.3319667,1330
0.3336333,1346
0.3353,1449
0.3369667,1677
0.3386333,1605
0.3403,1449
0.3419667,1406
0.3436333,1569
0.3453,1391
0.3469667,1611
0.3486333,1484
0.3503,1356
0.3519667,1465
0.3536333,1431
0.3553,1407
0.3569667,1382
0.3586333,1680
0.3603,1574
0.3619667,1467
0.3636333,2134
0.3653,3511
0.3669667,4663
0.3686333,4858
0.3703,4907
0.3719667,4539
0.3736333,4720
0.3753,4656
0.3769667,3523
0.3786333,3050
0.3803,2116
0.3819667,1779
0.3836333,1074
0.3853,887
0.3869667,945
0.3886333,504
0.3903,553
0.3919667,472
0.3936333,458
0.3953,497
0.3969667,536
0.3986333,518
0.4003,555
0.4019667,489
0.4036333,528
0.4053,582
0.4069667,736
0.4086333,859
0.4103,869
0.4119667,962
0.4136333,937
0.4153,911
0.4169667,990
0.4186333,975
0.4203,874
0.4219667,934
0.4236333,993
0.4253,885
0.4269667,987
0.4286333,1037
0.4303,1087
0.4319667,1260
0.4336333,1249
0.4353,1238
0.4369667,1245
0.4386333,1251
0.4403,1302
0.4419667,1489
0.4436333,1557
0.4453,1414
0.4469667,1455
0.4486333,1496
0.4503,1727
0.4519667,1680
0.4536333,1693
0.4553,1705
0.4569667,1810
0.4586333,1916
0.4603,2116
0.4619667,2011
0.4636333,1952
0.4653,1876
0.4669667,1823
0.4686333,1755
0.4703,1697
0.4719667,1640
0.4736333,1673
0.4753,1777
0.4769667,1861
0.4786333,1454
0.4803,1608
0.4819667,1594
0.4836333,1684
0.4853,1461
0.4869667,1470
0.4886333,1575
0.4903,1407
0.4919667,1354
0.4936333,1399
0.4953,1283
0.4969667,1247
0.4986333,1096
0.5003,1191
0.5019667,1095
0.5036333,999
0.5053,1030
0.5069667,1060
0.5086333,1019
0.5103,977
0.5119666,1013
0.5136333,1049
0.5153,1054
0.5169666,1111
0.5186333,1062
0.5203,1014
0.5219667,1127
0.5236334,1023
0.5253,1197
0.5269667,1185
0.5286334,975
0.5303,1035
0.5319667,1110
0.5336334,971
0.5353,971
0.5369667,1061
0.5386333,929
0.5403,975
0.5419667,1001
0.5436333,1026
0.5453,1187
0.5469667,1135
0.5486333,1083
0.5503,1013
0.5519667,989
0.5536333,984
0.5553,1079
0.5569667,1174
0.5586333,1130
0.5603,1086
0.5619667,1012
0.5636333,1357
0.5653,1326
0.5669667,1139
0.5686333,1209
0.5703,1029
0.5719666,1077
0.5736333,983
0.5753,1009
0.5769666,957
0.5786333,957
0.5803,957
0.5819666,951
0.5836333,944
0.5853,1134
0.5869667,1088
0.5886334,1165
0.5903,1172
0.5919667,1281
0.5936334,1298
0.5953,1211
0.5969667,1159
0.5986333,1168
0.6003,1137
0.6019667,1105
0.6036333,1158
0.6053,1029
0.6069667,1066
0.6086333,1061
0.6103,1005
0.6119667,1034
0.6136333,1063
0.6153,1279
0.6169667,1346
0.6186333,1237
0.6203,1144
0.6219667,1191
0.6236333,1217
0.6253,1185
0.6269667,1193
0.6286333,1201
0.6303,1218
0.6319667,978
0.6336333,1114
0.6353,1072
0.6369666,1094
0.6386333,1149
0.6403,861
0.6419666,1234
0.6436333,1222
0.6453,1155
0.6469667,1443
0.6486334,884
0.6503,1223
0.6519667,1238
0.6536334,1066
0.6553,1126
0.6569667,1106
0.6586334,953
0.6603,1146
0.6619667,1017
0.6636333,889
0.6653,974
0.6669667,1077
0.6686333,1009
0.6703,1036
0.6719667,1062
0.6736333,983
0.6753,929
0.6769667,921
0.6786333,913
0.6803,935
0.6819667,958
0.6836333,902
0.6853,846
0.6869667,959
0.6886333,901
0.6903,843
0.6919667,1088
0.6936333,1096
0.6953,936
0.6969666,1113
0.6986333,1059
0.7003,1005
0.7019666,1151
0.7036333,1050
0.7053,1084
0.7069666,1102
0.7086333,1119
0.7103,1136
0.7119667,1153
0.7136334,1148
0.7153,1168
0.7169667,1125
0.7186334,1082
0.7203,1279
0.7219667,1305
0.7236333,1310
0.7253,1144
0.7269667,1129
0.7286333,1275
0.7303,1114
0.7319667,1005
0.7336333,1044
0.7353,1107
0.7369667,1043
0.7386333,980
0.7403,1044
0.7419667,1107
0.7436333,815
0.7453,869
0.7469667,902
0.7486333,943
0.7503,873
0.7519667,911
0.7536333,949
0.7553,910
0.7569667,790
0.7586333,1022
0.7603,1025
0.7619666,1143
0.7636333,981
0.7653,1056
0.7669666,820
0.7686333,862
0.7703,1011
0.7719667,793
0.7736334,1053
0.7753,1040
0.7769667,811
0.7786334,876
0.7803,1026
0.7819667,1110
0.7836334,936
0.7853,915
0.7869667,992
0.7886333,946
0.7903,901
0.7919667,1170
0.7936333,1190
0.7953,1367
0.7969667,1248
0.7986333,1062
0.8003,1097
0.8019667,1149
0.8036333,1141
0.8053,1132
0.8069667,1140
0.8086333,1444
0.8103,1406
0.8119667,1230
0.8136333,1530
0.8153,1311
0.8169667,1636
0.8186333,1474
0.8203,1726
0.8219666,1203
0.8236333,1486
0.8253,1334
0.8269666,1469
0.8286333,1369
0.8303,1423
0.8319666,1481
0.8336333,1175
0.8353,1238
0.8369667,1355
0.8386334,1422
0.8403,1165
0.8419667,1201
0.8436334,1265
0.8453,1172
0.8469667,1122
0.8486333,1044
0.8503,1045
0.8519667,1206
0.8536333,1237
0.8553,1153
0.8569667,1048
0.8586333,1166
0.8603,1141
0.8619667,1117
0.8636333,1185
0.8653,1612
0.8669667,1652
0.8686333,1980
0.8703,1694
0.8719667,2051
0.8736333,1710
0.8753,1788
0.8769667,2119
0.8786333,2133
0.8803,1854
0.8819667,1935
0.8836333,1615
0.8853,1908
0.8869666,1541
0.8886333,1708
0.8903,1839
0.8919666,1689
0.8936333,1890
0.8953,1662
0.8969667,1587
0.8986334,1661
0.9003,1593
0.9019667,1675
0.9036334,1642
0.9053,1609
0.9069667,1654
0.9086334,1699
0.9103,1776
0.9119667,1641
0.9136333,1506
0.9153,1673
0.9169667,1593
0.9186333,1512
0.9203,1907
0.9219667,1904
0.9236333,1835
0.9253,1642
0.9269667,1431
0.9286333,1607
0.9303,1668
0.9319667,1665
0.9336333,1601
0.9353,1537
0.9369667,1558
0.9386333,1521
0.9403,1489
0.9419667,1440
0.9436333,1595
0.9453,1265
0.9469666,1406
0.9486333,1301
0.9503,1336
0.9519666,1169
0.9536333,1224
0.9553,1139
0.9569666,1152
0.9586333,1025
0.9603,1108
0.9619667,1192
0.9636334,1126
0.9653,862
0.9669667,1234
0.9686334,954
0.9703,1348
0.9719667,1151
0.9736333,1232
0.9753,1079
0.9769667,1054
0.9786333,1268
0.9803,857
0.9819667,1205
0.9836333,1156
0.9853,1084
0.9869667,1093
0.9886333,1122
0.9903,1093
0.9919667,1244
0.9936333,1164
0.9953,1085
0.9969667,1139
0.9986333,1192
1.0003,1489
1.001967,1488
1.003633,1499
1.0053,1402
1.006967,1452
1.008633,1487
1.0103,1426
1.011967,1486
1.013633,1447
1.0153,1273
1.016967,1280
1.018633,1489
1.0203,1325
1.021967,1440
1.023633,1103
1.0253,1277
1.026967,1365
1.028633,1220
1.0303,1395
1.031967,1071
1.033633,1228
1.0353,1002
1.036967,1112
1.038633,1041
1.0403,1168
1.041967,816
1.043633,1124
1.0453,1083
1.046967,936
1.048633,1020
1.0503,1105
1.051967,1054
1.053633,1020
1.0553,986
1.056967,1107
1.058633,908
1.0603,910
1.061967,823
1.063633,887
1.0653,1077
1.066967,1044
1.068633,999
1.0703,1013
1.071967,973
1.073633,1083
1.0753,1088
1.076967,1093
1.078633,1118
1.0803,1143
1.081967,1081
1.083633,1019
1.0853,1157
1.086967,988
1.088633,1166
1.0903,1169
1.091967,1153
1.093633,925
1.0953,1262
1.096967,1414
1.098633,1372
1.1003,1052
1.101967,979
1.103633,1071
1.1053,1292
1.106967,1272
1.108633,1127
1.1103,1310
1.111967,872
1.113633,1120
1.1153,1209
1.116967,1131
1.118633,1227
1.1203,1010
1.121967,1069
1.123633,1254
1.1253,1287
1.126967,984
1.128633,1147
1.1303,828
1.131967,900
1.133633,1228
1.1353,934
1.136967,927
1.138633,875
1.1403,780
1.141967,993
1.143633,958
1.1453,1045
1.146967,843
1.148633,845
1.1503,898
1.151967,873
1.153633,962
1.1553,932
1.156967,1020
1.158633,996
1.1603,971
1.161967,921
1.163633,891
1.1653,896
1.166967,894
1.168633,892
1.1703,824
1.171967,946
1.173633,945
1.1753,944
1.176967,966
1.178633,1030
1.1803,792
1.181967,963
1.183633,877
1.1853,898
1.186967,827
1.188633,869
1.190317,931
1.191967,936
1.193633,837
1.1953,893
1.196967,907
1.198633,986
