"SampleName","A2Rd2_01-39"
"Target Mass 1",
"Column Name","IA-3 (3um, 4.6X100)"
"Channel","QDa 1: SIR Ch1"
0.00195,477
0.003616667,607
0.005283333,444
0.00695,729
0.008616666,761
0.01028333,714
0.01195,643
0.01361667,725
0.01528333,679
0.01695,660
0.01861667,774
0.02028333,528
0.02195,575
0.02361667,607
0.02528333,622
0.02695,574
0.02861667,525
0.03028333,616
0.03195,519
0.03361667,566
0.03528333,645
0.03695,608
0.03861667,598
0.04028333,588
0.04195,636
0.04361667,633
0.04528333,630
0.04695,589
0.04861667,520
0.05028334,513
0.05195,561
0.05361667,432
0.05528333,588
0.05695,591
0.05861667,595
0.06028333,619
0.06195,613
0.06361666,606
0.06528334,614
0.06695,588
0.06861667,587
0.07028333,585
0.07195,635
0.07361667,565
0.07528333,494
0.07695,523
0.07861666,551
0.08028334,505
0.08195,727
0.08361667,710
0.08528333,815
0.08695,534
0.08861667,753
0.09028333,404
0.09195,475
0.09361666,521
0.09528334,536
0.09695,552
0.09861667,570
0.1002833,595
0.10195,490
0.1036167,586
0.1052833,596
0.10695,555
0.1086167,513
0.1102833,488
0.11195,464
0.1136167,694
0.1152833,686
0.11695,698
0.1186167,638
0.1202833,578
0.12195,662
0.1236167,572
0.1252833,501
0.12695,640
0.1286167,547
0.1302833,603
0.13195,486
0.1336167,525
0.1352833,540
0.13695,555
0.1386167,571
0.1402833,548
0.14195,525
0.1436167,514
0.1452833,509
0.14695,505
0.1486167,596
0.1502833,579
0.15195,562
0.1536167,574
0.1552833,587
0.15695,584
0.1586333,581
0.1602833,639
0.16195,606
0.1636167,574
0.1652833,697
0.16695,715
0.1686167,605
0.1702833,492
0.17195,619
0.1736167,599
0.1753,568
0.17695,556
0.1786167,576
0.1802833,597
0.18195,454
0.1836167,484
0.1853,559
0.18695,496
0.1886333,432
0.1902833,555
0.19195,539
0.1936333,523
0.1952833,514
0.19695,561
0.1986167,608
0.2002833,595
0.2019667,582
0.2036167,583
0.2052833,632
0.20695,526
0.2086167,421
0.2103,673
0.21195,578
0.2136333,579
0.2153,456
0.21695,630
0.2186333,584
0.2203,592
0.22195,525
0.2236167,635
0.2252833,666
0.2269667,582
0.2286333,550
0.2302833,530
0.2319667,603
0.2336167,609
0.2353,593
0.2369667,657
0.2386333,473
0.2403,516
0.2419667,617
0.2436333,615
0.2453,538
0.2469667,561
0.2486333,562
0.2502833,526
0.2519667,568
0.2536333,505
0.2553,572
0.25695,429
0.2586333,600
0.2603,609
0.2619667,611
0.2636333,539
0.2653,618
0.2669667,591
0.2686333,594
0.2703,589
0.2719667,601
0.2736167,594
0.2753,587
0.2769667,551
0.2786333,541
0.2803,474
0.2819667,540
0.2836333,467
0.2853,501
0.2869667,535
0.2886333,573
0.2903,610
0.2919667,554
0.2936333,497
0.2953,653
0.2969667,563
0.2986333,668
0.3003,553
0.3019667,552
0.3036333,712
0.3053,672
0.3069667,720
0.3086333,717
0.3103,641
0.3119667,600
0.3136333,657
0.3153,572
0.3169667,569
0.3186333,632
0.3203,585
0.3219667,516
0.3236333,559
0.3253,574
0.3269667,507
0.3286333,524
0.3303,541
0.3319667,541
0.3336333,541
0.3353,508
0.3369667,549
0.3386333,590
0.3403,568
0.3419667,575
0.3436333,542
0.3453,518
0.3469667,483
0.3486333,626
0.3503,601
0.3519667,647
0.3536333,615
0.3553,539
0.3569667,618
0.3586333,544
0.3603,659
0.3619667,719
0.3636333,976
0.3653,1418
0.3669667,2881
0.3686333,4894
0.3703,6874
0.3719667,7193
0.3736333,6537
0.3753,5839
0.3769667,5018
0.3786333,4340
0.3803,3420
0.3819667,2975
0.3836333,2366
0.3853,2226
0.3869667,1696
0.3886333,1510
0.3903,1662
0.3919667,1409
0.3936333,1403
0.3953,1425
0.3969667,1141
0.3986333,1475
0.4003,1336
0.4019667,1568
0.4036333,1894
0.4053,1743
0.4069667,2035
0.4086333,2209
0.4103,2210
0.4119667,2188
0.4136333,2091
0.4153,2018
0.4169667,2196
0.4186333,2206
0.4203,2113
0.4219667,1860
0.4236333,1774
0.4253,1751
0.4269667,1737
0.4286333,1619
0.4303,1668
0.4319667,1943
0.4336333,2355
0.4353,2786
0.4369667,4200
0.4386333,4859
0.4403,6682
0.4419667,9192
0.4436333,12752
0.4453,16804
0.4469667,21280
0.4486333,29836
0.4503,38544
0.4519667,51248
0.4536333,64880
0.4553,85888
0.4569667,104096
0.4586333,129904
0.4603,163968
0.4619667,197568
0.4636333,244096
0.4653,288832
0.4669667,331712
0.4686333,365440
0.4703,391936
0.4719667,409856
0.4736333,416192
0.4753,393024
0.4769667,365824
0.4786333,328448
0.4803,284672
0.4819667,236160
0.4836333,192576
0.4853,153344
0.4869667,117280
0.4886333,97504
0.4903,69520
0.4919667,54048
0.4936333,42704
0.4953,32328
0.4969667,25912
0.4986333,20996
0.5003,18328
0.5019667,14892
0.5036333,12436
0.5053,11396
0.5069667,9436
0.5086333,8896
0.5103,7751
0.5119666,7046
0.5136333,6368
0.5153,5836
0.5169666,5186
0.5186333,5605
0.5203,5308
0.5219667,4659
0.5236334,4511
0.5253,4374
0.5269667,4474
0.5286334,4361
0.5303,4208
0.5319667,4301
0.5336334,3757
0.5353,3793
0.5369667,3400
0.5386333,3274
0.5403,3253
0.5419667,3311
0.5436333,2933
0.5453,3242
0.5469667,3025
0.5486333,2707
0.5503,2459
0.5519667,2431
0.5536333,2483
0.5553,2169
0.5569667,2413
0.5586333,2485
0.5603,2357
0.5619667,2012
0.5636333,2376
0.5653,1910
0.5669667,1838
0.5686333,1907
0.5703,2026
0.5719666,2118
0.5736333,1779
0.5753,1921
0.5769666,2064
0.5786333,1858
0.5803,1672
0.5819666,1933
0.5836333,1921
0.5853,1977
0.5869667,2372
0.5886334,2301
0.5903,2008
0.5919667,1989
0.5936334,2036
0.5953,1958
0.5969667,2123
0.5986333,2007
0.6003,1892
0.6019667,1846
0.6036333,1978
0.6053,1772
0.6069667,1828
0.6086333,2083
0.6103,2098
0.6119667,1791
0.6136333,1964
0.6153,1839
0.6169667,1930
0.6186333,1757
0.6203,1870
0.6219667,1641
0.6236333,1826
0.6253,1571
0.6269667,1771
0.6286333,1623
0.6303,1474
0.6319667,1580
0.6336333,1771
0.6353,1793
0.6369666,1686
0.6386333,1609
0.6403,1460
0.6419666,1200
0.6436333,1461
0.6453,1437
0.6469667,1289
0.6486334,1369
0.6503,1298
0.6519667,1359
0.6536334,1057
0.6553,1244
0.6569667,1206
0.6586334,1063
0.6603,1276
0.6619667,1259
0.6636333,1241
0.6653,1246
0.6669667,1251
0.6686333,1151
0.6703,1050
0.6719667,1202
0.6736333,1181
0.6753,1161
0.6769667,1178
0.6786333,1194
0.6803,1130
0.6819667,1066
0.6836333,1147
0.6853,1229
0.6869667,1248
0.6886333,1243
0.6903,1199
0.6919667,1154
0.6936333,1061
0.6953,1033
0.6969666,965
0.6986333,897
0.7003,1061
0.7019666,732
0.7036333,1191
0.7053,1020
0.7069666,880
0.7086333,1205
0.7103,1173
0.7119667,1210
0.7136334,1171
0.7153,1133
0.7169667,1152
0.7186334,1195
0.7203,1292
0.7219667,1246
0.7236333,1159
0.7253,1163
0.7269667,1139
0.7286333,1068
0.7303,1046
0.7319667,1097
0.7336333,937
0.7353,920
0.7369667,1068
0.7386333,1145
0.7403,1246
0.7419667,1064
0.7436333,1096
0.7453,1257
0.7469667,1120
0.7486333,1169
0.7503,1166
0.7519667,857
0.7536333,1219
0.7553,1024
0.7569667,1329
0.7586333,1254
0.7603,999
0.7619666,1192
0.7636333,1037
0.7653,980
0.7669666,1280
0.7686333,1167
0.7703,648
0.7719667,997
0.7736334,1109
0.7753,916
0.7769667,1010
0.7786334,897
0.7803,912
0.7819667,927
0.7836334,939
0.7853,951
0.7869667,986
0.7886333,1021
0.7903,1038
0.7919667,967
0.7936333,1037
0.7953,1107
0.7969667,1052
0.7986333,996
0.8003,1010
0.8019667,1023
0.8036333,1052
0.8053,1081
0.8069667,1078
0.8086333,1127
0.8103,1224
0.8119667,889
0.8136333,1037
0.8153,1262
0.8169667,1145
0.8186333,1276
0.8203,1136
0.8219666,1169
0.8236333,1181
0.8253,1053
0.8269666,1133
0.8286333,1144
0.8303,1196
0.8319666,1339
0.8336333,1287
0.8353,1130
0.8369667,997
0.8386334,1099
0.8403,948
0.8419667,1058
0.8436334,1119
0.8453,1091
0.8469667,1075
0.8486333,1005
0.8503,1234
0.8519667,1195
0.8536333,945
0.8553,1070
0.8569667,894
0.8586333,880
0.8603,860
0.8619667,842
0.8636333,839
0.8653,1197
0.8669667,1403
0.8686333,1906
0.8703,2565
0.8719667,2830
0.8736333,3377
0.8753,4411
0.8769667,4204
0.8786333,4885
0.8803,4686
0.8819667,5205
0.8836333,4630
0.8853,4636
0.8869666,4952
0.8886333,4569
0.8903,4470
0.8919666,4403
0.8936333,4440
0.8953,4086
0.8969667,4342
0.8986334,4651
0.9003,4586
0.9019667,5003
0.9036334,4843
0.9053,4399
0.9069667,4651
0.9086334,4445
0.9103,3912
0.9119667,4739
0.9136333,4512
0.9153,4461
0.9169667,4480
0.9186333,4499
0.9203,4234
0.9219667,3911
0.9236333,4468
0.9253,4537
0.9269667,4004
0.9286333,4442
0.9303,4142
0.9319667,3744
0.9336333,3844
0.9353,3801
0.9369667,3986
0.9386333,3314
0.9403,3352
0.9419667,3277
0.9436333,3058
0.9453,2664
0.9469666,2739
0.9486333,2441
0.9503,2458
0.9519666,2426
0.9536333,1989
0.9553,2059
0.9569666,2089
0.9586333,2084
0.9603,1745
0.9619667,1648
0.9636334,1617
0.9653,1738
0.9669667,1459
0.9686334,1298
0.9703,1305
0.9719667,1290
0.9736333,1017
0.9753,1235
0.9769667,961
0.9786333,1111
0.9803,934
0.9819667,955
0.9836333,877
0.9853,823
0.9869667,749
0.9886333,740
0.9903,731
0.9919667,727
0.9936333,701
0.9953,675
0.9969667,647
0.9986333,629
1.0003,612
1.001967,784
1.003633,774
1.0053,714
1.006967,700
1.008633,635
1.0103,787
1.011967,867
1.013633,783
1.0153,514
1.016967,631
1.018633,774
1.0203,674
1.021967,671
1.023633,669
1.0253,664
1.026967,663
1.028633,654
1.0303,646
1.031967,716
1.033633,708
1.0353,700
1.036967,746
1.038633,792
1.0403,784
1.041967,824
1.043633,833
1.0453,798
1.046967,763
1.048633,639
1.0503,800
1.051967,706
1.053633,810
1.0553,778
1.056967,715
1.058633,716
1.0603,761
1.061967,805
1.063633,637
1.0653,854
1.066967,880
1.068633,736
1.0703,797
1.071967,786
1.073633,680
1.0753,831
1.076967,692
1.078633,734
1.0803,661
1.081967,695
1.083633,728
1.0853,815
1.086967,754
1.088633,694
1.0903,776
1.091967,749
1.093633,652
1.0953,754
1.096967,735
1.098633,688
1.1003,640
1.101967,723
1.103633,687
1.1053,651
1.106967,661
1.108633,671
1.1103,800
1.111967,911
1.113633,903
1.1153,859
1.116967,815
1.118633,932
1.1203,802
1.121967,892
1.123633,810
1.1253,896
1.126967,775
1.128633,746
1.1303,682
1.131967,762
1.133633,737
1.1353,789
1.136967,734
1.138633,782
1.1403,844
1.141967,808
1.143633,772
1.1453,928
1.146967,931
1.148633,874
1.1503,788
1.151967,1041
1.153633,1090
1.1553,1039
1.156967,953
1.158633,853
1.1603,989
1.161967,1028
1.163633,1066
1.1653,1051
1.166967,941
1.168633,941
1.1703,1059
1.171967,1036
1.173633,1014
1.1753,1096
1.176967,1026
1.178633,957
1.1803,929
1.181967,974
1.183633,1018
1.1853,1088
1.186967,1157
1.188633,893
1.1903,1170
1.191967,1054
1.193633,1096
1.1953,1140
1.196967,1161
1.198633,1136
