"SampleName","A2Rd2_01-45"
"Target Mass 1",
"Column Name","IA-3 (3um, 4.6X100)"
"Channel","QDa 1: SIR Ch1"
0.00195,480
0.003616667,692
0.005283333,630
0.00695,516
0.008616666,648
0.01028333,659
0.01195,539
0.01361667,548
0.01528333,536
0.01695,525
0.01861667,576
0.02028333,628
0.02195,673
0.02361667,605
0.02528333,543
0.02695,532
0.02861667,520
0.03028333,551
0.03195,630
0.03361667,614
0.03528333,573
0.03695,560
0.03861667,616
0.04028333,544
0.04195,579
0.04361667,644
0.04528333,530
0.04695,595
0.04861667,653
0.05028334,609
0.05195,564
0.05361667,735
0.05528333,425
0.05695,506
0.05861667,576
0.06028333,536
0.06195,670
0.06361666,668
0.06528334,577
0.06695,617
0.06861667,598
0.07028333,577
0.07195,563
0.07361667,633
0.07528333,634
0.07695,677
0.07861666,617
0.08028334,533
0.08195,499
0.08361667,418
0.08528333,581
0.08695,564
0.08861667,549
0.09028333,534
0.09195,533
0.09361666,532
0.09528334,521
0.09695,509
0.09861667,572
0.1002833,522
0.10195,473
0.1036167,586
0.1052833,609
0.10695,562
0.1086167,602
0.1102833,641
0.11195,556
0.1136167,552
0.1152833,589
0.11695,607
0.1186167,625
0.1202833,458
0.12195,726
0.1236167,494
0.1252833,652
0.12695,541
0.1286167,621
0.1302833,565
0.13195,589
0.1336167,670
0.1352833,737
0.13695,450
0.1386167,572
0.1402833,675
0.14195,670
0.1436167,516
0.1452833,563
0.14695,525
0.1486167,677
0.1502833,606
0.15195,534
0.1536167,599
0.1552833,656
0.15695,643
0.1586167,617
0.1602833,592
0.16195,455
0.1636167,671
0.1652833,596
0.16695,696
0.1686167,691
0.1702833,474
0.17195,549
0.1736167,513
0.1752833,539
0.17695,711
0.1786167,732
0.1802833,573
0.18195,709
0.1836167,477
0.1852833,620
0.18695,497
0.1886167,459
0.1902833,549
0.19195,541
0.1936167,530
0.1952833,439
0.19695,555
0.1986167,552
0.2002833,603
0.20195,461
0.2036167,561
0.2052833,674
0.20695,553
0.2086167,563
0.2102833,569
0.21195,575
0.2136167,542
0.2152833,526
0.21695,513
0.2186167,566
0.2202833,445
0.22195,622
0.2236167,641
0.2252833,515
0.22695,499
0.2286167,504
0.2302833,515
0.23195,527
0.2336167,563
0.2352833,551
0.23695,540
0.2386167,472
0.2402833,609
0.24195,657
0.2436167,411
0.2452833,427
0.24695,426
0.2486167,583
0.2502833,546
0.25195,624
0.2536167,615
0.2552833,486
0.25695,456
0.2586167,451
0.2602833,581
0.26195,578
0.2636167,576
0.2652833,516
0.26695,474
0.2686167,658
0.2702833,610
0.27195,569
0.2736167,670
0.2752833,688
0.27695,587
0.2786167,466
0.2803,473
0.28195,603
0.2836167,609
0.2852833,615
0.28695,638
0.2886167,661
0.2902833,710
0.29195,538
0.2936167,545
0.2952833,489
0.29695,514
0.2986333,524
0.3002833,533
0.30195,541
0.3036167,621
0.3052833,622
0.30695,544
0.3086167,591
0.3102833,765
0.31195,774
0.3136167,788
0.3153,647
0.31695,864
0.3186333,601
0.3202833,699
0.32195,580
0.3236167,620
0.3252833,552
0.3269667,512
0.3286167,510
0.3303,555
0.33195,599
0.3336333,568
0.3353,537
0.33695,541
0.3386167,582
0.3402833,622
0.34195,638
0.3436333,611
0.3453,638
0.34695,561
0.3486333,648
0.3503,608
0.3519667,473
0.3536333,617
0.3553,567
0.35695,517
0.3586167,634
0.3602833,752
0.3619667,780
0.3636167,1141
0.3653,1699
0.3669667,3262
0.3686333,4701
0.3703,6509
0.3719667,8132
0.3736333,7710
0.3753,7496
0.37695,5590
0.3786333,4809
0.3802833,3635
0.3819667,3392
0.3836333,2659
0.3853,2263
0.38695,1474
0.3886333,1193
0.3902833,1380
0.3919667,1327
0.3936167,1042
0.3952833,1231
0.39695,1072
0.3986333,1018
0.4003,1099
0.40195,1479
0.4036333,1513
0.4053,1490
0.4069667,1675
0.4086333,1860
0.4102833,2016
0.4119667,2026
0.4136333,1984
0.4153,2002
0.4169667,2021
0.4186333,2105
0.4203,2077
0.4219667,2050
0.4236333,1990
0.4253,2085
0.4269667,2181
0.4286333,2443
0.4303,2485
0.4319667,2987
0.4336333,3648
0.4353,4481
0.4369667,5188
0.4386333,6847
0.4403,9616
0.4419667,12000
0.4436333,16092
0.4453,20700
0.4469667,27784
0.4486333,33824
0.4503,45168
0.4519667,56528
0.4536333,67616
0.4553,80208
0.4569667,97232
0.4586333,117760
0.4603,141760
0.4619667,166976
0.4636333,194880
0.4653,226496
0.4669667,259008
0.4686333,288064
0.4703,318976
0.4719667,338816
0.4736333,344256
0.4753,338240
0.4769667,316288
0.4786333,297792
0.4803,262784
0.4819667,222784
0.4836333,188032
0.4853,156800
0.4869667,123728
0.4886333,98576
0.4903,75024
0.4919667,56832
0.4936333,44400
0.4953,34160
0.4969667,28800
0.4986333,23036
0.5003,18104
0.5019667,14348
0.5036333,12848
0.5053,11772
0.5069667,9128
0.5086333,10088
0.5103,7807
0.5119666,7425
0.5136333,7458
0.5153,6428
0.5169666,5938
0.5186333,5856
0.5203,5711
0.5219667,5700
0.5236334,5699
0.5253,5162
0.5269667,4493
0.5286334,4346
0.5303,4729
0.5319667,4265
0.5336334,4324
0.5353,4210
0.5369667,3559
0.5386333,4120
0.5403,4014
0.5419667,3832
0.5436333,3652
0.5453,3358
0.5469667,3374
0.5486333,2810
0.5503,3376
0.5519667,2984
0.5536333,2707
0.5553,3119
0.5569667,2488
0.5586333,2488
0.5603,2770
0.5619667,2475
0.5636333,2358
0.5653,2482
0.5669667,2502
0.5686333,2522
0.5703,2329
0.5719666,2486
0.5736333,2279
0.5753,2434
0.5769666,2152
0.5786333,2320
0.5803,2083
0.5819666,2151
0.5836333,2299
0.5853,1701
0.5869667,1962
0.5886334,2080
0.5903,1981
0.5919667,1988
0.5936334,1533
0.5953,1874
0.5969667,1797
0.5986333,2102
0.6003,2031
0.6019667,1900
0.6036333,1942
0.6053,1816
0.6069667,1657
0.6086333,1922
0.6103,1921
0.6119667,1919
0.6136333,1703
0.6153,1886
0.6169667,1850
0.6186333,2155
0.6203,2214
0.6219667,2067
0.6236333,1935
0.6253,1801
0.6269667,1681
0.6286333,1800
0.6303,1727
0.6319667,1634
0.6336333,1286
0.6353,1435
0.6369666,1602
0.6386333,1470
0.6403,1363
0.6419666,1427
0.6436333,1287
0.6453,1378
0.6469667,1296
0.6486334,1473
0.6503,1109
0.6519667,1421
0.6536334,1533
0.6553,1371
0.6569667,1246
0.6586334,1323
0.6603,1454
0.6619667,1137
0.6636333,1077
0.6653,1296
0.6669667,1340
0.6686333,1380
0.6703,1183
0.6719667,1451
0.6736333,1204
0.6753,1332
0.6769667,1205
0.6786333,1090
0.6803,1355
0.6819667,1000
0.6836333,1062
0.6853,1047
0.6869667,1108
0.6886333,1089
0.6903,1070
0.6919667,1059
0.6936333,1048
0.6953,963
0.6969666,1159
0.6986333,1108
0.7003,1057
0.7019666,1196
0.7036333,1197
0.7053,1046
0.7069666,1088
0.7086333,1045
0.7103,994
0.7119667,876
0.7136334,1010
0.7153,1073
0.7169667,1036
0.7186334,1000
0.7203,1037
0.7219667,986
0.7236333,897
0.7253,978
0.7269667,938
0.7286333,1022
0.7303,987
0.7319667,953
0.7336333,909
0.7353,941
0.7369667,974
0.7386333,1039
0.7403,996
0.7419667,953
0.7436333,955
0.7453,958
0.7469667,933
0.7486333,908
0.7503,971
0.7519667,958
0.7536333,914
0.7553,932
0.7569667,950
0.7586333,975
0.7603,999
0.7619666,899
0.7636333,791
0.7653,1038
0.7669666,856
0.7686333,1076
0.7703,832
0.7719667,872
0.7736334,838
0.7753,813
0.7769667,974
0.7786334,939
0.7803,920
0.7819667,918
0.7836334,739
0.7853,817
0.7869667,801
0.7886333,798
0.7903,794
0.7919667,810
0.7936333,826
0.7953,838
0.7969667,844
0.7986333,748
0.8003,803
0.8019667,730
0.8036333,850
0.8053,659
0.8069667,743
0.8086333,870
0.8103,817
0.8119667,887
0.8136333,795
0.8153,839
0.8169667,829
0.8186333,821
0.8203,837
0.8219666,853
0.8236333,870
0.8253,612
0.8269666,798
0.8286333,908
0.8303,872
0.8319666,901
0.8336333,895
0.8353,889
0.8369667,817
0.8386334,867
0.8403,673
0.8419667,977
0.8436334,855
0.8453,725
0.8469667,681
0.8486333,892
0.8503,801
0.8519667,783
0.8536333,699
0.8553,746
0.8569667,665
0.8586333,687
0.8603,719
0.8619667,750
0.8636333,740
0.8653,730
0.8669667,1326
0.8686333,1223
0.8703,1447
0.8719667,1803
0.8736333,1792
0.8753,2297
0.8769667,2502
0.8786333,2221
0.8803,2371
0.8819667,2190
0.8836333,2433
0.8853,1993
0.8869666,2472
0.8886333,2335
0.8903,2097
0.8919666,1903
0.8936333,2239
0.8953,2200
0.8969667,2271
0.8986334,2490
0.9003,1818
0.9019667,2249
0.9036334,2204
0.9053,2169
0.9069667,2017
0.9086334,2365
0.9103,2266
0.9119667,2472
0.9136333,2149
0.9153,2121
0.9169667,2001
0.9186333,2048
0.9203,2095
0.9219667,1977
0.9236333,1859
0.9253,2252
0.9269667,2131
0.9286333,2025
0.9303,1996
0.9319667,2133
0.9336333,1854
0.9353,1907
0.9369667,1895
0.9386333,1952
0.9403,1726
0.9419667,1623
0.9436333,1657
0.9453,1720
0.9469666,1684
0.9486333,1648
0.9503,1723
0.9519666,1302
0.9536333,1531
0.9553,1658
0.9569666,1242
0.9586333,1233
0.9603,1321
0.9619667,1272
0.9636334,1086
0.9653,1074
0.9669667,1124
0.9686334,906
0.9703,1011
0.9719667,802
0.9736333,934
0.9753,804
0.9769667,873
0.9786333,792
0.9803,849
0.9819667,767
0.9836333,801
0.9853,806
0.9869667,711
0.9886333,624
0.9903,912
0.9919667,847
0.9936333,576
0.9953,572
0.9969667,623
0.9986333,526
1.0003,677
1.001967,643
1.003633,546
1.0053,574
1.006967,565
1.008633,559
1.0103,581
1.011967,603
1.013633,600
1.0153,598
1.016967,675
1.018633,703
1.0203,479
1.021967,563
1.023633,560
1.0253,594
1.026967,535
1.028633,550
1.0303,553
1.031967,552
1.033633,621
1.0353,634
1.036967,568
1.038633,595
1.0403,623
1.041967,577
1.043633,628
1.0453,654
1.046967,484
1.048633,601
1.0503,595
1.051967,592
1.053633,562
1.0553,596
1.056967,569
1.058633,542
1.0603,446
1.061967,492
1.063633,538
1.0653,597
1.066967,547
1.068633,497
1.0703,553
1.071967,610
1.073633,676
1.0753,677
1.076967,559
1.078633,689
1.0803,582
1.081967,722
1.083633,559
1.0853,524
1.086967,633
1.088633,616
1.0903,495
1.091967,676
1.093633,726
1.0953,564
1.096967,688
1.098633,562
1.1003,581
1.101967,430
1.103633,516
1.1053,729
1.106967,667
1.108633,610
1.1103,615
1.111967,540
1.113633,641
1.1153,537
1.116967,565
1.118633,526
1.1203,598
1.121967,592
1.123633,585
1.1253,589
1.126967,592
1.128633,600
1.1303,600
1.131967,599
1.133633,636
1.1353,554
1.136967,692
1.138633,660
1.1403,538
1.141967,640
1.143633,640
1.1453,695
1.146967,703
1.148633,555
1.1503,596
1.151967,564
1.153633,532
1.1553,516
1.156967,561
1.158633,553
1.1603,545
1.161967,504
1.163633,462
1.1653,592
1.166967,608
1.168633,578
1.1703,605
1.171967,585
1.173633,614
1.1753,621
1.176967,495
1.178633,686
1.1803,694
1.181967,614
1.183633,591
1.1853,523
1.186967,556
1.188633,659
1.1903,834
1.191967,824
1.193633,676
1.1953,558
1.196967,582
1.198633,466
