"SampleName","A2Rd2_01-71"
"Target Mass 1",
"Column Name","IA-3 (3um, 4.6X100)"
"Channel","QDa 1: SIR Ch2"
0.00195,558
0.003616667,530
0.005283333,738
0.00695,780
0.008616666,847
0.01028333,793
0.01195,800
0.01361667,807
0.01528333,855
0.01695,992
0.01861667,986
0.02028333,787
0.02195,806
0.02361667,910
0.02528333,929
0.02695,960
0.02861667,901
0.03028333,842
0.03195,926
0.03361667,883
0.03528333,841
0.03695,831
0.03861667,1005
0.04028333,1014
0.04195,972
0.04361667,911
0.04528333,921
0.04695,912
0.04861667,850
0.05028334,984
0.05195,669
0.05361667,791
0.05528333,937
0.05695,734
0.05861667,961
0.06028333,918
0.06195,713
0.06361666,637
0.06528334,822
0.06695,714
0.06861667,765
0.07028333,817
0.07195,856
0.07361667,895
0.07528333,862
0.07695,845
0.07861666,828
0.08028334,858
0.08195,882
0.08361667,798
0.08528333,857
0.08695,829
0.08861667,779
0.09028333,729
0.09195,743
0.09361666,756
0.09528334,724
0.09695,738
0.09861667,753
0.1002833,773
0.10195,780
0.1036167,872
0.1052833,857
0.10695,907
0.1086167,829
0.1102833,933
0.11195,776
0.1136167,831
0.1152833,936
0.11695,829
0.1186167,849
0.1202833,617
0.12195,799
0.1236167,786
0.1252833,813
0.12695,943
0.1286167,922
0.1302833,873
0.13195,838
0.1336167,749
0.1352833,862
0.13695,939
0.1386167,954
0.1402833,861
0.14195,897
0.1436167,863
0.1452833,832
0.14695,826
0.1486167,842
0.1502833,921
0.15195,899
0.1536167,937
0.1552833,898
0.15695,707
0.1586167,998
0.1602833,890
0.16195,777
0.1636167,782
0.1652833,824
0.16695,845
0.1686167,648
0.1702833,845
0.17195,937
0.1736167,810
0.1752833,780
0.17695,831
0.1786167,828
0.1802833,628
0.18195,587
0.1836167,771
0.1852833,828
0.18695,939
0.1886167,866
0.1902833,968
0.19195,717
0.1936167,996
0.1952833,977
0.19695,957
0.1986167,1034
0.2002833,864
0.20195,706
0.2036167,897
0.2052833,690
0.20695,943
0.2086167,951
0.2102833,892
0.21195,985
0.2136167,954
0.2152833,927
0.21695,996
0.2186167,921
0.2202833,940
0.22195,1036
0.2236167,955
0.2252833,874
0.22695,958
0.2286167,1043
0.2302833,1151
0.23195,1164
0.2336167,1183
0.2352833,1105
0.23695,1180
0.2386167,1153
0.2402833,1214
0.24195,965
0.2436167,1347
0.2452833,1315
0.24695,1000
0.2486167,1382
0.2502833,1343
0.25195,1257
0.2536167,1144
0.2552833,1081
0.25695,1215
0.2586167,1234
0.2602833,709
0.26195,988
0.2636333,1094
0.2652833,965
0.26695,1018
0.2686167,1070
0.2702833,959
0.27195,1163
0.2736167,1117
0.2752833,1146
0.27695,1085
0.2786167,1069
0.2803,839
0.28195,916
0.2836167,1035
0.2853,1000
0.28695,879
0.2886167,892
0.2902833,1012
0.29195,993
0.2936167,974
0.2952833,909
0.29695,963
0.2986333,1161
0.3003,1112
0.30195,1302
0.3036167,1297
0.3052833,1215
0.30695,976
0.3086167,1304
0.3102833,1002
0.31195,1194
0.3136167,1118
0.3153,1080
0.3169667,1006
0.3186167,1146
0.3202833,1192
0.32195,1194
0.3236167,1173
0.3253,1201
0.32695,1228
0.3286167,1240
0.3302833,1097
0.33195,1403
0.3336333,1310
0.3352833,1422
0.3369667,1376
0.3386167,1330
0.3402833,1316
0.3419667,1301
0.3436167,1285
0.3452833,1430
0.34695,1295
0.3486333,1160
0.3503,1239
0.3519667,1198
0.3536333,1233
0.3553,1268
0.35695,1297
0.3586333,1326
0.3602833,1261
0.3619667,1195
0.3636333,1401
0.3653,2923
0.3669667,3660
0.3686333,4153
0.3703,4636
0.3719667,4774
0.3736333,4603
0.3753,4582
0.37695,3964
0.3786333,3806
0.3802833,3087
0.3819667,2657
0.3836333,1840
0.3853,1670
0.3869667,1320
0.3886333,1320
0.3903,1034
0.3919667,793
0.3936167,685
0.3952833,648
0.3969667,499
0.3986333,417
0.4003,487
0.4019667,566
0.4036333,530
0.4053,483
0.4069667,637
0.4086333,594
0.4103,651
0.4119667,582
0.4136333,666
0.4153,595
0.4169667,524
0.4186333,546
0.4203,617
0.4219667,639
0.4236333,661
0.4253,546
0.4269667,615
0.4286333,699
0.4303,751
0.4319667,859
0.4336333,827
0.4353,785
0.4369667,793
0.4386333,935
0.4403,945
0.4419667,1020
0.4436333,971
0.4453,922
0.4469667,980
0.4486333,1203
0.4503,1138
0.4519667,1246
0.4536333,1217
0.4553,1188
0.4569667,1242
0.4586333,1296
0.4603,1052
0.4619667,1366
0.4636333,1342
0.4653,1278
0.4669667,1259
0.4686333,1301
0.4703,1343
0.4719667,1333
0.4736333,1217
0.4753,1136
0.4769667,960
0.4786333,1096
0.4803,1073
0.4819667,1173
0.4836333,1081
0.4853,1219
0.4869667,1167
0.4886333,924
0.4903,936
0.4919667,1079
0.4936333,903
0.4953,792
0.4969667,855
0.4986333,923
0.5003,900
0.5019667,755
0.5036333,940
0.5053,849
0.5069667,759
0.5086333,873
0.5103,902
0.5119666,776
0.5136333,808
0.5153,768
0.5169666,727
0.5186333,721
0.5203,716
0.5219667,779
0.5236334,812
0.5253,774
0.5269667,798
0.5286334,823
0.5303,878
0.5319667,933
0.5336334,740
0.5353,815
0.5369667,1000
0.5386333,924
0.5403,865
0.5419667,727
0.5436333,872
0.5453,893
0.5469667,953
0.5486333,1026
0.5503,958
0.5519667,890
0.5536333,972
0.5553,953
0.5569667,934
0.5586333,811
0.5603,987
0.5619667,942
0.5636333,852
0.5653,699
0.5669667,905
0.5686333,993
0.5703,996
0.5719666,910
0.5736333,769
0.5753,907
0.5769666,805
0.5786333,846
0.5803,829
0.5819666,813
0.5836333,802
0.5853,791
0.5869667,848
0.5886334,905
0.5903,894
0.5919667,882
0.5936334,828
0.5953,804
0.5969667,801
0.5986333,798
0.6003,849
0.6019667,886
0.6036333,838
0.6053,790
0.6069667,1012
0.6086333,983
0.6103,954
0.6119667,836
0.6136333,979
0.6153,962
0.6169667,945
0.6186333,1018
0.6203,1010
0.6219667,911
0.6236333,1054
0.6253,761
0.6269667,1016
0.6286333,1043
0.6303,1123
0.6319667,1173
0.6336333,1142
0.6353,873
0.6369666,1178
0.6386333,1102
0.6403,1175
0.6419666,860
0.6436333,1179
0.6453,900
0.6469667,1099
0.6486334,1013
0.6503,1197
0.6519667,1179
0.6536334,1184
0.6553,1002
0.6569667,1039
0.6586334,820
0.6603,1028
0.6619667,914
0.6636333,982
0.6653,832
0.6669667,1093
0.6686333,1179
0.6703,1062
0.6719667,1475
0.6736333,1433
0.6753,1595
0.6769667,2226
0.6786333,2828
0.6803,3124
0.6819667,3796
0.6836333,4512
0.6853,5347
0.6869667,6544
0.6886333,8157
0.6903,8968
0.6919667,9720
0.6936333,11956
0.6953,12880
0.6969666,14840
0.6986333,15628
0.7003,16172
0.7019666,16676
0.7036333,17828
0.7053,19564
0.7069666,19668
0.7086333,19628
0.7103,19424
0.7119667,19580
0.7136334,19732
0.7153,18708
0.7169667,18328
0.7186334,16780
0.7203,15884
0.7219667,14060
0.7236333,12020
0.7253,11544
0.7269667,10636
0.7286333,8076
0.7303,7675
0.7319667,6602
0.7336333,5138
0.7353,4687
0.7369667,4129
0.7386333,3447
0.7403,3333
0.7419667,2803
0.7436333,2790
0.7453,2268
0.7469667,2012
0.7486333,2030
0.7503,1760
0.7519667,1573
0.7536333,1664
0.7553,1566
0.7569667,1323
0.7586333,1509
0.7603,1345
0.7619666,1371
0.7636333,1556
0.7653,1341
0.7669666,1211
0.7686333,1385
0.7703,1434
0.7719667,1268
0.7736334,1370
0.7753,1651
0.7769667,1895
0.7786334,1976
0.7803,2586
0.7819667,3186
0.7836334,3196
0.7853,4475
0.7869667,5392
0.7886333,6319
0.7903,7655
0.7919667,9052
0.7936333,9908
0.7953,11644
0.7969667,13804
0.7986333,14656
0.8003,16144
0.8019667,17704
0.8036333,18436
0.8053,19064
0.8069667,21080
0.8086333,21328
0.8103,23044
0.8119667,22956
0.8136333,24892
0.8153,23868
0.8169667,24804
0.8186333,24456
0.8203,24212
0.8219666,24860
0.8236333,23032
0.8253,23456
0.8269666,19968
0.8286333,19016
0.8303,17272
0.8319666,15044
0.8336333,13092
0.8353,12040
0.8369667,10280
0.8386334,9800
0.8403,8664
0.8419667,6697
0.8436334,6351
0.8453,5321
0.8469667,4798
0.8486333,4867
0.8503,3565
0.8519667,3409
0.8536333,3222
0.8553,2974
0.8569667,2694
0.8586333,2655
0.8603,2184
0.8619667,2054
0.8636333,1745
0.8653,1877
0.8669667,1880
0.8686333,1569
0.8703,1578
0.8719667,1320
0.8736333,1344
0.8753,1300
0.8769667,1405
0.8786333,1375
0.8803,1528
0.8819667,1810
0.8836333,1914
0.8853,1872
0.8869666,1941
0.8886333,1921
0.8903,1537
0.8919666,1673
0.8936333,1803
0.8953,1731
0.8969667,1748
0.8986334,1421
0.9003,1507
0.9019667,1210
0.9036334,1448
0.9053,1409
0.9069667,1251
0.9086334,1495
0.9103,1568
0.9119667,1593
0.9136333,1515
0.9153,1550
0.9169667,1582
0.9186333,1428
0.9203,1370
0.9219667,1316
0.9236333,1305
0.9253,1309
0.9269667,1314
0.9286333,1277
0.9303,1240
0.9319667,1349
0.9336333,1458
0.9353,1518
0.9369667,1470
0.9386333,1421
0.9403,1543
0.9419667,1369
0.9436333,1529
0.9453,1256
0.9469666,1181
0.9486333,1409
0.9503,1367
0.9519666,1587
0.9536333,1898
0.9553,2068
0.9569666,2356
0.9586333,2635
0.9603,3103
0.9619667,3835
0.9636334,4420
0.9653,5344
0.9669667,5389
0.9686334,6897
0.9703,7961
0.9719667,9156
0.9736333,10124
0.9753,11564
0.9769667,13164
0.9786333,15884
0.9803,17100
0.9819667,19312
0.9836333,20336
0.9853,21936
0.9869667,23824
0.9886333,25972
0.9903,28104
0.9919667,29892
0.9936333,31516
0.9953,31396
0.9969667,33184
0.9986333,33504
1.0003,34528
1.001967,36592
1.003633,38496
1.0053,39248
1.006967,39776
1.008633,38256
1.0103,39680
1.011967,40288
1.013633,38208
1.0153,37488
1.016967,37248
1.018633,36384
1.0203,32580
1.021967,30884
1.023633,30192
1.0253,26856
1.026967,24064
1.028633,22284
1.0303,20764
1.031967,17912
1.033633,16232
1.0353,14316
1.036967,13464
1.038633,11980
1.0403,10912
1.041967,9280
1.043633,9464
1.0453,8592
1.046967,8067
1.048633,7284
1.0503,6521
1.051967,7189
1.053633,6336
1.0553,6536
1.056967,6585
1.058633,6380
1.0603,6301
1.061967,7388
1.063633,7180
1.0653,7140
1.066967,7153
1.068633,7626
1.0703,8100
1.071967,9136
1.073633,8660
1.0753,9336
1.076967,9552
1.078633,9948
1.0803,10032
1.081967,11100
1.083633,10816
1.0853,11028
1.086967,11184
1.088633,11336
1.0903,12592
1.091967,12496
1.093633,12192
1.0953,12924
1.096967,12852
1.098633,13348
1.1003,13020
1.101967,11900
1.103633,12756
1.1053,11760
1.106967,11456
1.108633,11140
1.1103,10448
1.111967,10136
1.113633,10624
1.1153,9220
1.116967,9004
1.118633,8268
1.1203,7645
1.121967,6819
1.123633,6513
1.1253,6368
1.126967,5869
1.128633,5665
1.1303,4990
1.131967,4543
1.133633,4303
1.1353,4092
1.136967,3349
1.138633,3344
1.1403,2746
1.141967,2947
1.143633,2840
1.1453,2761
1.146967,2693
1.148633,2341
1.1503,2280
1.151967,2150
1.153633,2193
1.1553,2020
1.156967,2176
1.158633,1735
1.1603,2295
1.161967,1926
1.163633,1784
1.1653,1807
1.166967,1778
1.168633,1765
1.1703,1623
1.171967,1481
1.173633,1373
1.1753,1207
1.176967,1254
1.178633,1279
1.1803,1304
1.181967,1613
1.183633,1653
1.1853,1376
1.186967,1335
1.188633,1523
1.1903,1235
1.191967,1544
1.193633,1656
1.1953,1709
1.196967,1368
1.198633,1799
