"SampleName","A2Rd2_01-50"
"Target Mass 1",
"Column Name","IA-3 (3um, 4.6X100)"
"Channel","QDa 1: SIR Ch1"
0.00195,306
0.003616667,381
0.005283333,453
0.00695,480
0.008616666,470
0.01028333,473
0.01195,444
0.01361667,414
0.01528333,466
0.01695,480
0.01861667,493
0.02028333,542
0.02195,403
0.02361667,457
0.02528333,511
0.02695,512
0.02861667,514
0.03028333,344
0.03195,414
0.03361667,492
0.03528333,400
0.03695,412
0.03861667,596
0.04028333,540
0.04195,504
0.04361667,468
0.04528333,491
0.04695,513
0.04861667,463
0.05028334,436
0.05195,410
0.05361667,426
0.05528333,443
0.05695,469
0.05861667,484
0.06028333,486
0.06195,550
0.06361666,520
0.06528334,489
0.06695,341
0.06861667,452
0.07028333,501
0.07195,365
0.07361667,525
0.07528333,320
0.07695,422
0.07861666,526
0.08028334,410
0.08195,495
0.08361667,356
0.08528333,459
0.08695,465
0.08861667,423
0.09028333,420
0.09195,473
0.09361666,452
0.09528334,431
0.09695,414
0.09861667,460
0.1002833,488
0.10195,474
0.1036167,517
0.1052833,518
0.10695,481
0.1086167,443
0.1102833,442
0.11195,442
0.1136167,530
0.1152833,532
0.11695,470
0.1186167,405
0.1202833,373
0.12195,362
0.1236167,360
0.1252833,357
0.12695,516
0.1286167,434
0.1302833,353
0.13195,344
0.1336167,381
0.1352833,479
0.13695,474
0.1386167,469
0.1402833,479
0.14195,470
0.1436167,286
0.1452833,466
0.14695,426
0.1486167,504
0.1502833,452
0.15195,412
0.1536167,372
0.1552833,372
0.15695,372
0.1586167,526
0.1602833,521
0.16195,558
0.1636167,452
0.1652833,523
0.16695,404
0.1686167,466
0.1702833,529
0.17195,427
0.1736167,414
0.1752833,404
0.17695,359
0.1786167,294
0.1802833,391
0.18195,403
0.1836167,415
0.1852833,483
0.18695,496
0.1886167,508
0.1902833,566
0.19195,542
0.1936167,518
0.1952833,518
0.19695,446
0.1986167,455
0.2002833,426
0.20195,398
0.2036167,403
0.2052833,408
0.20695,380
0.2086167,415
0.2102833,509
0.21195,517
0.2136167,406
0.2152833,461
0.21695,480
0.2186167,491
0.2202833,483
0.22195,475
0.2236167,530
0.2252833,391
0.22695,417
0.2286167,442
0.2302833,477
0.23195,430
0.2336167,382
0.2352833,396
0.23695,501
0.2386167,486
0.2402833,416
0.24195,499
0.2436167,519
0.2452833,361
0.24695,546
0.2486167,401
0.2502833,452
0.25195,491
0.2536167,560
0.2552833,514
0.25695,545
0.2586167,500
0.2602833,486
0.26195,437
0.2636333,428
0.2653,418
0.2669667,434
0.2686167,450
0.2702833,475
0.27195,452
0.2736167,428
0.2752833,460
0.27695,492
0.2786167,474
0.2803,455
0.28195,499
0.2836167,490
0.2852833,478
0.28695,435
0.2886167,462
0.2902833,474
0.29195,453
0.2936167,433
0.2952833,430
0.29695,510
0.2986333,444
0.3002833,378
0.30195,523
0.3036167,515
0.3052833,627
0.30695,500
0.3086167,489
0.3102833,505
0.31195,559
0.3136167,538
0.3153,518
0.3169667,596
0.3186167,453
0.3202833,480
0.32195,601
0.3236167,633
0.3252833,413
0.32695,468
0.3286167,564
0.3302833,582
0.33195,493
0.3336333,363
0.3352833,452
0.33695,453
0.3386167,455
0.3402833,436
0.34195,417
0.3436167,464
0.3453,486
0.3469667,507
0.3486333,483
0.3503,549
0.35195,385
0.3536167,384
0.3552833,482
0.35695,409
0.3586167,585
0.3602833,711
0.3619667,688
0.3636333,661
0.3652833,1076
0.3669667,2075
0.3686333,4281
0.3702833,5696
0.3719667,6918
0.3736167,8832
0.3753,8380
0.37695,8532
0.3786333,7296
0.3803,6356
0.38195,5722
0.3836167,4827
0.3853,4009
0.38695,3719
0.3886333,3276
0.3903,2808
0.3919667,2001
0.3936167,1944
0.3953,1696
0.3969667,1624
0.3986167,1202
0.4002833,1388
0.4019667,1147
0.4036333,1490
0.4053,1504
0.4069667,1421
0.4086167,1361
0.4103,1392
0.4119667,1409
0.4136333,1623
0.4153,1769
0.4169667,1735
0.4186333,1765
0.4203,1796
0.4219667,1818
0.4236333,1713
0.4253,1609
0.4269667,1661
0.4286333,1712
0.4303,1776
0.4319667,1827
0.4336333,2367
0.4353,2892
0.4369667,3672
0.4386333,5371
0.4403,7000
0.4419667,10092
0.4436333,13456
0.4453,18376
0.4469667,24492
0.4486333,33584
0.4503,44368
0.4519667,56368
0.4536333,68048
0.4553,83824
0.4569667,98096
0.4586333,115968
0.4603,134528
0.4619667,153024
0.4636333,175552
0.4653,199296
0.4669667,229184
0.4686333,256192
0.4703,280192
0.4719667,296512
0.4736333,309504
0.4753,309888
0.4769667,292736
0.4786333,271232
0.4803,247744
0.4819667,217344
0.4836333,178496
0.4853,147904
0.4869667,120144
0.4886333,93936
0.4903,71792
0.4919667,54960
0.4936333,42912
0.4953,32976
0.4969667,25420
0.4986333,19020
0.5003,15092
0.5019667,13620
0.5036333,10364
0.5053,9120
0.5069667,7023
0.5086333,7306
0.5103,5796
0.5119666,5636
0.5136333,4964
0.5153,5159
0.5169666,4541
0.5186333,4721
0.5203,3932
0.5219667,3854
0.5236334,3640
0.5253,3344
0.5269667,3503
0.5286334,3172
0.5303,3127
0.5319667,2979
0.5336334,2654
0.5353,2960
0.5369667,2863
0.5386333,2785
0.5403,2854
0.5419667,2185
0.5436333,1948
0.5453,2080
0.5469667,1859
0.5486333,2115
0.5503,1950
0.5519667,2062
0.5536333,1997
0.5553,1947
0.5569667,1984
0.5586333,1803
0.5603,1714
0.5619667,1355
0.5636333,1493
0.5653,1331
0.5669667,1289
0.5686333,1219
0.5703,1325
0.5719666,1430
0.5736333,1456
0.5753,1270
0.5769666,1385
0.5786333,1169
0.5803,1324
0.5819666,1335
0.5836333,1206
0.5853,1234
0.5869667,1171
0.5886334,1141
0.5903,1111
0.5919667,1296
0.5936334,1248
0.5953,1304
0.5969667,1476
0.5986333,1537
0.6003,1361
0.6019667,1472
0.6036333,1653
0.6053,1581
0.6069667,1631
0.6086333,1336
0.6103,1113
0.6119667,1366
0.6136333,1441
0.6153,1228
0.6169667,1341
0.6186333,1238
0.6203,1386
0.6219667,1159
0.6236333,1343
0.6253,1446
0.6269667,1086
0.6286333,1183
0.6303,1244
0.6319667,961
0.6336333,1077
0.6353,1279
0.6369666,1036
0.6386333,910
0.6403,1099
0.6419666,976
0.6436333,875
0.6453,827
0.6469667,684
0.6486334,737
0.6503,790
0.6519667,886
0.6536334,856
0.6553,862
0.6569667,671
0.6586334,691
0.6603,811
0.6619667,863
0.6636333,753
0.6653,643
0.6669667,674
0.6686333,784
0.6703,683
0.6719667,833
0.6736333,861
0.6753,742
0.6769667,685
0.6786333,692
0.6803,595
0.6819667,779
0.6836333,741
0.6853,703
0.6869667,694
0.6886333,679
0.6903,753
0.6919667,699
0.6936333,645
0.6953,648
0.6969666,650
0.6986333,648
0.7003,625
0.7019666,602
0.7036333,626
0.7053,624
0.7069666,555
0.7086333,487
0.7103,644
0.7119667,621
0.7136334,598
0.7153,586
0.7169667,574
0.7186334,637
0.7203,673
0.7219667,529
0.7236333,752
0.7253,680
0.7269667,670
0.7286333,539
0.7303,695
0.7319667,513
0.7336333,570
0.7353,628
0.7369667,626
0.7386333,624
0.7403,650
0.7419667,639
0.7436333,628
0.7453,607
0.7469667,585
0.7486333,579
0.7503,573
0.7519667,543
0.7536333,513
0.7553,681
0.7569667,725
0.7586333,616
0.7603,664
0.7619666,712
0.7636333,579
0.7653,576
0.7669666,607
0.7686333,654
0.7703,659
0.7719667,621
0.7736334,563
0.7753,558
0.7769667,602
0.7786334,622
0.7803,607
0.7819667,596
0.7836334,587
0.7853,579
0.7869667,417
0.7886333,639
0.7903,520
0.7919667,526
0.7936333,533
0.7953,557
0.7969667,581
0.7986333,554
0.8003,528
0.8019667,568
0.8036333,416
0.8053,450
0.8069667,577
0.8086333,592
0.8103,558
0.8119667,620
0.8136333,681
0.8153,672
0.8169667,615
0.8186333,477
0.8203,552
0.8219666,550
0.8236333,566
0.8253,543
0.8269666,521
0.8286333,526
0.8303,531
0.8319666,572
0.8336333,614
0.8353,611
0.8369667,618
0.8386334,614
0.8403,611
0.8419667,567
0.8436334,508
0.8453,553
0.8469667,686
0.8486333,720
0.8503,719
0.8519667,675
0.8536333,632
0.8553,511
0.8569667,612
0.8586333,492
0.8603,535
0.8619667,578
0.8636333,611
0.8653,500
0.8669667,522
0.8686333,296
0.8703,617
0.8719667,468
0.8736333,556
0.8753,493
0.8769667,559
0.8786333,602
0.8803,645
0.8819667,797
0.8836333,1176
0.8853,1469
0.8869666,1879
0.8886333,1850
0.8903,1942
0.8919666,2182
0.8936333,2347
0.8953,2429
0.8969667,2384
0.8986334,2425
0.9003,2205
0.9019667,2630
0.9036334,2623
0.9053,2568
0.9069667,2413
0.9086334,2210
0.9103,2452
0.9119667,2433
0.9136333,2414
0.9153,2389
0.9169667,2365
0.9186333,2383
0.9203,2298
0.9219667,2557
0.9236333,2608
0.9253,2648
0.9269667,2548
0.9286333,2474
0.9303,2644
0.9319667,2282
0.9336333,2355
0.9353,2373
0.9369667,2183
0.9386333,2236
0.9403,2247
0.9419667,2180
0.9436333,2102
0.9453,2119
0.9469666,1993
0.9486333,1827
0.9503,2235
0.9519666,1731
0.9536333,1605
0.9553,1352
0.9569666,1676
0.9586333,1568
0.9603,1308
0.9619667,1671
0.9636334,1310
0.9653,1166
0.9669667,1129
0.9686334,1119
0.9703,1152
0.9719667,975
0.9736333,923
0.9753,757
0.9769667,804
0.9786333,746
0.9803,732
0.9819667,621
0.9836333,602
0.9853,579
0.9869667,574
0.9886333,535
0.9903,496
0.9919667,553
0.9936333,476
0.9953,473
0.9969667,499
0.9986333,482
1.0003,466
1.001967,501
1.003633,523
1.0053,555
1.006967,400
1.008633,487
1.0103,445
1.011967,499
1.013633,441
1.0153,382
1.016967,450
1.018633,530
1.0203,552
1.021967,400
1.023633,446
1.0253,562
1.026967,539
1.028633,536
1.0303,522
1.031967,507
1.033633,487
1.0353,551
1.036967,400
1.038633,533
1.0403,374
1.041967,503
1.043633,608
1.0453,526
1.046967,420
1.048633,532
1.0503,575
1.051967,501
1.053633,578
1.0553,535
1.056967,338
1.058633,671
1.0603,487
1.061967,423
1.063633,483
1.0653,397
1.066967,484
1.068633,508
1.0703,531
1.071967,575
1.073633,391
1.0753,535
1.076967,596
1.078633,602
1.0803,602
1.081967,529
1.083633,644
1.0853,500
1.086967,410
1.088633,570
1.0903,543
1.091967,499
1.093633,598
1.0953,589
1.096967,598
1.098633,467
1.1003,423
1.101967,564
1.103633,462
1.1053,627
1.106967,536
1.108633,556
1.1103,441
1.111967,543
1.113633,578
1.1153,638
1.116967,610
1.118633,596
1.1203,595
1.121967,546
1.123633,506
1.1253,416
1.126967,532
1.128633,512
1.1303,492
1.131967,473
1.133633,475
1.1353,481
1.136967,488
1.138633,504
1.1403,426
1.141967,454
1.143633,482
1.1453,498
1.146967,515
1.148633,536
1.1503,541
1.151967,624
1.153633,638
1.1553,515
1.156967,519
1.158633,634
1.1603,532
1.161967,618
1.163633,575
1.1653,559
1.166967,589
1.168633,499
1.1703,484
1.171967,469
1.173633,438
1.1753,507
1.176967,518
1.178633,529
1.1803,553
1.181967,523
1.183633,492
1.1853,532
1.186967,547
1.188633,562
1.1903,639
1.191967,715
1.193633,668
1.1953,419
1.196967,506
1.198633,614
