"SampleName","A2Rd2_01-37"
"Target Mass 1",
"Column Name","IA-3 (3um, 4.6X100)"
"Channel","QDa 1: SIR Ch1"
0.00195,379
0.003616667,513
0.005283333,547
0.00695,538
0.008616666,580
0.01028333,649
0.01195,627
0.01361667,605
0.01528333,532
0.01695,444
0.01861667,545
0.02028333,555
0.02195,620
0.02361667,461
0.02528333,534
0.02695,582
0.02861667,571
0.03028333,650
0.03195,464
0.03361667,466
0.03528333,628
0.03695,468
0.03861667,617
0.04028333,454
0.04195,599
0.04361667,578
0.04528333,492
0.04695,631
0.04861667,588
0.05028334,413
0.05195,589
0.05361667,554
0.05528333,480
0.05695,513
0.05861667,424
0.06028333,559
0.06195,528
0.06361666,497
0.06528334,482
0.06695,496
0.06861667,511
0.07028333,471
0.07195,533
0.07361667,525
0.07528333,623
0.07695,640
0.07861666,418
0.08028334,526
0.08195,581
0.08361667,550
0.08528333,453
0.08695,522
0.08861667,492
0.09028333,562
0.09195,528
0.09361666,567
0.09528334,494
0.09695,524
0.09861667,553
0.1002833,474
0.10195,471
0.1036167,468
0.1052833,453
0.10695,439
0.1086167,425
0.1102833,443
0.11195,461
0.1136167,484
0.1152833,507
0.11695,492
0.1186167,502
0.1202833,512
0.12195,506
0.1236167,501
0.1252833,395
0.12695,488
0.1286167,422
0.1302833,520
0.13195,470
0.1336167,537
0.1352833,542
0.13695,547
0.1386167,517
0.1402833,370
0.14195,447
0.1436167,493
0.1452833,392
0.14695,483
0.1486167,451
0.1502833,428
0.15195,456
0.1536167,484
0.1552833,486
0.15695,460
0.1586167,434
0.1602833,531
0.16195,597
0.1636167,571
0.1652833,491
0.16695,520
0.1686167,451
0.1702833,430
0.17195,409
0.1736167,443
0.1752833,517
0.17695,516
0.1786167,515
0.1802833,520
0.18195,490
0.1836167,461
0.1852833,540
0.18695,534
0.1886167,472
0.1902833,428
0.19195,512
0.1936167,324
0.1952833,407
0.19695,577
0.1986167,518
0.2002833,628
0.20195,583
0.2036167,470
0.2052833,491
0.20695,593
0.2086167,576
0.2102833,540
0.21195,539
0.2136167,525
0.2152833,512
0.2169667,399
0.2186167,475
0.2202833,551
0.22195,455
0.2236167,539
0.2252833,463
0.22695,408
0.2286167,572
0.2302833,488
0.23195,515
0.2336167,442
0.2352833,505
0.23695,499
0.2386167,487
0.2402833,345
0.24195,501
0.2436167,561
0.2453,477
0.24695,652
0.2486167,617
0.2502833,587
0.25195,452
0.2536167,586
0.2553,464
0.25695,462
0.2586167,583
0.2602833,475
0.26195,462
0.2636333,454
0.2652833,461
0.26695,468
0.2686167,429
0.2703,523
0.27195,497
0.2736167,470
0.2752833,516
0.27695,449
0.2786167,531
0.2803,518
0.28195,504
0.2836167,383
0.2852833,603
0.28695,601
0.2886167,473
0.2902833,526
0.29195,497
0.2936167,469
0.2952833,507
0.29695,546
0.2986333,540
0.3002833,535
0.30195,535
0.3036167,535
0.3052833,584
0.30695,624
0.3086167,631
0.3102833,504
0.31195,510
0.3136167,433
0.3153,531
0.31695,531
0.3186167,498
0.3203,464
0.32195,626
0.3236167,629
0.3252833,632
0.32695,560
0.3286167,580
0.3303,513
0.3319667,533
0.3336333,564
0.3352833,586
0.3369667,645
0.3386333,469
0.3403,524
0.34195,546
0.3436333,510
0.3452833,473
0.34695,499
0.3486333,525
0.3503,548
0.35195,551
0.3536333,383
0.3552833,512
0.3569667,559
0.3586167,643
0.3602833,740
0.36195,790
0.3636167,892
0.3653,1353
0.36695,2800
0.3686333,5395
0.3703,8150
0.3719667,10376
0.3736333,10704
0.3753,10360
0.3769667,10424
0.3786333,8992
0.3803,7097
0.3819667,5598
0.3836333,5241
0.3853,4037
0.3869667,3332
0.3886333,2663
0.3903,2071
0.3919667,1799
0.3936333,1412
0.3953,1085
0.3969667,1101
0.3986333,936
0.4003,1028
0.4019667,1251
0.4036333,1227
0.4053,1336
0.4069667,1066
0.4086333,1142
0.4103,1218
0.4119667,1183
0.4136333,1147
0.4153,1132
0.4169667,1003
0.4186333,1068
0.4203,1133
0.4219667,1043
0.4236333,1081
0.4253,1118
0.4269667,965
0.4286333,965
0.4303,818
0.4319667,939
0.4336333,1054
0.4353,1142
0.4369667,1267
0.4386333,2250
0.4403,2931
0.4419667,4462
0.4436333,7092
0.4453,9100
0.4469667,13076
0.4486333,18028
0.4503,26212
0.4519667,36816
0.4536333,46944
0.4553,60224
0.4569667,76880
0.4586333,94352
0.4603,114256
0.4619667,137024
0.4636333,164352
0.4653,190848
0.4669667,221696
0.4686333,253568
0.4703,272640
0.4719667,290880
0.4736333,296704
0.4753,295232
0.4769667,277888
0.4786333,255872
0.4803,223936
0.4819667,188032
0.4836333,157184
0.4853,126848
0.4869667,99872
0.4886333,74672
0.4903,57040
0.4919667,44224
0.4936333,33344
0.4953,25692
0.4969667,20104
0.4986333,16704
0.5003,13672
0.5019667,12356
0.5036333,10444
0.5053,9128
0.5069667,7885
0.5086333,7149
0.5103,6105
0.5119666,5621
0.5136333,5314
0.5153,5045
0.5169666,4848
0.5186333,4104
0.5203,3898
0.5219667,3673
0.5236334,3733
0.5253,3324
0.5269667,3262
0.5286334,3552
0.5303,2911
0.5319667,3101
0.5336334,2788
0.5353,2714
0.5369667,2749
0.5386333,2170
0.5403,2464
0.5419667,2403
0.5436333,2213
0.5453,2125
0.5469667,2196
0.5486333,2106
0.5503,1919
0.5519667,1540
0.5536333,1725
0.5553,1832
0.5569667,1626
0.5586333,1763
0.5603,1200
0.5619667,1573
0.5636333,1581
0.5653,1466
0.5669667,1583
0.5686333,1440
0.5703,1438
0.5719666,1636
0.5736333,1662
0.5753,1188
0.5769666,1119
0.5786333,1334
0.5803,1200
0.5819666,1403
0.5836333,1137
0.5853,1172
0.5869667,1215
0.5886334,1140
0.5903,1181
0.5919667,1233
0.5936334,1096
0.5953,1176
0.5969667,1263
0.5986333,1258
0.6003,1188
0.6019667,1109
0.6036333,1363
0.6053,1333
0.6069667,1281
0.6086333,1243
0.6103,1274
0.6119667,1308
0.6136333,1214
0.6153,1083
0.6169667,1213
0.6186333,1222
0.6203,1110
0.6219667,1110
0.6236333,1117
0.6253,998
0.6269667,1228
0.6286333,846
0.6303,1122
0.6319667,952
0.6336333,732
0.6353,1050
0.6369666,788
0.6386333,824
0.6403,809
0.6419666,975
0.6436333,969
0.6453,958
0.6469667,930
0.6486334,769
0.6503,994
0.6519667,921
0.6536334,907
0.6553,863
0.6569667,687
0.6586334,804
0.6603,892
0.6619667,821
0.6636333,786
0.6653,751
0.6669667,897
0.6686333,622
0.6703,777
0.6719667,914
0.6736333,755
0.6753,668
0.6769667,748
0.6786333,569
0.6803,738
0.6819667,854
0.6836333,952
0.6853,815
0.6869667,785
0.6886333,721
0.6903,603
0.6919667,782
0.6936333,615
0.6953,611
0.6969666,631
0.6986333,671
0.7003,710
0.7019666,565
0.7036333,765
0.7053,864
0.7069666,732
0.7086333,774
0.7103,777
0.7119667,638
0.7136334,615
0.7153,613
0.7169667,557
0.7186334,666
0.7203,685
0.7219667,588
0.7236333,646
0.7253,704
0.7269667,674
0.7286333,740
0.7303,748
0.7319667,754
0.7336333,601
0.7353,603
0.7369667,722
0.7386333,552
0.7403,752
0.7419667,573
0.7436333,748
0.7453,604
0.7469667,704
0.7486333,709
0.7503,716
0.7519667,701
0.7536333,736
0.7553,727
0.7569667,698
0.7586333,677
0.7603,736
0.7619666,693
0.7636333,654
0.7653,740
0.7669666,724
0.7686333,708
0.7703,639
0.7719667,606
0.7736334,769
0.7753,755
0.7769667,940
0.7786334,836
0.7803,683
0.7819667,718
0.7836334,546
0.7853,675
0.7869667,728
0.7886333,655
0.7903,650
0.7919667,714
0.7936333,773
0.7953,457
0.7969667,698
0.7986333,707
0.8003,648
0.8019667,561
0.8036333,731
0.8053,603
0.8069667,696
0.8086333,650
0.8103,712
0.8119667,737
0.8136333,763
0.8153,599
0.8169667,558
0.8186333,639
0.8203,709
0.8219666,703
0.8236333,698
0.8253,698
0.8269666,660
0.8286333,711
0.8303,761
0.8319666,767
0.8336333,692
0.8353,705
0.8369667,704
0.8386334,704
0.8403,778
0.8419667,792
0.8436334,744
0.8453,850
0.8469667,672
0.8486333,832
0.8503,744
0.8519667,994
0.8536333,961
0.8553,698
0.8569667,916
0.8586333,855
0.8603,764
0.8619667,808
0.8636333,804
0.8653,783
0.8669667,668
0.8686333,552
0.8703,726
0.8719667,542
0.8736333,579
0.8753,859
0.8769667,996
0.8786333,1363
0.8803,1548
0.8819667,1891
0.8836333,2452
0.8853,2704
0.8869666,3081
0.8886333,3419
0.8903,3204
0.8919666,3365
0.8936333,3600
0.8953,3067
0.8969667,3446
0.8986334,3479
0.9003,3391
0.9019667,3302
0.9036334,3279
0.9053,3552
0.9069667,2929
0.9086334,3144
0.9103,3085
0.9119667,3293
0.9136333,3314
0.9153,3216
0.9169667,3118
0.9186333,3197
0.9203,3176
0.9219667,3156
0.9236333,3115
0.9253,3394
0.9269667,3462
0.9286333,3028
0.9303,3486
0.9319667,3129
0.9336333,3274
0.9353,2918
0.9369667,2953
0.9386333,3052
0.9403,3062
0.9419667,2786
0.9436333,2845
0.9453,2962
0.9469666,2591
0.9486333,2658
0.9503,2542
0.9519666,2442
0.9536333,2038
0.9553,2225
0.9569666,2107
0.9586333,2177
0.9603,1781
0.9619667,1434
0.9636334,1606
0.9653,1340
0.9669667,1392
0.9686334,1519
0.9703,1043
0.9719667,1192
0.9736333,954
0.9753,1057
0.9769667,1007
0.9786333,794
0.9803,706
0.9819667,799
0.9836333,815
0.9853,675
0.9869667,547
0.9886333,781
0.9903,740
0.9919667,861
0.9936333,533
0.9953,780
0.9969667,701
0.9986333,562
1.0003,682
1.001967,524
1.003633,498
1.0053,505
1.006967,591
1.008633,551
1.0103,512
1.011967,621
1.013633,592
1.0153,571
1.016967,568
1.018633,598
1.0203,522
1.021967,709
1.023633,659
1.0253,661
1.026967,731
1.028633,624
1.0303,621
1.031967,486
1.033633,779
1.0353,690
1.036967,609
1.038633,677
1.0403,526
1.041967,508
1.043633,609
1.0453,548
1.046967,487
1.048633,607
1.0503,490
1.051967,550
1.053633,546
1.0553,542
1.056967,515
1.058633,646
1.0603,754
1.061967,796
1.063633,541
1.0653,642
1.066967,559
1.068633,705
1.0703,681
1.071967,657
1.073633,673
1.0753,560
1.076967,767
1.078633,759
1.0803,542
1.081967,618
1.083633,794
1.0853,723
1.086967,737
1.088633,678
1.0903,694
1.091967,707
1.093633,580
1.0953,567
1.096967,699
1.098633,709
1.1003,722
1.101967,679
1.103633,636
1.1053,748
1.106967,515
1.108633,771
1.1103,662
1.111967,766
1.113633,679
1.1153,687
1.116967,646
1.118633,664
1.1203,682
1.121967,673
1.123633,664
1.1253,695
1.126967,811
1.128633,795
1.1303,607
1.131967,547
1.133633,523
1.1353,585
1.136967,648
1.138633,709
1.1403,793
1.141967,763
1.143633,633
1.1453,643
1.146967,649
1.148633,614
1.1503,579
1.151967,606
1.153633,593
1.1553,580
1.156967,586
1.158633,591
1.1603,606
1.161967,732
1.163633,722
1.1653,732
1.166967,709
1.168633,686
1.1703,774
1.171967,759
1.173633,720
1.1753,785
1.176967,821
1.178633,794
1.1803,767
1.181967,856
1.183633,587
1.1853,779
1.186967,617
1.188633,737
1.1903,784
1.191967,768
1.193633,797
1.1953,792
1.196967,788
1.198633,775
