"SampleName","A2Rd2_01-28"
"Target Mass 1",
"Column Name","IA-3 (3um, 4.6X100)"
"Channel","QDa 1: SIR Ch1"
0.00195,392
0.003616667,502
0.005283333,618
0.00695,610
0.008616666,603
0.01028333,631
0.01195,600
0.01361667,568
0.01528333,772
0.01695,725
0.01861667,604
0.02028333,808
0.02195,702
0.02361667,531
0.02528333,754
0.02695,598
0.02861667,522
0.03028333,633
0.03195,601
0.03361667,569
0.03528333,712
0.03695,714
0.03861667,715
0.04028333,605
0.04195,575
0.04361667,573
0.04528333,621
0.04695,628
0.04861667,580
0.05028334,532
0.05195,666
0.05361667,714
0.05528333,440
0.05695,630
0.05861667,737
0.06028333,739
0.06195,689
0.06361666,594
0.06528334,614
0.06695,615
0.06861667,615
0.07028333,512
0.07195,632
0.07361667,551
0.07528333,464
0.07695,496
0.07861666,528
0.08028334,522
0.08195,517
0.08361667,536
0.08528333,504
0.08695,472
0.08861667,637
0.09028333,618
0.09195,577
0.09361666,584
0.09528334,599
0.09695,596
0.09861667,593
0.1002833,534
0.10195,604
0.1036167,600
0.1052833,584
0.10695,568
0.1086167,552
0.1102833,535
0.11195,465
0.1136167,449
0.1152833,433
0.11695,605
0.1186167,598
0.1202833,574
0.12195,668
0.1236167,761
0.1252833,410
0.12695,534
0.1286167,635
0.1302833,636
0.13195,570
0.1336167,504
0.1352833,668
0.13695,579
0.1386167,573
0.1402833,584
0.14195,545
0.1436167,650
0.1452833,665
0.14695,517
0.1486167,553
0.1502833,482
0.15195,566
0.1536167,561
0.1552833,555
0.15695,493
0.1586167,519
0.1602833,576
0.16195,514
0.1636167,534
0.1652833,554
0.16695,488
0.1686167,528
0.1702833,546
0.17195,580
0.1736167,614
0.1752833,579
0.17695,421
0.1786167,652
0.1802833,589
0.18195,584
0.1836167,634
0.1852833,594
0.18695,644
0.1886167,590
0.1902833,481
0.19195,379
0.1936167,595
0.1952833,615
0.19695,549
0.1986167,621
0.2002833,425
0.20195,507
0.2036167,588
0.2052833,476
0.20695,539
0.2086167,602
0.2102833,513
0.21195,517
0.2136167,527
0.2152833,549
0.21695,546
0.2186167,543
0.2202833,584
0.22195,494
0.2236167,501
0.2252833,530
0.22695,605
0.2286167,601
0.2302833,681
0.23195,692
0.2336167,522
0.2352833,707
0.23695,579
0.2386167,531
0.2402833,696
0.24195,585
0.2436167,489
0.2452833,679
0.24695,694
0.2486167,756
0.2502833,508
0.25195,654
0.2536167,600
0.2552833,582
0.25695,580
0.2586167,616
0.2602833,636
0.26195,539
0.2636167,582
0.2652833,671
0.26695,516
0.2686167,602
0.2702833,635
0.27195,693
0.2736167,511
0.2752833,571
0.27695,589
0.2786167,572
0.2803,554
0.28195,528
0.2836167,559
0.2852833,590
0.28695,620
0.2886167,748
0.2902833,730
0.29195,521
0.2936167,521
0.2952833,758
0.29695,718
0.2986333,628
0.3002833,727
0.30195,670
0.3036333,635
0.3052833,669
0.30695,651
0.3086167,634
0.3102833,617
0.31195,584
0.3136167,674
0.3153,675
0.31695,697
0.3186167,710
0.3203,600
0.32195,675
0.3236167,519
0.3252833,527
0.32695,680
0.3286167,568
0.3302833,719
0.33195,739
0.3336333,582
0.3353,597
0.33695,599
0.3386333,590
0.3403,658
0.34195,680
0.3436167,624
0.3452833,495
0.34695,564
0.3486333,487
0.3503,633
0.35195,617
0.3536333,631
0.3552833,699
0.3569667,455
0.3586167,661
0.3602833,820
0.36195,697
0.3636167,1229
0.3653,2509
0.36695,5080
0.3686333,6362
0.3703,7285
0.37195,6798
0.3736333,6838
0.3752833,5385
0.37695,4403
0.3786167,3393
0.3802833,3082
0.3819667,2558
0.3836333,1935
0.3853,1878
0.3869667,1364
0.3886333,1386
0.3903,1408
0.3919667,1503
0.3936167,1232
0.3952833,1482
0.39695,1584
0.3986333,1643
0.4002833,1860
0.4019667,2388
0.4036333,2619
0.4053,2376
0.4069667,2604
0.4086333,2415
0.4103,2349
0.41195,2574
0.4136167,2435
0.4153,2287
0.4169667,2388
0.4186333,2290
0.4203,1931
0.4219667,2003
0.4236333,2001
0.4253,1716
0.4269667,1669
0.4286333,1613
0.4303,1769
0.4319667,1550
0.4336333,1620
0.4353,1846
0.4369667,2426
0.4386333,3186
0.4403,4411
0.4419667,5922
0.4436333,8964
0.4453,11192
0.4469667,14992
0.4486333,19892
0.4503,27784
0.4519667,37504
0.4536333,52560
0.4553,72592
0.4569667,98240
0.4586333,129808
0.4603,169152
0.4619667,208960
0.4636333,255936
0.4653,301888
0.4669667,342912
0.4686333,373312
0.4703,387776
0.4719667,382976
0.4736333,373248
0.4753,341184
0.4769667,304128
0.4786333,255168
0.4803,214272
0.4819667,170752
0.4836333,133888
0.4853,108160
0.4869667,83136
0.4886333,65872
0.4903,51824
0.4919667,40592
0.4936333,32236
0.4953,25912
0.4969667,22668
0.4986333,17688
0.5003,15168
0.5019667,13864
0.5036333,11640
0.5053,10884
0.5069667,9452
0.5086333,8668
0.5103,7212
0.5119666,6613
0.5136333,6012
0.5153,5853
0.5169666,5216
0.5186333,4638
0.5203,5080
0.5219667,4936
0.5236334,4576
0.5253,4500
0.5269667,3834
0.5286334,4181
0.5303,3565
0.5319667,4113
0.5336334,3799
0.5353,3609
0.5369667,3186
0.5386333,3204
0.5403,3285
0.5419667,3355
0.5436333,2867
0.5453,2768
0.5469667,2717
0.5486333,2713
0.5503,2760
0.5519667,2425
0.5536333,2895
0.5553,2798
0.5569667,2394
0.5586333,2310
0.5603,2288
0.5619667,2335
0.5636333,2270
0.5653,2206
0.5669667,2263
0.5686333,2134
0.5703,1763
0.5719666,2026
0.5736333,1988
0.5753,1958
0.5769666,2134
0.5786333,2131
0.5803,1822
0.5819666,2150
0.5836333,1898
0.5853,2236
0.5869667,2045
0.5886334,2023
0.5903,1853
0.5919667,1683
0.5936334,1997
0.5953,2155
0.5969667,2112
0.5986333,1928
0.6003,1857
0.6019667,2213
0.6036333,1713
0.6053,1904
0.6069667,1760
0.6086333,1988
0.6103,1866
0.6119667,1743
0.6136333,1896
0.6153,1873
0.6169667,1711
0.6186333,1790
0.6203,1386
0.6219667,1962
0.6236333,1681
0.6253,1421
0.6269667,1777
0.6286333,1447
0.6303,1214
0.6319667,1633
0.6336333,1486
0.6353,1453
0.6369666,1482
0.6386333,1385
0.6403,1428
0.6419666,1168
0.6436333,1246
0.6453,1309
0.6469667,1410
0.6486334,1386
0.6503,1129
0.6519667,1152
0.6536334,1465
0.6553,1046
0.6569667,1139
0.6586334,1294
0.6603,1012
0.6619667,1414
0.6636333,1372
0.6653,1367
0.6669667,1247
0.6686333,1126
0.6703,1201
0.6719667,953
0.6736333,1218
0.6753,933
0.6769667,977
0.6786333,1021
0.6803,1270
0.6819667,1214
0.6836333,1121
0.6853,1130
0.6869667,1052
0.6886333,1068
0.6903,938
0.6919667,1073
0.6936333,1034
0.6953,995
0.6969666,1105
0.6986333,997
0.7003,927
0.7019666,809
0.7036333,892
0.7053,975
0.7069666,977
0.7086333,962
0.7103,946
0.7119667,1040
0.7136334,1060
0.7153,918
0.7169667,958
0.7186334,979
0.7203,1000
0.7219667,993
0.7236333,1096
0.7253,979
0.7269667,863
0.7286333,834
0.7303,892
0.7319667,950
0.7336333,938
0.7353,926
0.7369667,983
0.7386333,1028
0.7403,828
0.7419667,1112
0.7436333,1001
0.7453,1144
0.7469667,928
0.7486333,1162
0.7503,986
0.7519667,1131
0.7536333,1148
0.7553,1067
0.7569667,838
0.7586333,893
0.7603,854
0.7619666,863
0.7636333,873
0.7653,769
0.7669666,834
0.7686333,898
0.7703,905
0.7719667,911
0.7736334,936
0.7753,961
0.7769667,857
0.7786334,824
0.7803,1037
0.7819667,950
0.7836334,863
0.7853,893
0.7869667,970
0.7886333,1028
0.7903,1002
0.7919667,998
0.7936333,1097
0.7953,880
0.7969667,915
0.7986333,926
0.8003,909
0.8019667,892
0.8036333,944
0.8053,996
0.8069667,998
0.8086333,1064
0.8103,863
0.8119667,922
0.8136333,981
0.8153,1039
0.8169667,1051
0.8186333,1011
0.8203,876
0.8219666,798
0.8236333,828
0.8253,995
0.8269666,966
0.8286333,923
0.8303,979
0.8319666,829
0.8336333,1047
0.8353,1005
0.8369667,931
0.8386334,772
0.8403,770
0.8419667,855
0.8436334,803
0.8453,751
0.8469667,834
0.8486333,916
0.8503,1018
0.8519667,1057
0.8536333,831
0.8553,838
0.8569667,1011
0.8586333,725
0.8603,879
0.8619667,1022
0.8636333,1150
0.8653,1298
0.8669667,1778
0.8686333,2347
0.8703,2865
0.8719667,2989
0.8736333,3602
0.8753,3881
0.8769667,4309
0.8786333,3515
0.8803,3812
0.8819667,4053
0.8836333,3533
0.8853,4038
0.8869666,3370
0.8886333,3348
0.8903,3627
0.8919666,3415
0.8936333,3395
0.8953,3374
0.8969667,3417
0.8986334,3439
0.9003,3528
0.9019667,3618
0.9036334,3769
0.9053,3651
0.9069667,3534
0.9086334,3681
0.9103,3763
0.9119667,3663
0.9136333,3563
0.9153,3720
0.9169667,3764
0.9186333,3555
0.9203,3562
0.9219667,3570
0.9236333,3624
0.9253,3361
0.9269667,3401
0.9286333,2987
0.9303,3133
0.9319667,2940
0.9336333,3123
0.9353,2859
0.9369667,2843
0.9386333,2656
0.9403,2851
0.9419667,2397
0.9436333,2250
0.9453,2093
0.9469666,2303
0.9486333,2042
0.9503,2308
0.9519666,1630
0.9536333,1953
0.9553,1888
0.9569666,1700
0.9586333,1535
0.9603,1278
0.9619667,1496
0.9636334,1359
0.9653,1074
0.9669667,958
0.9686334,987
0.9703,1031
0.9719667,1076
0.9736333,711
0.9753,970
0.9769667,870
0.9786333,709
0.9803,902
0.9819667,797
0.9836333,789
0.9853,633
0.9869667,818
0.9886333,663
0.9903,721
0.9919667,725
0.9936333,627
0.9953,600
0.9969667,600
0.9986333,678
1.0003,760
1.001967,763
1.003633,609
1.0053,778
1.006967,773
1.008633,590
1.0103,820
1.011967,643
1.013633,706
1.0153,593
1.016967,653
1.018633,714
1.0203,789
1.021967,752
1.023633,629
1.0253,734
1.026967,632
1.028633,756
1.0303,612
1.031967,674
1.033633,730
1.0353,628
1.036967,610
1.038633,702
1.0403,641
1.041967,649
1.043633,666
1.0453,665
1.046967,665
1.048633,686
1.0503,707
1.051967,607
1.053633,716
1.0553,755
1.056967,683
1.058633,562
1.0603,675
1.061967,629
1.063633,624
1.0653,618
1.066967,658
1.068633,697
1.0703,711
1.071967,706
1.073633,624
1.0753,537
1.076967,663
1.078633,672
1.0803,576
1.081967,664
1.083633,704
1.0853,667
1.086967,630
1.088633,665
1.0903,700
1.091967,653
1.093633,607
1.0953,620
1.096967,671
1.098633,633
1.1003,594
1.101967,728
1.103633,692
1.1053,620
1.106967,730
1.108633,687
1.1103,750
1.111967,648
1.113633,457
1.1153,689
1.116967,714
1.118633,692
1.1203,842
1.121967,523
1.123633,695
1.1253,821
1.126967,831
1.128633,561
1.1303,722
1.131967,717
1.133633,708
1.1353,686
1.136967,680
1.138633,674
1.1403,668
1.141967,663
1.143633,639
1.1453,667
1.146967,649
1.148633,631
1.1503,538
1.151967,609
1.153633,714
1.1553,659
1.156967,644
1.158633,737
1.1603,726
1.161967,715
1.163633,779
1.1653,595
1.166967,849
1.168633,883
1.1703,696
1.171967,623
1.173633,747
1.1753,604
1.176967,652
1.178633,699
1.1803,759
1.181967,701
1.183633,617
1.1853,587
1.186967,663
1.188633,775
1.1903,773
1.191967,634
1.193633,764
1.1953,790
1.196967,838
1.198633,651
