"SampleName","A2Rd2_01-25"
"Target Mass 1",
"Column Name","IA-3 (3um, 4.6X100)"
"Channel","QDa 1: SIR Ch2"
0.00195,370
0.003616667,692
0.005283333,638
0.00695,565
0.008616666,903
0.01028333,954
0.01195,992
0.01361667,971
0.01528333,951
0.01695,971
0.01861667,952
0.02028333,933
0.02195,936
0.02361667,913
0.02528333,753
0.02695,800
0.02861667,847
0.03028333,794
0.03195,741
0.03361667,817
0.03528333,894
0.03695,929
0.03861667,1025
0.04028333,1007
0.04195,873
0.04361667,847
0.04528333,1038
0.04695,1017
0.04861667,1098
0.05028334,894
0.05195,896
0.05361667,808
0.05528333,862
0.05695,867
0.05861667,871
0.06028333,955
0.06195,1040
0.06361666,966
0.06528334,892
0.06695,976
0.06861667,1000
0.07028333,1046
0.07195,820
0.07361667,1016
0.07528333,988
0.07695,887
0.07861666,1019
0.08028334,998
0.08195,992
0.08361667,927
0.08528333,897
0.08695,948
0.08861667,887
0.09028333,912
0.09195,937
0.09361666,980
0.09528334,816
0.09695,948
0.09861667,651
0.1002833,810
0.10195,866
0.1036167,775
0.1052833,810
0.10695,822
0.1086167,857
0.1102833,1026
0.11195,1015
0.1136167,707
0.1152833,756
0.11695,864
0.1186167,887
0.1202833,849
0.12195,714
0.1236167,768
0.1252833,584
0.12695,975
0.1286167,918
0.1302833,802
0.13195,914
0.1336167,970
0.1352833,895
0.13695,778
0.1386167,858
0.1402833,921
0.14195,846
0.1436167,736
0.1452833,795
0.14695,796
0.1486167,796
0.1502833,752
0.15195,769
0.1536167,748
0.1552833,726
0.15695,875
0.1586167,829
0.1602833,782
0.16195,843
0.1636167,909
0.1652833,905
0.16695,939
0.1686167,818
0.1702833,847
0.17195,698
0.1736167,818
0.1752833,927
0.17695,949
0.1786167,1019
0.1802833,745
0.18195,986
0.1836167,791
0.1852833,946
0.18695,655
0.1886167,834
0.1902833,766
0.19195,882
0.1936167,949
0.1952833,905
0.19695,922
0.1986167,814
0.2002833,830
0.20195,846
0.2036167,842
0.2052833,837
0.20695,888
0.2086167,874
0.2102833,859
0.21195,866
0.2136167,872
0.2152833,837
0.21695,909
0.2186167,982
0.2202833,989
0.22195,997
0.2236167,984
0.2252833,971
0.22695,1029
0.2286167,1086
0.2302833,1270
0.23195,1215
0.2336167,1121
0.2352833,1299
0.23695,1248
0.2386167,1336
0.2402833,1322
0.24195,1307
0.2436167,1164
0.2453,1032
0.24695,1249
0.2486167,1283
0.2502833,1017
0.25195,1041
0.2536167,1205
0.2552833,1183
0.25695,1321
0.2586167,1299
0.2602833,1099
0.26195,946
0.2636333,1297
0.2652833,1131
0.26695,1146
0.2686167,1215
0.2702833,1277
0.27195,1259
0.2736167,1214
0.2752833,1086
0.27695,1134
0.2786167,919
0.2803,1030
0.28195,997
0.2836167,1028
0.2852833,1131
0.28695,1249
0.2886167,1226
0.2902833,1265
0.29195,1043
0.2936167,1078
0.2952833,940
0.29695,1146
0.2986333,935
0.3002833,1113
0.30195,878
0.3036167,1280
0.3052833,1158
0.30695,1164
0.3086167,1112
0.3102833,1202
0.31195,1069
0.3136167,1163
0.3153,1013
0.31695,1175
0.3186167,1119
0.3202833,1063
0.32195,1162
0.3236167,1155
0.3252833,1148
0.3269667,1241
0.3286333,1238
0.3303,1236
0.33195,1263
0.3336333,1291
0.3352833,1314
0.3369667,1399
0.3386167,1376
0.3403,1421
0.34195,1466
0.3436167,1636
0.3453,1598
0.34695,1409
0.3486167,1254
0.3503,1217
0.35195,1163
0.3536333,1270
0.3552833,1377
0.35695,1455
0.3586167,1558
0.3602833,1630
0.3619667,1553
0.3636333,1999
0.3653,4365
0.36695,5333
0.3686333,5989
0.3703,6406
0.3719667,6333
0.3736167,5661
0.3753,4987
0.37695,4032
0.3786333,2747
0.3802833,2131
0.3819667,1883
0.3836167,1465
0.3853,1036
0.3869667,917
0.3886333,728
0.3902833,676
0.3919667,558
0.3936167,638
0.3953,550
0.3969667,678
0.3986333,688
0.4002833,661
0.4019667,680
0.4036333,699
0.4053,696
0.4069667,694
0.4086333,696
0.4103,691
0.4119667,687
0.4136167,570
0.4153,619
0.4169667,736
0.4186333,704
0.4203,839
0.4219667,820
0.4236333,900
0.4253,686
0.4269667,888
0.4286333,835
0.4303,891
0.4319667,985
0.4336333,949
0.4353,814
0.4369667,1012
0.4386333,853
0.4403,954
0.4419667,1079
0.4436333,1057
0.4453,1092
0.4469667,1127
0.4486333,1290
0.4503,1423
0.4519667,1322
0.4536333,1264
0.4553,1297
0.4569667,1530
0.4586333,1617
0.4603,1729
0.4619667,1454
0.4636333,1796
0.4653,1654
0.4669667,1468
0.4686333,1755
0.4703,1747
0.4719667,1739
0.4736333,1699
0.4753,1643
0.4769667,1587
0.4786333,1373
0.4803,1334
0.4819667,1393
0.4836333,1498
0.4853,1482
0.4869667,1539
0.4886333,1393
0.4903,1324
0.4919667,1258
0.4936333,1133
0.4953,1097
0.4969667,1236
0.4986333,1236
0.5003,1213
0.5019667,881
0.5036333,1132
0.5053,1192
0.5069667,1253
0.5086333,1023
0.5103,974
0.5119666,986
0.5136333,977
0.5153,1012
0.5169666,961
0.5186333,910
0.5203,900
0.5219667,973
0.5236334,1046
0.5253,1155
0.5269667,1116
0.5286334,931
0.5303,874
0.5319667,1049
0.5336334,999
0.5353,949
0.5369667,1019
0.5386333,1021
0.5403,972
0.5419667,924
0.5436333,897
0.5453,871
0.5469667,1200
0.5486333,1137
0.5503,1034
0.5519667,792
0.5536333,974
0.5553,1119
0.5569667,938
0.5586333,829
0.5603,958
0.5619667,922
0.5636333,947
0.5653,912
0.5669667,893
0.5686333,875
0.5703,927
0.5719666,979
0.5736333,1203
0.5753,1124
0.5769666,961
0.5786333,890
0.5803,894
0.5819666,1055
0.5836333,1026
0.5853,944
0.5869667,893
0.5886334,842
0.5903,994
0.5919667,1005
0.5936334,1043
0.5953,1082
0.5969667,880
0.5986333,1154
0.6003,905
0.6019667,1029
0.6036333,955
0.6053,921
0.6069667,886
0.6086333,888
0.6103,889
0.6119667,898
0.6136333,906
0.6153,881
0.6169667,855
0.6186333,979
0.6203,993
0.6219667,1008
0.6236333,864
0.6253,926
0.6269667,1074
0.6286333,1062
0.6303,1049
0.6319667,1199
0.6336333,845
0.6353,1165
0.6369666,853
0.6386333,1013
0.6403,903
0.6419666,949
0.6436333,994
0.6453,1033
0.6469667,872
0.6486334,935
0.6503,948
0.6519667,1039
0.6536334,1043
0.6553,923
0.6569667,820
0.6586334,1083
0.6603,912
0.6619667,1086
0.6636333,871
0.6653,868
0.6669667,938
0.6686333,903
0.6703,868
0.6719667,943
0.6736333,796
0.6753,984
0.6769667,808
0.6786333,974
0.6803,1027
0.6819667,948
0.6836333,974
0.6853,878
0.6869667,850
0.6886333,882
0.6903,915
0.6919667,744
0.6936333,969
0.6953,942
0.6969666,845
0.6986333,819
0.7003,855
0.7019666,890
0.7036333,914
0.7053,905
0.7069666,895
0.7086333,953
0.7103,960
0.7119667,1025
0.7136334,700
0.7153,773
0.7169667,1019
0.7186334,1062
0.7203,888
0.7219667,1023
0.7236333,881
0.7253,867
0.7269667,714
0.7286333,868
0.7303,859
0.7319667,850
0.7336333,872
0.7353,894
0.7369667,773
0.7386333,868
0.7403,734
0.7419667,814
0.7436333,811
0.7453,726
0.7469667,866
0.7486333,928
0.7503,809
0.7519667,874
0.7536333,906
0.7553,866
0.7569667,767
0.7586333,746
0.7603,736
0.7619666,823
0.7636333,788
0.7653,753
0.7669666,897
0.7686333,994
0.7703,938
0.7719667,1018
0.7736334,877
0.7753,964
0.7769667,731
0.7786334,710
0.7803,942
0.7819667,903
0.7836334,747
0.7853,839
0.7869667,890
0.7886333,926
0.7903,959
0.7919667,915
0.7936333,944
0.7953,898
0.7969667,918
0.7986333,911
0.8003,904
0.8019667,929
0.8036333,954
0.8053,812
0.8069667,1006
0.8086333,1122
0.8103,1098
0.8119667,1190
0.8136333,1136
0.8153,1082
0.8169667,1081
0.8186333,948
0.8203,1078
0.8219666,1107
0.8236333,1095
0.8253,1083
0.8269666,1122
0.8286333,1029
0.8303,1201
0.8319666,686
0.8336333,1131
0.8353,898
0.8369667,824
0.8386334,1028
0.8403,942
0.8419667,924
0.8436334,930
0.8453,945
0.8469667,877
0.8486333,854
0.8503,896
0.8519667,937
0.8536333,805
0.8553,835
0.8569667,1128
0.8586333,1035
0.8603,889
0.8619667,899
0.8636333,869
0.8653,932
0.8669667,1053
0.8686333,1067
0.8703,850
0.8719667,1044
0.8736333,851
0.8753,924
0.8769667,793
0.8786333,866
0.8803,884
0.8819667,955
0.8836333,1310
0.8853,1339
0.8869666,1291
0.8886333,1600
0.8903,1547
0.8919666,1588
0.8936333,1419
0.8953,1261
0.8969667,1360
0.8986334,1507
0.9003,1529
0.9019667,1430
0.9036334,1309
0.9053,1213
0.9069667,1348
0.9086334,1389
0.9103,1353
0.9119667,1178
0.9136333,1163
0.9153,1285
0.9169667,1384
0.9186333,1386
0.9203,1240
0.9219667,1450
0.9236333,1665
0.9253,1551
0.9269667,1501
0.9286333,1317
0.9303,1376
0.9319667,1360
0.9336333,1459
0.9353,1625
0.9369667,1624
0.9386333,1628
0.9403,1593
0.9419667,1414
0.9436333,1615
0.9453,1418
0.9469666,1513
0.9486333,1222
0.9503,1495
0.9519666,1259
0.9536333,1467
0.9553,1375
0.9569666,1213
0.9586333,1360
0.9603,1070
0.9619667,1209
0.9636334,1130
0.9653,970
0.9669667,947
0.9686334,1186
0.9703,1026
0.9719667,1062
0.9736333,1055
0.9753,1101
0.9769667,881
0.9786333,721
0.9803,933
0.9819667,897
0.9836333,903
0.9853,933
0.9869667,940
0.9886333,946
0.9903,974
0.9919667,1001
0.9936333,855
0.9953,890
0.9969667,1086
0.9986333,986
1.0003,882
1.001967,1088
1.003633,1001
1.0053,1109
1.006967,1140
1.008633,1171
1.0103,1219
1.011967,1223
1.013633,1284
1.0153,990
1.016967,1039
1.018633,1178
1.0203,865
1.021967,837
1.023633,1088
1.0253,1031
1.026967,974
1.028633,1051
1.0303,1081
1.031967,865
1.033633,1027
1.0353,916
1.036967,947
1.038633,988
1.0403,1028
1.041967,994
1.043633,967
1.0453,940
1.046967,1026
1.048633,991
1.0503,922
1.051967,906
1.053633,1000
1.0553,898
1.056967,893
1.058633,757
1.0603,993
1.061967,1078
1.063633,878
1.0653,977
1.066967,929
1.068633,828
1.0703,786
1.071967,783
1.073633,958
1.0753,940
1.076967,752
1.078633,968
1.0803,738
1.081967,879
1.083633,1007
1.0853,922
1.086967,870
1.088633,881
1.0903,821
1.091967,1064
1.093633,1016
1.0953,979
1.096967,976
1.098633,967
1.1003,958
1.101967,780
1.103633,1002
1.1053,829
1.106967,874
1.108633,960
1.1103,896
1.111967,831
1.113633,1016
1.1153,686
1.116967,763
1.118633,1024
1.1203,823
1.121967,952
1.123633,981
1.1253,762
1.126967,907
1.128633,978
1.1303,844
1.131967,821
1.133633,823
1.1353,823
1.136967,822
1.138633,756
1.1403,833
1.141967,864
1.143633,896
1.1453,808
1.146967,826
1.148633,894
1.1503,965
1.151967,703
1.153633,963
1.1553,775
1.156967,785
1.158633,759
1.1603,721
1.161967,682
1.163633,869
1.1653,832
1.166967,910
1.168633,976
1.1703,740
1.171967,960
1.173633,786
1.1753,815
1.176967,894
1.178633,857
1.1803,820
1.181967,907
1.183633,789
1.1853,592
1.186967,906
1.188633,902
1.1903,762
1.191967,1051
1.193633,981
1.1953,967
1.196967,788
1.198633,794
