"SampleName","A2Rd2_01-77"
"Target Mass 1",
"Column Name","IA-3 (3um, 4.6X100)"
"Channel","QDa 1: SIR Ch1"
0.00195,362
0.003616667,508
0.005283333,534
0.00695,628
0.008616666,503
0.01028333,620
0.01195,619
0.01361667,697
0.01528333,541
0.01695,558
0.01861667,573
0.02028333,506
0.02195,517
0.02361667,527
0.02528333,567
0.02695,600
0.02861667,578
0.03028333,326
0.03195,612
0.03361667,537
0.03528333,621
0.03695,606
0.03861667,592
0.04028333,498
0.04195,545
0.04361667,555
0.04528333,662
0.04695,630
0.04861667,563
0.05028334,510
0.05195,462
0.05361667,516
0.05528333,520
0.05695,545
0.05861667,499
0.06028333,486
0.06195,473
0.06361666,505
0.06528334,537
0.06695,579
0.06861667,396
0.07028333,409
0.07195,421
0.07361667,488
0.07528333,447
0.07695,405
0.07861666,453
0.08028334,463
0.08195,472
0.08361667,453
0.08528333,591
0.08695,571
0.08861667,635
0.09028333,570
0.09195,426
0.09361666,458
0.09528334,548
0.09695,518
0.09861667,533
0.1002833,527
0.10195,521
0.1036167,417
0.1052833,464
0.10695,445
0.1086167,553
0.1102833,503
0.11195,452
0.1136167,577
0.1152833,371
0.11695,463
0.1186167,400
0.1202833,471
0.12195,593
0.1236167,598
0.1252833,387
0.12695,388
0.1286167,522
0.1302833,558
0.13195,580
0.1336167,477
0.1352833,630
0.13695,569
0.1386167,568
0.1402833,530
0.14195,519
0.1436167,556
0.1452833,518
0.14695,544
0.1486167,569
0.1502833,480
0.15195,528
0.1536167,460
0.1552833,546
0.15695,410
0.1586167,496
0.1602833,453
0.16195,523
0.1636167,484
0.1652833,445
0.16695,512
0.1686167,397
0.1702833,501
0.17195,447
0.1736167,340
0.1752833,411
0.17695,463
0.1786167,558
0.1802833,539
0.18195,522
0.1836167,501
0.1852833,519
0.18695,413
0.1886167,441
0.1902833,689
0.19195,622
0.1936167,449
0.1952833,683
0.19695,494
0.1986167,486
0.2002833,619
0.20195,409
0.2036167,417
0.2052833,473
0.20695,522
0.2086167,485
0.2102833,551
0.21195,520
0.2136167,442
0.2152833,513
0.21695,569
0.2186167,437
0.2202833,531
0.22195,469
0.2236167,581
0.2252833,614
0.22695,474
0.2286333,556
0.2302833,482
0.23195,549
0.2336167,405
0.2352833,464
0.23695,524
0.2386167,481
0.2402833,570
0.24195,414
0.2436167,427
0.2453,494
0.24695,532
0.2486167,512
0.2502833,438
0.25195,462
0.2536333,545
0.2552833,420
0.25695,546
0.2586167,432
0.2602833,435
0.26195,465
0.2636333,426
0.2652833,462
0.26695,454
0.2686333,447
0.2703,458
0.27195,469
0.2736167,519
0.2752833,505
0.27695,491
0.2786167,533
0.2803,516
0.28195,429
0.2836167,437
0.2852833,504
0.2869667,465
0.2886167,426
0.2902833,455
0.29195,483
0.2936167,495
0.2953,559
0.29695,561
0.2986333,424
0.3002833,560
0.3019667,574
0.3036333,492
0.3052833,462
0.30695,572
0.3086167,554
0.3102833,625
0.3119667,580
0.3136167,615
0.3153,590
0.31695,564
0.3186333,639
0.3203,557
0.3219667,536
0.3236167,628
0.3252833,560
0.32695,537
0.3286333,612
0.3302833,489
0.33195,467
0.3336333,561
0.3353,557
0.3369667,568
0.3386333,579
0.3402833,593
0.34195,466
0.3436167,573
0.3453,540
0.34695,442
0.3486167,524
0.3503,427
0.3519667,473
0.3536333,546
0.3553,537
0.3569667,634
0.3586333,630
0.3602833,608
0.3619667,587
0.3636167,1040
0.3653,1266
0.36695,2497
0.3686333,3516
0.3703,4739
0.3719667,5736
0.3736333,5752
0.3753,7244
0.37695,7102
0.3786333,5952
0.3803,5939
0.3819667,4453
0.3836333,4918
0.3853,3996
0.3869667,3755
0.3886333,3328
0.3903,2779
0.3919667,2052
0.3936333,1725
0.3953,1263
0.3969667,1277
0.3986333,1434
0.4003,1296
0.4019667,1095
0.4036333,1237
0.4053,1181
0.4069667,1439
0.4086333,1357
0.4103,1268
0.4119667,1289
0.4136333,1471
0.4153,1444
0.4169667,1457
0.4186333,1466
0.4203,1725
0.4219667,1630
0.4236333,1535
0.4253,1186
0.4269667,1542
0.4286333,1394
0.4303,1530
0.4319667,1556
0.4336333,1650
0.4353,2173
0.4369667,3688
0.4386333,4414
0.4403,8031
0.4419667,10888
0.4436333,16580
0.4453,23020
0.4469667,32816
0.4486333,44768
0.4503,57520
0.4519667,70928
0.4536333,85712
0.4553,101392
0.4569667,115312
0.4586333,129728
0.4603,144512
0.4619667,156096
0.4636333,171968
0.4653,190464
0.4669667,207616
0.4686333,226944
0.4703,242816
0.4719667,257472
0.4736333,265216
0.4753,263936
0.4769667,259072
0.4786333,242880
0.4803,224256
0.4819667,195264
0.4836333,167232
0.4853,141248
0.4869667,116752
0.4886333,93904
0.4903,73616
0.4919667,57920
0.4936333,44480
0.4953,35104
0.4969667,26300
0.4986333,21520
0.5003,16056
0.5019667,12904
0.5036333,10336
0.5053,9216
0.5069667,7946
0.5086333,6292
0.5103,5986
0.5119666,4843
0.5136333,4786
0.5153,4431
0.5169666,4184
0.5186333,3909
0.5203,3844
0.5219667,3478
0.5236334,3103
0.5253,3121
0.5269667,3073
0.5286334,2937
0.5303,2852
0.5319667,2662
0.5336334,2871
0.5353,2340
0.5369667,2270
0.5386333,2279
0.5403,2383
0.5419667,2344
0.5436333,2075
0.5453,2004
0.5469667,1981
0.5486333,1783
0.5503,2108
0.5519667,1668
0.5536333,1985
0.5553,1981
0.5569667,1480
0.5586333,1586
0.5603,1679
0.5619667,1198
0.5636333,1684
0.5653,1588
0.5669667,1615
0.5686333,1362
0.5703,1460
0.5719666,1484
0.5736333,1242
0.5753,1124
0.5769666,1333
0.5786333,1362
0.5803,1263
0.5819666,1119
0.5836333,1222
0.5853,1233
0.5869667,1244
0.5886334,1275
0.5903,1306
0.5919667,1331
0.5936334,1350
0.5953,1374
0.5969667,1365
0.5986333,1399
0.6003,1391
0.6019667,1038
0.6036333,1160
0.6053,1292
0.6069667,1370
0.6086333,1480
0.6103,1549
0.6119667,1224
0.6136333,1472
0.6153,1599
0.6169667,1224
0.6186333,1436
0.6203,1265
0.6219667,1341
0.6236333,1360
0.6253,1282
0.6269667,1242
0.6286333,1148
0.6303,955
0.6319667,1129
0.6336333,1000
0.6353,1017
0.6369666,1214
0.6386333,1248
0.6403,970
0.6419666,792
0.6436333,968
0.6453,860
0.6469667,867
0.6486334,874
0.6503,852
0.6519667,828
0.6536334,805
0.6553,829
0.6569667,831
0.6586334,833
0.6603,794
0.6619667,756
0.6636333,806
0.6653,801
0.6669667,822
0.6686333,743
0.6703,702
0.6719667,660
0.6736333,767
0.6753,571
0.6769667,910
0.6786333,920
0.6803,696
0.6819667,791
0.6836333,874
0.6853,899
0.6869667,524
0.6886333,867
0.6903,958
0.6919667,667
0.6936333,717
0.6953,893
0.6969666,713
0.6986333,823
0.7003,614
0.7019666,771
0.7036333,827
0.7053,717
0.7069666,725
0.7086333,597
0.7103,630
0.7119667,730
0.7136334,602
0.7153,656
0.7169667,709
0.7186334,724
0.7203,733
0.7219667,742
0.7236333,721
0.7253,675
0.7269667,702
0.7286333,708
0.7303,714
0.7319667,741
0.7336333,646
0.7353,616
0.7369667,555
0.7386333,647
0.7403,676
0.7419667,705
0.7436333,673
0.7453,711
0.7469667,709
0.7486333,695
0.7503,778
0.7519667,751
0.7536333,725
0.7553,762
0.7569667,721
0.7586333,680
0.7603,677
0.7619666,699
0.7636333,715
0.7653,730
0.7669666,733
0.7686333,734
0.7703,734
0.7719667,607
0.7736334,747
0.7753,811
0.7769667,624
0.7786334,652
0.7803,680
0.7819667,658
0.7836334,635
0.7853,639
0.7869667,641
0.7886333,642
0.7903,684
0.7919667,693
0.7936333,702
0.7953,711
0.7969667,648
0.7986333,738
0.8003,783
0.8019667,607
0.8036333,576
0.8053,766
0.8069667,786
0.8086333,688
0.8103,701
0.8119667,702
0.8136333,673
0.8153,536
0.8169667,555
0.8186333,574
0.8203,600
0.8219666,625
0.8236333,637
0.8253,649
0.8269666,669
0.8286333,689
0.8303,705
0.8319666,720
0.8336333,738
0.8353,735
0.8369667,733
0.8386334,609
0.8403,654
0.8419667,699
0.8436334,666
0.8453,633
0.8469667,688
0.8486333,743
0.8503,822
0.8519667,778
0.8536333,693
0.8553,738
0.8569667,759
0.8586333,780
0.8603,723
0.8619667,793
0.8636333,756
0.8653,785
0.8669667,667
0.8686333,718
0.8703,650
0.8719667,691
0.8736333,742
0.8753,762
0.8769667,790
0.8786333,817
0.8803,671
0.8819667,1281
0.8836333,1498
0.8853,1647
0.8869666,2088
0.8886333,2518
0.8903,2648
0.8919666,2879
0.8936333,3317
0.8953,3233
0.8969667,3501
0.8986334,3002
0.9003,3197
0.9019667,3505
0.9036334,3156
0.9053,3387
0.9069667,3388
0.9086334,3545
0.9103,3577
0.9119667,3513
0.9136333,3449
0.9153,3356
0.9169667,3437
0.9186333,3476
0.9203,3514
0.9219667,3099
0.9236333,3321
0.9253,2942
0.9269667,3375
0.9286333,3539
0.9303,2927
0.9319667,3216
0.9336333,3195
0.9353,2662
0.9369667,2985
0.9386333,3281
0.9403,3222
0.9419667,3022
0.9436333,2765
0.9453,2466
0.9469666,2364
0.9486333,2577
0.9503,1988
0.9519666,2311
0.9536333,1993
0.9553,2156
0.9569666,1938
0.9586333,1796
0.9603,1837
0.9619667,1445
0.9636334,1843
0.9653,1397
0.9669667,1458
0.9686334,1379
0.9703,1192
0.9719667,1124
0.9736333,933
0.9753,1076
0.9769667,1046
0.9786333,891
0.9803,715
0.9819667,860
0.9836333,541
0.9853,502
0.9869667,849
0.9886333,727
0.9903,652
0.9919667,586
0.9936333,704
0.9953,641
0.9969667,469
0.9986333,544
1.0003,512
1.001967,554
1.003633,486
1.0053,526
1.006967,512
1.008633,618
1.0103,605
1.011967,591
1.013633,609
1.0153,581
1.016967,616
1.018633,594
1.0203,572
1.021967,630
1.023633,630
1.0253,527
1.026967,530
1.028633,545
1.0303,536
1.031967,527
1.033633,561
1.0353,769
1.036967,713
1.038633,671
1.0403,516
1.041967,520
1.043633,485
1.0453,654
1.046967,715
1.048633,622
1.0503,606
1.051967,589
1.053633,625
1.0553,563
1.056967,602
1.058633,499
1.0603,705
1.061967,794
1.063633,491
1.0653,611
1.066967,515
1.068633,599
1.0703,602
1.071967,594
1.073633,648
1.0753,612
1.076967,576
1.078633,630
1.0803,481
1.081967,641
1.083633,614
1.0853,657
1.086967,688
1.088633,749
1.0903,544
1.091967,637
1.093633,624
1.0953,705
1.096967,689
1.098633,635
1.1003,651
1.101967,718
1.103633,457
1.1053,579
1.106967,511
1.108633,666
1.1103,603
1.111967,625
1.113633,623
1.1153,621
1.116967,441
1.118633,678
1.1203,783
1.121967,675
1.123633,554
1.1253,661
1.126967,654
1.128633,633
1.1303,647
1.131967,608
1.133633,569
1.1353,635
1.136967,607
1.138633,635
1.1403,574
1.141967,599
1.143633,624
1.1453,570
1.146967,645
1.148633,697
1.1503,477
1.151967,505
1.153633,775
1.1553,696
1.156967,717
1.158633,660
1.1603,773
1.161967,604
1.163633,627
1.1653,670
1.166967,664
1.168633,659
1.1703,525
1.171967,686
1.173633,712
1.1753,719
1.176967,727
1.178633,626
1.1803,701
1.181967,710
1.183633,720
1.1853,611
1.186967,720
1.188633,639
1.1903,739
1.191967,750
1.193633,762
1.1953,674
1.196967,664
1.198633,827
