"SampleName","A2Rd2_01-57"
"Target Mass 1",
"Column Name","IA-3 (3um, 4.6X100)"
"Channel","QDa 1: SIR Ch1"
0.00195,412
0.003616667,469
0.005283333,645
0.00695,724
0.008616666,602
0.01028333,619
0.01195,540
0.01361667,621
0.01528333,575
0.01695,574
0.01861667,566
0.02028333,566
0.02195,610
0.02361667,644
0.02528333,620
0.02695,596
0.02861667,655
0.03028333,608
0.03195,618
0.03361667,602
0.03528333,564
0.03695,526
0.03861667,520
0.04028333,571
0.04195,620
0.04361667,599
0.04528333,579
0.04695,615
0.04861667,630
0.05028334,601
0.05195,749
0.05361667,774
0.05528333,726
0.05695,545
0.05861667,638
0.06028333,583
0.06195,575
0.06361666,649
0.06528334,645
0.06695,640
0.06861667,606
0.07028333,611
0.07195,645
0.07361667,613
0.07528333,580
0.07695,578
0.07861666,448
0.08028334,521
0.08195,653
0.08361667,668
0.08528333,566
0.08695,643
0.08861667,538
0.09028333,659
0.09195,573
0.09361666,608
0.09528334,661
0.09695,686
0.09861667,523
0.1002833,454
0.10195,563
0.1036167,586
0.1052833,609
0.10695,609
0.1086167,490
0.1102833,710
0.11195,458
0.1136167,500
0.1152833,626
0.11695,543
0.1186167,570
0.1202833,546
0.12195,527
0.1236167,509
0.1252833,540
0.12695,572
0.1286167,595
0.1302833,494
0.13195,394
0.1336167,489
0.1352833,521
0.13695,602
0.1386167,540
0.1402833,735
0.14195,694
0.1436167,651
0.1452833,719
0.14695,429
0.1486167,679
0.1502833,482
0.15195,573
0.1536167,433
0.1552833,473
0.15695,513
0.1586167,611
0.1602833,560
0.16195,657
0.1636167,603
0.1652833,612
0.16695,450
0.1686167,537
0.1702833,558
0.17195,579
0.1736167,584
0.1752833,472
0.17695,527
0.1786167,581
0.1802833,548
0.18195,479
0.1836167,560
0.1852833,648
0.18695,618
0.1886167,687
0.1902833,508
0.19195,506
0.1936167,477
0.1952833,528
0.19695,541
0.1986167,553
0.2002833,535
0.20195,521
0.2036167,508
0.2052833,495
0.20695,493
0.2086167,485
0.2102833,476
0.21195,552
0.2136167,628
0.2152833,597
0.21695,563
0.2186167,603
0.2202833,593
0.22195,476
0.2236167,543
0.2252833,474
0.22695,440
0.2286167,517
0.2302833,697
0.23195,651
0.2336167,641
0.2353,633
0.23695,609
0.2386167,486
0.2402833,654
0.24195,635
0.2436167,616
0.2453,607
0.24695,648
0.2486167,589
0.2502833,450
0.25195,434
0.2536167,467
0.2552833,500
0.25695,533
0.2586167,405
0.2602833,512
0.26195,545
0.2636333,522
0.2652833,507
0.26695,466
0.2686167,425
0.2702833,509
0.27195,806
0.2736333,721
0.2752833,502
0.27695,558
0.2786167,574
0.2803,697
0.28195,653
0.2836167,363
0.2852833,501
0.28695,514
0.2886167,572
0.2903,542
0.29195,516
0.2936167,491
0.2952833,649
0.29695,685
0.2986333,713
0.3002833,702
0.30195,584
0.3036333,409
0.3052833,681
0.3069667,585
0.3086167,628
0.3102833,507
0.31195,504
0.3136333,598
0.3153,597
0.3169667,641
0.3186167,582
0.3203,655
0.3219667,706
0.3236333,641
0.3252833,575
0.32695,665
0.3286167,545
0.3303,618
0.33195,607
0.3336333,464
0.3352833,534
0.3369667,603
0.3386333,661
0.3403,582
0.34195,607
0.3436167,605
0.3452833,608
0.3469667,646
0.3486333,683
0.3503,670
0.35195,561
0.3536333,657
0.3553,604
0.3569667,658
0.3586167,640
0.3602833,627
0.36195,614
0.3636333,1033
0.3653,1408
0.3669667,2138
0.3686333,4629
0.3703,6711
0.3719667,7018
0.3736333,8006
0.3753,7448
0.37695,6891
0.3786333,6660
0.3803,5709
0.3819667,4493
0.3836333,3826
0.3853,2565
0.3869667,1773
0.3886333,1796
0.3903,1271
0.3919667,1443
0.3936333,1355
0.3953,901
0.3969667,1073
0.3986333,988
0.4003,1087
0.4019667,1016
0.4036333,1023
0.4053,1320
0.4069667,1336
0.4086333,1330
0.4103,1807
0.4119667,1989
0.4136333,2296
0.4153,1995
0.4169667,2275
0.4186333,2267
0.4203,2393
0.4219667,2373
0.4236333,2250
0.4253,2348
0.4269667,2447
0.4286333,2765
0.4303,2953
0.4319667,3780
0.4336333,4698
0.4353,5454
0.4369667,7610
0.4386333,9868
0.4403,12056
0.4419667,16196
0.4436333,21368
0.4453,27556
0.4469667,36768
0.4486333,45328
0.4503,57952
0.4519667,68976
0.4536333,83664
0.4553,97472
0.4569667,117712
0.4586333,134656
0.4603,155648
0.4619667,179648
0.4636333,207872
0.4653,232640
0.4669667,268032
0.4686333,296576
0.4703,319552
0.4719667,335872
0.4736333,348096
0.4753,348736
0.4769667,338816
0.4786333,308160
0.4803,283904
0.4819667,247360
0.4836333,212160
0.4853,176448
0.4869667,145344
0.4886333,114160
0.4903,91056
0.4919667,66128
0.4936333,54208
0.4953,39616
0.4969667,31188
0.4986333,24720
0.5003,19032
0.5019667,16024
0.5036333,13732
0.5053,11132
0.5069667,9904
0.5086333,8792
0.5103,7726
0.5119666,7542
0.5136333,6661
0.5153,5946
0.5169666,5583
0.5186333,4969
0.5203,4904
0.5219667,4745
0.5236334,4714
0.5253,4666
0.5269667,4197
0.5286334,4663
0.5303,4251
0.5319667,4031
0.5336334,3926
0.5353,3686
0.5369667,3510
0.5386333,3469
0.5403,3583
0.5419667,3148
0.5436333,3030
0.5453,2999
0.5469667,2755
0.5486333,2827
0.5503,2708
0.5519667,2634
0.5536333,2747
0.5553,2543
0.5569667,2660
0.5586333,2150
0.5603,2246
0.5619667,2276
0.5636333,2169
0.5653,2211
0.5669667,1809
0.5686333,1844
0.5703,1879
0.5719666,1913
0.5736333,1950
0.5753,2071
0.5769666,2045
0.5786333,1904
0.5803,1965
0.5819666,1708
0.5836333,1889
0.5853,1593
0.5869667,1474
0.5886334,1819
0.5903,1764
0.5919667,1768
0.5936334,1783
0.5953,1799
0.5969667,1520
0.5986333,1779
0.6003,1707
0.6019667,1580
0.6036333,1614
0.6053,1682
0.6069667,1650
0.6086333,1618
0.6103,1640
0.6119667,1616
0.6136333,1503
0.6153,1604
0.6169667,1547
0.6186333,1590
0.6203,1676
0.6219667,1471
0.6236333,1467
0.6253,1621
0.6269667,1465
0.6286333,1520
0.6303,1272
0.6319667,1446
0.6336333,1355
0.6353,1228
0.6369666,1512
0.6386333,1257
0.6403,1271
0.6419666,1277
0.6436333,1143
0.6453,1073
0.6469667,1179
0.6486334,1110
0.6503,1083
0.6519667,1046
0.6536334,1010
0.6553,1037
0.6569667,1160
0.6586334,1106
0.6603,1052
0.6619667,1153
0.6636333,985
0.6653,1193
0.6669667,1026
0.6686333,1075
0.6703,957
0.6719667,1014
0.6736333,1065
0.6753,934
0.6769667,1148
0.6786333,1345
0.6803,1247
0.6819667,1025
0.6836333,1038
0.6853,1053
0.6869667,1106
0.6886333,1033
0.6903,961
0.6919667,1007
0.6936333,1001
0.6953,1086
0.6969666,853
0.6986333,914
0.7003,978
0.7019666,905
0.7036333,832
0.7053,954
0.7069666,910
0.7086333,946
0.7103,968
0.7119667,1011
0.7136334,1038
0.7153,762
0.7169667,862
0.7186334,974
0.7203,895
0.7219667,794
0.7236333,949
0.7253,939
0.7269667,961
0.7286333,998
0.7303,790
0.7319667,844
0.7336333,928
0.7353,911
0.7369667,1038
0.7386333,1043
0.7403,1048
0.7419667,1034
0.7436333,1043
0.7453,922
0.7469667,935
0.7486333,1038
0.7503,837
0.7519667,1026
0.7536333,930
0.7553,908
0.7569667,829
0.7586333,806
0.7603,751
0.7619666,695
0.7636333,778
0.7653,861
0.7669666,860
0.7686333,859
0.7703,761
0.7719667,862
0.7736334,721
0.7753,838
0.7769667,839
0.7786334,731
0.7803,772
0.7819667,814
0.7836334,864
0.7853,814
0.7869667,765
0.7886333,853
0.7903,965
0.7919667,965
0.7936333,763
0.7953,879
0.7969667,876
0.7986333,725
0.8003,913
0.8019667,845
0.8036333,936
0.8053,634
0.8069667,769
0.8086333,884
0.8103,753
0.8119667,842
0.8136333,842
0.8153,842
0.8169667,802
0.8186333,762
0.8203,687
0.8219666,690
0.8236333,694
0.8253,781
0.8269666,760
0.8286333,739
0.8303,723
0.8319666,760
0.8336333,766
0.8353,762
0.8369667,749
0.8386334,759
0.8403,770
0.8419667,783
0.8436334,797
0.8453,776
0.8469667,756
0.8486333,802
0.8503,842
0.8519667,617
0.8536333,776
0.8553,765
0.8569667,873
0.8586333,798
0.8603,1022
0.8619667,1280
0.8636333,1447
0.8653,1763
0.8669667,2269
0.8686333,2665
0.8703,2819
0.8719667,2789
0.8736333,2854
0.8753,3318
0.8769667,3214
0.8786333,2962
0.8803,2787
0.8819667,2628
0.8836333,2921
0.8853,2792
0.8869666,2847
0.8886333,2870
0.8903,2435
0.8919666,2682
0.8936333,2576
0.8953,2574
0.8969667,2800
0.8986334,2316
0.9003,2458
0.9019667,2599
0.9036334,2479
0.9053,2802
0.9069667,2824
0.9086334,2766
0.9103,2649
0.9119667,2554
0.9136333,2567
0.9153,2843
0.9169667,2922
0.9186333,2961
0.9203,2925
0.9219667,2912
0.9236333,2742
0.9253,2356
0.9269667,2779
0.9286333,2611
0.9303,2647
0.9319667,2135
0.9336333,2373
0.9353,2413
0.9369667,2236
0.9386333,2083
0.9403,2108
0.9419667,1960
0.9436333,1912
0.9453,1954
0.9469666,1924
0.9486333,1669
0.9503,1626
0.9519666,1534
0.9536333,1535
0.9553,1305
0.9569666,1687
0.9586333,1548
0.9603,1295
0.9619667,1185
0.9636334,939
0.9653,1085
0.9669667,1018
0.9686334,1003
0.9703,947
0.9719667,889
0.9736333,641
0.9753,939
0.9769667,943
0.9786333,803
0.9803,885
0.9819667,565
0.9836333,630
0.9853,677
0.9869667,679
0.9886333,681
0.9903,696
0.9919667,696
0.9936333,697
0.9953,467
0.9969667,717
0.9986333,781
1.0003,600
1.001967,663
1.003633,619
1.0053,608
1.006967,598
1.008633,630
1.0103,545
1.011967,622
1.013633,598
1.0153,534
1.016967,639
1.018633,442
1.0203,689
1.021967,525
1.023633,715
1.0253,568
1.026967,696
1.028633,666
1.0303,631
1.031967,621
1.033633,706
1.0353,657
1.036967,608
1.038633,665
1.0403,705
1.041967,712
1.043633,647
1.0453,534
1.046967,656
1.048633,542
1.0503,591
1.051967,623
1.053633,566
1.0553,586
1.056967,606
1.058633,816
1.0603,791
1.061967,586
1.063633,670
1.0653,672
1.066967,616
1.068633,598
1.0703,638
1.071967,492
1.073633,586
1.0753,609
1.076967,581
1.078633,554
1.0803,619
1.081967,689
1.083633,648
1.0853,608
1.086967,570
1.088633,672
1.0903,651
1.091967,505
1.093633,663
1.0953,587
1.096967,713
1.098633,535
1.1003,543
1.101967,640
1.103633,508
1.1053,552
1.106967,595
1.108633,582
1.1103,569
1.111967,779
1.113633,829
1.1153,669
1.116967,748
1.118633,637
1.1203,519
1.121967,795
1.123633,598
1.1253,761
1.126967,609
1.128633,574
1.1303,685
1.131967,666
1.133633,669
1.1353,585
1.136967,484
1.138633,580
1.1403,629
1.141967,635
1.143633,531
1.1453,535
1.146967,659
1.148633,826
1.1503,732
1.151967,607
1.153633,533
1.1553,536
1.156967,662
1.158633,712
1.1603,660
1.161967,555
1.163633,562
1.1653,682
1.166967,654
1.168633,646
1.1703,683
1.171967,632
1.173633,517
1.1753,778
1.176967,439
1.178633,666
1.1803,609
1.181967,666
1.183633,621
1.1853,641
1.186967,661
1.188633,629
1.1903,767
1.191967,795
1.193633,634
1.1953,688
1.196967,581
1.198633,717
