"SampleName","A2Rd2_01-89"
"Target Mass 1",
"Column Name","IA-3 (3um, 4.6X100)"
"Channel","QDa 1: SIR Ch1"
0.00195,308
0.003616667,482
0.005283333,455
0.00695,538
0.008616666,511
0.01028333,484
0.01195,489
0.01361667,493
0.01528333,666
0.01695,692
0.01861667,638
0.02028333,399
0.02195,547
0.02361667,514
0.02528333,622
0.02695,651
0.02861667,566
0.03028333,645
0.03195,549
0.03361667,602
0.03528333,533
0.03695,452
0.03861667,540
0.04028333,465
0.04195,500
0.04361667,535
0.04528333,559
0.04695,420
0.04861667,417
0.05028334,562
0.05195,502
0.05361667,443
0.05528333,445
0.05695,499
0.05861667,521
0.06028333,418
0.06195,613
0.06361666,585
0.06528334,556
0.06695,642
0.06861667,415
0.07028333,624
0.07195,496
0.07361667,482
0.07528333,558
0.07695,634
0.07861666,639
0.08028334,557
0.08195,386
0.08361667,530
0.08528333,455
0.08695,562
0.08861667,567
0.09028333,571
0.09195,576
0.09361666,570
0.09528334,553
0.09695,444
0.09861667,342
0.1002833,555
0.10195,357
0.1036167,446
0.1052833,465
0.10695,551
0.1086167,619
0.1102833,574
0.11195,632
0.1136167,525
0.1152833,428
0.11695,424
0.1186167,503
0.1202833,560
0.12195,522
0.1236167,406
0.1252833,632
0.12695,555
0.1286167,560
0.1302833,582
0.13195,567
0.1336167,493
0.1352833,497
0.13695,496
0.1386167,495
0.1402833,514
0.14195,539
0.1436167,544
0.1452833,576
0.14695,471
0.1486167,473
0.1502833,530
0.15195,465
0.1536167,399
0.1552833,496
0.15695,451
0.1586167,405
0.1602833,579
0.16195,592
0.1636167,432
0.1652833,482
0.16695,372
0.1686167,376
0.1702833,493
0.17195,435
0.1736167,533
0.1752833,509
0.17695,485
0.1786167,476
0.1802833,429
0.18195,551
0.1836167,535
0.1852833,547
0.18695,464
0.1886167,588
0.1902833,592
0.19195,474
0.1936167,498
0.1952833,400
0.19695,544
0.1986167,477
0.2002833,403
0.20195,342
0.2036167,474
0.2052833,559
0.20695,622
0.2086167,513
0.2102833,473
0.21195,484
0.2136167,462
0.2152833,441
0.21695,510
0.2186167,535
0.2202833,560
0.22195,517
0.2236167,517
0.2252833,517
0.22695,594
0.2286167,591
0.2302833,610
0.23195,588
0.2336167,590
0.2352833,404
0.23695,431
0.2386167,536
0.2402833,493
0.24195,577
0.2436167,595
0.2453,614
0.24695,554
0.2486167,475
0.2502833,554
0.25195,484
0.2536167,528
0.2552833,566
0.25695,604
0.2586167,473
0.2602833,466
0.26195,431
0.2636333,451
0.2652833,471
0.26695,476
0.2686167,482
0.2702833,446
0.27195,411
0.2736167,424
0.2752833,438
0.27695,420
0.2786167,437
0.2803,446
0.28195,368
0.2836167,502
0.2852833,554
0.28695,528
0.2886167,545
0.2902833,542
0.2919667,539
0.2936167,532
0.2953,458
0.29695,507
0.2986333,556
0.3002833,614
0.30195,558
0.3036167,446
0.3053,523
0.30695,498
0.3086333,491
0.3102833,484
0.31195,501
0.3136167,517
0.3153,501
0.3169667,486
0.3186167,506
0.3202833,555
0.3219667,620
0.3236333,702
0.3253,653
0.32695,484
0.3286167,623
0.3302833,499
0.3319667,432
0.3336333,473
0.3353,538
0.3369667,603
0.3386333,575
0.3403,511
0.3419667,491
0.3436167,477
0.3453,542
0.34695,547
0.3486333,553
0.3503,551
0.3519667,502
0.3536333,533
0.3553,575
0.3569667,445
0.3586333,557
0.3602833,632
0.3619667,674
0.3636167,684
0.3653,786
0.3669667,1795
0.3686333,3091
0.3703,4439
0.3719667,4770
0.3736333,6023
0.3753,6199
0.3769667,6177
0.3786333,6264
0.3803,6352
0.3819667,5719
0.3836333,5068
0.3853,4131
0.3869667,3732
0.3886333,3010
0.3903,2978
0.3919667,2416
0.3936333,1909
0.3953,1609
0.3969667,1290
0.3986333,1132
0.4003,1126
0.4019667,966
0.4036333,1042
0.4053,1173
0.4069667,1111
0.4086333,1144
0.4103,1018
0.4119667,1059
0.4136333,1053
0.4153,1104
0.4169667,1277
0.4186333,1313
0.4203,1158
0.4219667,1376
0.4236333,1257
0.4253,1138
0.4269667,1284
0.4286333,1207
0.4303,1212
0.4319667,1262
0.4336333,1636
0.4353,1995
0.4369667,3123
0.4386333,4324
0.4403,7599
0.4419667,10200
0.4436333,16372
0.4453,24972
0.4469667,34848
0.4486333,48896
0.4503,63392
0.4519667,80976
0.4536333,100784
0.4553,117648
0.4569667,133952
0.4586333,150976
0.4603,168000
0.4619667,177792
0.4636333,194560
0.4653,209984
0.4669667,221440
0.4686333,240320
0.4703,263680
0.4719667,272704
0.4736333,287808
0.4753,301696
0.4769667,297984
0.4786333,297216
0.4803,287552
0.4819667,263680
0.4836333,241088
0.4853,217664
0.4869667,188736
0.4886333,159424
0.4903,130016
0.4919667,107936
0.4936333,86624
0.4953,70784
0.4969667,56768
0.4986333,42016
0.5003,33664
0.5019667,28148
0.5036333,21312
0.5053,17344
0.5069667,13924
0.5086333,11792
0.5103,10232
0.5119666,8272
0.5136333,7707
0.5153,7009
0.5169666,6115
0.5186333,5645
0.5203,5253
0.5219667,4164
0.5236334,4275
0.5253,4694
0.5269667,4021
0.5286334,3902
0.5303,3968
0.5319667,3674
0.5336334,3509
0.5353,3343
0.5369667,3104
0.5386333,3005
0.5403,2977
0.5419667,2410
0.5436333,2801
0.5453,2434
0.5469667,2533
0.5486333,2665
0.5503,2045
0.5519667,2204
0.5536333,2340
0.5553,2009
0.5569667,2127
0.5586333,2209
0.5603,1859
0.5619667,1899
0.5636333,2188
0.5653,1871
0.5669667,1867
0.5686333,1837
0.5703,1708
0.5719666,1674
0.5736333,1760
0.5753,1610
0.5769666,1567
0.5786333,1432
0.5803,1348
0.5819666,1357
0.5836333,1458
0.5853,1532
0.5869667,1470
0.5886334,1504
0.5903,1537
0.5919667,1485
0.5936334,1623
0.5953,1371
0.5969667,1399
0.5986333,1434
0.6003,1385
0.6019667,1335
0.6036333,1287
0.6053,1139
0.6069667,1183
0.6086333,1227
0.6103,1147
0.6119667,1284
0.6136333,1438
0.6153,1490
0.6169667,1443
0.6186333,1309
0.6203,1514
0.6219667,1111
0.6236333,1206
0.6253,1074
0.6269667,1174
0.6286333,1200
0.6303,813
0.6319667,983
0.6336333,1161
0.6353,1017
0.6369666,1181
0.6386333,826
0.6403,933
0.6419666,984
0.6436333,896
0.6453,1022
0.6469667,962
0.6486334,990
0.6503,1018
0.6519667,908
0.6536334,1014
0.6553,953
0.6569667,880
0.6586334,771
0.6603,932
0.6619667,836
0.6636333,914
0.6653,885
0.6669667,955
0.6686333,948
0.6703,862
0.6719667,794
0.6736333,868
0.6753,881
0.6769667,873
0.6786333,865
0.6803,884
0.6819667,851
0.6836333,876
0.6853,901
0.6869667,903
0.6886333,918
0.6903,762
0.6919667,819
0.6936333,960
0.6953,651
0.6969666,798
0.6986333,673
0.7003,579
0.7019666,823
0.7036333,724
0.7053,909
0.7069666,807
0.7086333,806
0.7103,718
0.7119667,737
0.7136334,756
0.7153,803
0.7169667,867
0.7186334,819
0.7203,771
0.7219667,686
0.7236333,734
0.7253,797
0.7269667,732
0.7286333,690
0.7303,723
0.7319667,707
0.7336333,691
0.7353,700
0.7369667,708
0.7386333,690
0.7403,709
0.7419667,728
0.7436333,731
0.7453,719
0.7469667,822
0.7486333,807
0.7503,683
0.7519667,749
0.7536333,603
0.7553,662
0.7569667,710
0.7586333,698
0.7603,685
0.7619666,660
0.7636333,636
0.7653,645
0.7669666,654
0.7686333,616
0.7703,708
0.7719667,743
0.7736334,779
0.7753,733
0.7769667,749
0.7786334,747
0.7803,746
0.7819667,744
0.7836334,742
0.7853,694
0.7869667,647
0.7886333,531
0.7903,816
0.7919667,911
0.7936333,781
0.7953,890
0.7969667,734
0.7986333,643
0.8003,531
0.8019667,765
0.8036333,782
0.8053,927
0.8069667,734
0.8086333,725
0.8103,794
0.8119667,699
0.8136333,735
0.8153,772
0.8169667,794
0.8186333,817
0.8203,739
0.8219666,703
0.8236333,587
0.8253,879
0.8269666,894
0.8286333,773
0.8303,853
0.8319666,715
0.8336333,815
0.8353,799
0.8369667,930
0.8386334,936
0.8403,779
0.8419667,888
0.8436334,693
0.8453,823
0.8469667,922
0.8486333,902
0.8503,820
0.8519667,808
0.8536333,797
0.8553,826
0.8569667,856
0.8586333,686
0.8603,793
0.8619667,575
0.8636333,653
0.8653,699
0.8669667,696
0.8686333,692
0.8703,672
0.8719667,652
0.8736333,589
0.8753,766
0.8769667,724
0.8786333,815
0.8803,1161
0.8819667,1508
0.8836333,1758
0.8853,2103
0.8869666,2176
0.8886333,2706
0.8903,2837
0.8919666,2724
0.8936333,3227
0.8953,3149
0.8969667,3058
0.8986334,3033
0.9003,3035
0.9019667,3037
0.9036334,3065
0.9053,3093
0.9069667,2655
0.9086334,3442
0.9103,3299
0.9119667,3297
0.9136333,2956
0.9153,3020
0.9169667,3022
0.9186333,2815
0.9203,2902
0.9219667,3118
0.9236333,3048
0.9253,2801
0.9269667,3040
0.9286333,3000
0.9303,2742
0.9319667,2930
0.9336333,2925
0.9353,2887
0.9369667,3105
0.9386333,3131
0.9403,2657
0.9419667,2808
0.9436333,2382
0.9453,2301
0.9469666,2234
0.9486333,2287
0.9503,2229
0.9519666,1809
0.9536333,2108
0.9553,1931
0.9569666,1924
0.9586333,2036
0.9603,1605
0.9619667,1469
0.9636334,1502
0.9653,1292
0.9669667,1491
0.9686334,1241
0.9703,1389
0.9719667,1342
0.9736333,974
0.9753,1027
0.9769667,1198
0.9786333,783
0.9803,711
0.9819667,873
0.9836333,589
0.9853,807
0.9869667,678
0.9886333,784
0.9903,746
0.9919667,705
0.9936333,658
0.9953,586
0.9969667,546
0.9986333,547
1.0003,548
1.001967,515
1.003633,568
1.0053,627
1.006967,633
1.008633,399
1.0103,454
1.011967,466
1.013633,643
1.0153,597
1.016967,552
1.018633,582
1.0203,475
1.021967,544
1.023633,664
1.0253,713
1.026967,585
1.028633,618
1.0303,657
1.031967,622
1.033633,702
1.0353,680
1.036967,674
1.038633,710
1.0403,564
1.041967,600
1.043633,579
1.0453,558
1.046967,610
1.048633,599
1.0503,604
1.051967,516
1.053633,659
1.0553,658
1.056967,624
1.058633,558
1.0603,535
1.061967,540
1.063633,546
1.0653,558
1.066967,552
1.068633,546
1.0703,566
1.071967,562
1.073633,559
1.0753,580
1.076967,601
1.078633,581
1.0803,561
1.081967,605
1.083633,631
1.0853,657
1.086967,601
1.088633,554
1.0903,582
1.091967,617
1.093633,482
1.0953,728
1.096967,699
1.098633,578
1.1003,735
1.101967,770
1.103633,603
1.1053,532
1.106967,610
1.108633,676
1.1103,675
1.111967,398
1.113633,655
1.1153,674
1.116967,587
1.118633,622
1.1203,616
1.121967,636
1.123633,554
1.1253,556
1.126967,558
1.128633,564
1.1303,570
1.131967,569
1.133633,723
1.1353,714
1.136967,709
1.138633,577
1.1403,625
1.141967,608
1.143633,656
1.1453,636
1.146967,654
1.148633,672
1.1503,693
1.151967,526
1.153633,702
1.1553,626
1.156967,613
1.158633,612
1.1603,686
1.161967,618
1.163633,550
1.1653,756
1.166967,816
1.168633,708
1.1703,664
1.171967,613
1.173633,795
1.1753,750
1.176967,704
1.178633,670
1.1803,724
1.181967,741
1.183633,723
1.1853,874
1.186967,804
1.188633,734
1.1903,673
1.191967,763
1.193633,865
1.1953,945
1.196967,888
1.198633,917
