"SampleName","A2Rd2_01-22"
"Target Mass 1",
"Column Name","IA-3 (3um, 4.6X100)"
"Channel","QDa 1: SIR Ch1"
0.00195,355
0.003616667,625
0.005283333,562
0.00695,711
0.008616666,699
0.01028333,688
0.01195,716
0.01361667,575
0.01528333,428
0.01695,653
0.01861667,566
0.02028333,552
0.02195,525
0.02361667,599
0.02528333,543
0.02695,488
0.02861667,488
0.03028333,704
0.03195,720
0.03361667,585
0.03528333,632
0.03695,664
0.03861667,635
0.04028333,605
0.04195,515
0.04361667,617
0.04528333,688
0.04695,633
0.04861667,645
0.05028334,560
0.05195,538
0.05361667,517
0.05528333,545
0.05695,573
0.05861667,600
0.06028333,674
0.06195,609
0.06361666,543
0.06528334,591
0.06695,640
0.06861667,561
0.07028333,481
0.07195,543
0.07361667,704
0.07528333,651
0.07695,572
0.07861666,599
0.08028334,681
0.08195,618
0.08361667,556
0.08528333,608
0.08695,604
0.08861667,585
0.09028333,693
0.09195,428
0.09361666,472
0.09528334,524
0.09695,487
0.09861667,623
0.1002833,621
0.10195,618
0.1036167,619
0.1052833,619
0.10695,655
0.1086167,543
0.1102833,541
0.11195,678
0.1136167,387
0.1152833,533
0.11695,637
0.1186167,707
0.1202833,630
0.12195,417
0.1236167,589
0.1252833,623
0.12695,550
0.1286167,627
0.1302833,591
0.13195,663
0.1336167,504
0.1352833,701
0.13695,502
0.1386167,657
0.1402833,766
0.14195,476
0.1436167,702
0.1452833,453
0.14695,569
0.1486167,595
0.1502833,552
0.15195,533
0.1536167,597
0.1552833,597
0.15695,466
0.1586167,533
0.1602833,613
0.16195,671
0.1636167,632
0.1652833,556
0.16695,617
0.1686167,648
0.1702833,418
0.17195,617
0.1736167,671
0.1752833,588
0.17695,594
0.1786167,673
0.1802833,519
0.18195,703
0.1836167,531
0.1852833,491
0.18695,576
0.1886167,569
0.1902833,561
0.19195,441
0.1936167,601
0.1952833,663
0.19695,532
0.1986167,522
0.2002833,487
0.20195,622
0.2036167,620
0.2052833,571
0.20695,556
0.2086167,503
0.2102833,529
0.21195,519
0.2136167,400
0.2152833,651
0.21695,570
0.2186167,574
0.2202833,588
0.22195,589
0.2236167,568
0.2252833,532
0.22695,605
0.2286167,562
0.2302833,596
0.23195,605
0.2336167,535
0.2352833,615
0.23695,473
0.2386167,461
0.2402833,450
0.24195,605
0.2436167,579
0.2452833,552
0.24695,791
0.2486167,763
0.2502833,483
0.25195,554
0.2536167,500
0.2552833,514
0.25695,527
0.2586167,545
0.2602833,482
0.26195,603
0.2636167,655
0.2652833,580
0.26695,505
0.2686167,644
0.2702833,456
0.27195,604
0.2736167,541
0.2752833,652
0.27695,559
0.2786167,811
0.2803,732
0.28195,557
0.2836167,704
0.2852833,685
0.28695,581
0.2886167,471
0.2902833,580
0.29195,532
0.2936167,549
0.2952833,565
0.29695,563
0.2986333,560
0.3002833,543
0.30195,525
0.3036167,575
0.3052833,558
0.30695,542
0.3086167,546
0.3102833,550
0.31195,611
0.3136167,551
0.3153,491
0.31695,721
0.3186167,691
0.3203,545
0.32195,574
0.3236167,563
0.3252833,552
0.32695,508
0.3286167,464
0.3302833,550
0.33195,454
0.3336333,589
0.3352833,555
0.3369667,521
0.3386167,484
0.3402833,535
0.34195,510
0.3436167,486
0.3452833,731
0.34695,674
0.3486167,669
0.3503,631
0.35195,630
0.3536167,541
0.3552833,516
0.35695,573
0.3586167,889
0.3602833,858
0.36195,1059
0.3636167,1839
0.3652833,3629
0.36695,5884
0.3686333,6714
0.3703,6691
0.37195,5987
0.3736167,6216
0.3752833,4893
0.3769667,3742
0.3786167,3430
0.3803,2813
0.38195,2359
0.3836167,2257
0.3853,1759
0.3869667,1652
0.3886167,1603
0.3903,1373
0.39195,1192
0.3936333,1421
0.3952833,1465
0.3969667,1539
0.3986167,1851
0.4003,1784
0.40195,2064
0.4036333,2270
0.4053,2293
0.4069667,2073
0.4086167,2146
0.4103,2180
0.41195,1785
0.4136333,1691
0.4152833,1547
0.4169667,1567
0.4186167,1372
0.4203,1378
0.4219667,1188
0.4236333,1287
0.4252833,1212
0.4269667,1211
0.4286167,1094
0.4303,1116
0.43195,1110
0.4336333,1499
0.4353,1496
0.4369667,2288
0.4386333,2802
0.4403,3823
0.4419667,5112
0.4436333,7565
0.4453,10104
0.4469667,14740
0.4486333,20464
0.4503,27668
0.4519667,38736
0.4536333,55552
0.4553,78304
0.4569667,109040
0.4586333,149312
0.4603,198592
0.4619667,249664
0.4636333,312448
0.4653,366016
0.4669667,417472
0.4686333,454016
0.4703,480000
0.4719667,482624
0.4736333,464512
0.4753,424064
0.4769667,378112
0.4786333,328064
0.4803,271680
0.4819667,224640
0.4836333,180416
0.4853,142656
0.4869667,113824
0.4886333,90032
0.4903,71808
0.4919667,58512
0.4936333,45936
0.4953,39264
0.4969667,32768
0.4986333,27792
0.5003,22916
0.5019667,20560
0.5036333,17328
0.5053,15184
0.5069667,13704
0.5086333,11840
0.5103,10576
0.5119666,9484
0.5136333,8372
0.5153,7566
0.5169666,7188
0.5186333,6945
0.5203,5820
0.5219667,5647
0.5236334,5213
0.5253,4631
0.5269667,5038
0.5286334,4592
0.5303,4538
0.5319667,4295
0.5336334,4624
0.5353,4023
0.5369667,4191
0.5386333,3553
0.5403,3996
0.5419667,3240
0.5436333,3554
0.5453,3095
0.5469667,2943
0.5486333,3066
0.5503,2979
0.5519667,2781
0.5536333,2833
0.5553,2383
0.5569667,2647
0.5586333,2397
0.5603,2264
0.5619667,2606
0.5636333,2329
0.5653,2428
0.5669667,2244
0.5686333,2159
0.5703,2326
0.5719666,2322
0.5736333,1952
0.5753,2153
0.5769666,2304
0.5786333,1914
0.5803,2210
0.5819666,1714
0.5836333,2031
0.5853,1858
0.5869667,1928
0.5886334,1851
0.5903,1874
0.5919667,1897
0.5936334,1865
0.5953,1843
0.5969667,1821
0.5986333,1714
0.6003,1821
0.6019667,1820
0.6036333,1819
0.6053,1702
0.6069667,1711
0.6086333,1681
0.6103,1623
0.6119667,1753
0.6136333,1779
0.6153,1633
0.6169667,1639
0.6186333,1532
0.6203,1627
0.6219667,1533
0.6236333,1453
0.6253,1258
0.6269667,1414
0.6286333,1354
0.6303,1344
0.6319667,1109
0.6336333,1258
0.6353,1346
0.6369666,1201
0.6386333,1371
0.6403,1255
0.6419666,1281
0.6436333,1221
0.6453,1080
0.6469667,1246
0.6486334,1167
0.6503,1172
0.6519667,943
0.6536334,1218
0.6553,1086
0.6569667,1064
0.6586334,1101
0.6603,1137
0.6619667,1147
0.6636333,1143
0.6653,1052
0.6669667,1052
0.6686333,1106
0.6703,1360
0.6719667,1367
0.6736333,1024
0.6753,1040
0.6769667,1143
0.6786333,979
0.6803,1089
0.6819667,1137
0.6836333,867
0.6853,906
0.6869667,1009
0.6886333,980
0.6903,902
0.6919667,915
0.6936333,928
0.6953,1040
0.6969666,1048
0.6986333,889
0.7003,1131
0.7019666,1020
0.7036333,1154
0.7053,1090
0.7069666,1099
0.7086333,1105
0.7103,997
0.7119667,807
0.7136334,1109
0.7153,1030
0.7169667,930
0.7186334,859
0.7203,1115
0.7219667,803
0.7236333,786
0.7253,1049
0.7269667,1099
0.7286333,1035
0.7303,996
0.7319667,869
0.7336333,992
0.7353,901
0.7369667,810
0.7386333,961
0.7403,897
0.7419667,907
0.7436333,886
0.7453,865
0.7469667,920
0.7486333,975
0.7503,949
0.7519667,924
0.7536333,814
0.7553,804
0.7569667,874
0.7586333,852
0.7603,829
0.7619666,918
0.7636333,1008
0.7653,704
0.7669666,1009
0.7686333,952
0.7703,883
0.7719667,899
0.7736334,890
0.7753,917
0.7769667,945
0.7786334,884
0.7803,823
0.7819667,819
0.7836334,860
0.7853,856
0.7869667,852
0.7886333,777
0.7903,784
0.7919667,821
0.7936333,857
0.7953,900
0.7969667,906
0.7986333,994
0.8003,729
0.8019667,1054
0.8036333,855
0.8053,933
0.8069667,948
0.8086333,917
0.8103,929
0.8119667,942
0.8136333,913
0.8153,885
0.8169667,945
0.8186333,935
0.8203,945
0.8219666,861
0.8236333,988
0.8253,903
0.8269666,1184
0.8286333,1168
0.8303,897
0.8319666,944
0.8336333,1072
0.8353,1062
0.8369667,979
0.8386334,865
0.8403,1048
0.8419667,914
0.8436334,995
0.8453,926
0.8469667,949
0.8486333,1015
0.8503,822
0.8519667,973
0.8536333,797
0.8553,788
0.8569667,758
0.8586333,784
0.8603,749
0.8619667,797
0.8636333,939
0.8653,1424
0.8669667,1759
0.8686333,1854
0.8703,2414
0.8719667,3178
0.8736333,3213
0.8753,3681
0.8769667,3614
0.8786333,3558
0.8803,3127
0.8819667,3256
0.8836333,3418
0.8853,3347
0.8869666,3167
0.8886333,2926
0.8903,2851
0.8919666,3194
0.8936333,3063
0.8953,2933
0.8969667,3129
0.8986334,3247
0.9003,3117
0.9019667,3333
0.9036334,3247
0.9053,3295
0.9069667,3343
0.9086334,3117
0.9103,3085
0.9119667,3083
0.9136333,3344
0.9153,3391
0.9169667,3469
0.9186333,3097
0.9203,3204
0.9219667,3346
0.9236333,3106
0.9253,3052
0.9269667,2706
0.9286333,2748
0.9303,2941
0.9319667,2921
0.9336333,2601
0.9353,2681
0.9369667,2802
0.9386333,2442
0.9403,2319
0.9419667,2156
0.9436333,1917
0.9453,2351
0.9469666,1835
0.9486333,1891
0.9503,1697
0.9519666,1884
0.9536333,1613
0.9553,1422
0.9569666,1378
0.9586333,1344
0.9603,1481
0.9619667,1265
0.9636334,1151
0.9653,1341
0.9669667,1014
0.9686334,998
0.9703,833
0.9719667,991
0.9736333,853
0.9753,738
0.9769667,846
0.9786333,806
0.9803,820
0.9819667,779
0.9836333,771
0.9853,891
0.9869667,529
0.9886333,624
0.9903,555
0.9919667,698
0.9936333,684
0.9953,752
0.9969667,715
0.9986333,796
1.0003,624
1.001967,470
1.003633,853
1.0053,730
1.006967,697
1.008633,556
1.0103,573
1.011967,663
1.013633,619
1.0153,509
1.016967,649
1.018633,537
1.0203,662
1.021967,621
1.023633,846
1.0253,813
1.026967,570
1.028633,635
1.0303,510
1.031967,666
1.033633,583
1.0353,586
1.036967,709
1.038633,765
1.0403,702
1.041967,679
1.043633,652
1.0453,544
1.046967,613
1.048633,756
1.0503,731
1.051967,649
1.053633,749
1.0553,748
1.056967,547
1.058633,668
1.0603,701
1.061967,643
1.063633,601
1.0653,505
1.066967,733
1.068633,669
1.0703,724
1.071967,555
1.073633,710
1.0753,614
1.076967,768
1.078633,682
1.0803,614
1.081967,630
1.083633,598
1.0853,606
1.086967,614
1.088633,801
1.0903,861
1.091967,513
1.093633,635
1.0953,765
1.096967,580
1.098633,548
1.1003,591
1.101967,584
1.103633,576
1.1053,557
1.106967,537
1.108633,536
1.1103,535
1.111967,420
1.113633,482
1.1153,545
1.116967,583
1.118633,622
1.1203,570
1.121967,645
1.123633,648
1.1253,652
1.126967,635
1.128633,618
1.1303,501
1.131967,589
1.133633,685
1.1353,646
1.136967,608
1.138633,640
1.1403,672
1.141967,694
1.143633,691
1.1453,716
1.146967,741
1.148633,652
1.1503,670
1.151967,689
1.153633,711
1.1553,732
1.156967,925
1.158633,903
1.1603,668
1.161967,929
1.163633,845
1.1653,896
1.166967,822
1.168633,864
1.1703,762
1.171967,814
1.173633,866
1.1753,908
1.176967,937
1.178633,690
1.1803,832
1.181967,1004
1.183633,969
1.1853,874
1.186967,797
1.188633,821
1.1903,841
1.191967,861
1.193633,953
1.1953,935
1.196967,793
1.198633,742
