"SampleName","A2Rd2_01-65"
"Target Mass 1",
"Column Name","IA-3 (3um, 4.6X100)"
"Channel","QDa 1: SIR Ch2"
0.00195,678
0.003616667,779
0.005283333,957
0.00695,923
0.008616666,871
0.01028333,836
0.01195,1012
0.01361667,958
0.01528333,823
0.01695,829
0.01861667,805
0.02028333,884
0.02195,820
0.02361667,755
0.02528333,894
0.02695,843
0.02861667,865
0.03028333,842
0.03195,791
0.03361667,996
0.03528333,988
0.03695,893
0.03861667,892
0.04028333,890
0.04195,918
0.04361667,946
0.04528333,811
0.04695,884
0.04861667,902
0.05028334,921
0.05195,1013
0.05361667,980
0.05528333,946
0.05695,967
0.05861667,1014
0.06028333,1042
0.06195,1069
0.06361666,1106
0.06528334,986
0.06695,1060
0.06861667,859
0.07028333,992
0.07195,1046
0.07361667,987
0.07528333,928
0.07695,1095
0.07861666,839
0.08028334,834
0.08195,915
0.08361667,994
0.08528333,673
0.08695,964
0.08861667,911
0.09028333,696
0.09195,782
0.09361666,926
0.09528334,974
0.09695,1092
0.09861667,961
0.1002833,935
0.10195,1023
0.1036167,888
0.1052833,1011
0.10695,956
0.1086167,894
0.1102833,1035
0.11195,885
0.1136167,979
0.1152833,922
0.11695,1096
0.1186167,1134
0.1202833,1104
0.12195,954
0.1236167,981
0.1252833,894
0.12695,724
0.1286167,707
0.1302833,856
0.13195,813
0.1336167,936
0.1352833,851
0.13695,949
0.1386167,937
0.1402833,1037
0.14195,798
0.1436167,1092
0.1452833,870
0.14695,899
0.1486167,1049
0.1502833,1025
0.15195,1031
0.1536167,940
0.1552833,801
0.15695,1094
0.1586167,986
0.1602833,961
0.16195,881
0.1636167,765
0.1652833,934
0.16695,1028
0.1686167,981
0.1702833,964
0.17195,948
0.1736167,970
0.1752833,950
0.17695,930
0.1786167,803
0.1802833,785
0.18195,767
0.1836167,1045
0.1852833,1006
0.18695,904
0.1886167,756
0.1902833,969
0.19195,1042
0.1936167,782
0.1952833,933
0.19695,963
0.1986167,1000
0.2003,1000
0.20195,999
0.2036167,1098
0.2052833,786
0.20695,1076
0.2086167,867
0.2103,900
0.21195,1091
0.2136167,1103
0.2152833,899
0.21695,1188
0.2186167,915
0.2202833,1171
0.22195,1209
0.2236167,1068
0.2252833,1158
0.2269667,1124
0.2286333,1038
0.2302833,967
0.23195,1061
0.2336333,1154
0.2352833,1107
0.23695,1193
0.2386167,1238
0.2402833,1267
0.24195,1126
0.2436167,1078
0.2453,1125
0.24695,1172
0.2486167,1199
0.2503,1069
0.25195,1099
0.2536167,1007
0.2552833,1001
0.25695,1003
0.2586167,946
0.2602833,976
0.26195,1034
0.2636333,1092
0.2652833,1128
0.2669667,1059
0.2686167,1061
0.2702833,1063
0.27195,1036
0.2736167,1040
0.2753,1044
0.27695,1029
0.2786167,1073
0.2803,978
0.2819667,1024
0.2836333,1071
0.2852833,1070
0.28695,1055
0.2886167,1041
0.2902833,980
0.2919667,1032
0.2936167,1017
0.2952833,1002
0.2969667,1197
0.2986333,1208
0.3003,1218
0.30195,1028
0.3036167,1091
0.3052833,1099
0.3069667,885
0.3086333,1000
0.3103,1210
0.31195,1346
0.3136167,1436
0.3153,1275
0.3169667,1310
0.3186333,1107
0.3202833,1209
0.32195,1219
0.3236333,1010
0.3253,991
0.32695,1090
0.3286167,1134
0.3303,1104
0.3319667,1074
0.3336333,1314
0.3352833,1293
0.3369667,1578
0.3386167,1497
0.3403,1045
0.3419667,1207
0.3436167,1301
0.3452833,1283
0.34695,1310
0.3486333,1287
0.3503,1264
0.3519667,1314
0.3536333,1331
0.3553,1241
0.3569667,1310
0.3586333,1353
0.3603,1380
0.3619667,1541
0.3636333,1493
0.3653,2786
0.3669667,3403
0.3686333,3553
0.3703,3791
0.3719667,3631
0.3736333,3471
0.3753,3387
0.3769667,3052
0.3786333,2717
0.3803,1974
0.3819667,1605
0.3836333,1265
0.3853,1206
0.3869667,1009
0.3886333,728
0.3903,712
0.3919667,600
0.3936333,536
0.3953,451
0.3969667,566
0.3986333,511
0.4003,538
0.4019667,496
0.4036333,742
0.4053,687
0.4069667,866
0.4086333,786
0.4103,930
0.4119667,891
0.4136333,997
0.4153,878
0.4169667,950
0.4186333,1021
0.4203,1085
0.4219667,1042
0.4236333,1100
0.4253,953
0.4269667,804
0.4286333,1097
0.4303,1136
0.4319667,1151
0.4336333,1075
0.4353,1158
0.4369667,1218
0.4386333,1163
0.4403,1238
0.4419667,1313
0.4436333,1342
0.4453,1371
0.4469667,1328
0.4486333,1396
0.4503,1415
0.4519667,1434
0.4536333,1484
0.4553,1482
0.4569667,1535
0.4586333,1588
0.4603,1617
0.4619667,1684
0.4636333,1752
0.4653,1670
0.4669667,1589
0.4686333,1583
0.4703,1536
0.4719667,1605
0.4736333,1555
0.4753,1506
0.4769667,1588
0.4786333,1228
0.4803,1381
0.4819667,1444
0.4836333,1506
0.4853,1560
0.4869667,1188
0.4886333,1497
0.4903,1561
0.4919667,1245
0.4936333,1465
0.4953,1133
0.4969667,1286
0.4986333,1262
0.5003,1296
0.5019667,1159
0.5036333,1129
0.5053,1253
0.5069667,1269
0.5086333,1162
0.5103,1111
0.5119666,1169
0.5136333,1043
0.5153,1016
0.5169666,1121
0.5186333,953
0.5203,979
0.5219667,1005
0.5236334,964
0.5253,923
0.5269667,975
0.5286334,1108
0.5303,1112
0.5319667,1104
0.5336334,1096
0.5353,1084
0.5369667,1085
0.5386333,1123
0.5403,963
0.5419667,1036
0.5436333,1109
0.5453,1125
0.5469667,949
0.5486333,1201
0.5503,981
0.5519667,918
0.5536333,1040
0.5553,802
0.5569667,1073
0.5586333,900
0.5603,866
0.5619667,1081
0.5636333,858
0.5653,832
0.5669667,1003
0.5686333,906
0.5703,1048
0.5719666,1040
0.5736333,1032
0.5753,1037
0.5769666,1042
0.5786333,841
0.5803,897
0.5819666,997
0.5836333,916
0.5853,894
0.5869667,872
0.5886334,951
0.5903,921
0.5919667,891
0.5936334,906
0.5953,920
0.5969667,945
0.5986333,975
0.6003,1006
0.6019667,1153
0.6036333,1133
0.6053,1114
0.6069667,1114
0.6086333,1158
0.6103,931
0.6119667,1078
0.6136333,996
0.6153,850
0.6169667,968
0.6186333,959
0.6203,950
0.6219667,965
0.6236333,980
0.6253,924
0.6269667,776
0.6286333,1101
0.6303,978
0.6319667,925
0.6336333,985
0.6353,898
0.6369666,883
0.6386333,862
0.6403,936
0.6419666,801
0.6436333,876
0.6453,847
0.6469667,819
0.6486334,838
0.6503,858
0.6519667,930
0.6536334,937
0.6553,773
0.6569667,722
0.6586334,887
0.6603,782
0.6619667,836
0.6636333,883
0.6653,825
0.6669667,766
0.6686333,796
0.6703,826
0.6719667,1018
0.6736333,1070
0.6753,771
0.6769667,996
0.6786333,1068
0.6803,821
0.6819667,807
0.6836333,776
0.6853,926
0.6869667,919
0.6886333,727
0.6903,942
0.6919667,674
0.6936333,747
0.6953,802
0.6969666,622
0.6986333,915
0.7003,965
0.7019666,682
0.7036333,921
0.7053,766
0.7069666,902
0.7086333,790
0.7103,719
0.7119667,853
0.7136334,829
0.7153,805
0.7169667,769
0.7186334,733
0.7203,813
0.7219667,726
0.7236333,758
0.7253,790
0.7269667,857
0.7286333,803
0.7303,749
0.7319667,677
0.7336333,878
0.7353,890
0.7369667,961
0.7386333,876
0.7403,852
0.7419667,917
0.7436333,940
0.7453,981
0.7469667,882
0.7486333,811
0.7503,811
0.7519667,858
0.7536333,905
0.7553,896
0.7569667,886
0.7586333,760
0.7603,828
0.7619666,896
0.7636333,948
0.7653,854
0.7669666,867
0.7686333,880
0.7703,881
0.7719667,882
0.7736334,845
0.7753,809
0.7769667,773
0.7786334,924
0.7803,877
0.7819667,841
0.7836334,804
0.7853,829
0.7869667,854
0.7886333,869
0.7903,884
0.7919667,859
0.7936333,834
0.7953,812
0.7969667,878
0.7986333,880
0.8003,882
0.8019667,811
0.8036333,915
0.8053,937
0.8069667,958
0.8086333,792
0.8103,802
0.8119667,838
0.8136333,899
0.8153,692
0.8169667,788
0.8186333,847
0.8203,906
0.8219666,869
0.8236333,746
0.8253,1116
0.8269666,1041
0.8286333,1122
0.8303,906
0.8319666,767
0.8336333,1002
0.8353,911
0.8369667,819
0.8386334,859
0.8403,782
0.8419667,806
0.8436334,818
0.8453,830
0.8469667,791
0.8486333,848
0.8503,840
0.8519667,822
0.8536333,805
0.8553,978
0.8569667,967
0.8586333,910
0.8603,908
0.8619667,906
0.8636333,917
0.8653,927
0.8669667,997
0.8686333,1067
0.8703,1100
0.8719667,1187
0.8736333,1306
0.8753,1536
0.8769667,1688
0.8786333,1596
0.8803,1651
0.8819667,1620
0.8836333,1589
0.8853,1490
0.8869666,1687
0.8886333,1370
0.8903,1625
0.8919666,1443
0.8936333,1816
0.8953,1768
0.8969667,1405
0.8986334,1643
0.9003,1497
0.9019667,1480
0.9036334,1686
0.9053,1687
0.9069667,1586
0.9086334,1403
0.9103,1458
0.9119667,1403
0.9136333,1480
0.9153,1557
0.9169667,1626
0.9186333,1700
0.9203,1707
0.9219667,1714
0.9236333,1401
0.9253,1542
0.9269667,1558
0.9286333,1588
0.9303,1576
0.9319667,1565
0.9336333,1716
0.9353,1708
0.9369667,1388
0.9386333,1544
0.9403,1455
0.9419667,1348
0.9436333,1312
0.9453,1447
0.9469666,1301
0.9486333,1218
0.9503,1304
0.9519666,1201
0.9536333,1202
0.9553,1120
0.9569666,1202
0.9586333,1199
0.9603,984
0.9619667,1018
0.9636334,920
0.9653,986
0.9669667,1012
0.9686334,914
0.9703,1039
0.9719667,953
0.9736333,834
0.9753,1021
0.9769667,965
0.9786333,994
0.9803,1044
0.9819667,835
0.9836333,957
0.9853,862
0.9869667,856
0.9886333,850
0.9903,851
0.9919667,837
0.9936333,812
0.9953,894
0.9969667,756
0.9986333,973
1.0003,1025
1.001967,726
1.003633,754
1.0053,765
1.006967,1035
1.008633,1123
1.0103,885
1.011967,1058
1.013633,841
1.0153,1036
1.016967,795
1.018633,836
1.0203,877
1.021967,971
1.023633,922
1.0253,1031
1.026967,1032
1.028633,816
1.0303,1008
1.031967,894
1.033633,842
1.0353,910
1.036967,856
1.038633,579
1.0403,667
1.041967,908
1.043633,848
1.0453,758
1.046967,807
1.048633,970
1.0503,1025
1.051967,824
1.053633,785
1.0553,825
1.056967,802
1.058633,779
1.0603,692
1.061967,880
1.063633,934
1.0653,787
1.066967,741
1.068633,873
1.0703,881
1.071967,950
1.073633,946
1.0753,942
1.076967,844
1.078633,941
1.0803,842
1.081967,950
1.083633,834
1.0853,727
1.086967,851
1.088633,867
1.0903,879
1.091967,840
1.093633,735
1.0953,972
1.096967,892
1.098633,906
1.1003,807
1.101967,631
1.103633,867
1.1053,979
1.106967,818
1.108633,836
1.1103,899
1.111967,814
1.113633,729
1.1153,784
1.116967,960
1.118633,983
1.1203,870
1.121967,925
1.123633,614
1.1253,889
1.126967,961
1.128633,832
1.1303,835
1.131967,751
1.133633,809
1.1353,856
1.136967,852
1.138633,814
1.1403,934
1.141967,648
1.143633,864
1.1453,715
1.146967,667
1.148633,872
1.1503,914
1.151967,890
1.153633,740
1.1553,695
1.156967,833
1.158633,841
1.1603,801
1.161967,843
1.163633,900
1.1653,928
1.166967,814
1.168633,807
1.1703,932
1.171967,883
1.173633,889
1.1753,857
1.176967,826
1.178633,760
1.1803,724
1.181967,834
1.183633,630
1.1853,788
1.186967,888
1.188633,1037
1.1903,902
1.191967,684
1.193633,895
1.1953,742
1.196967,880
1.198633,971
