"SampleName","A2Rd2_01-91"
"Target Mass 1",
"Column Name","IA-3 (3um, 4.6X100)"
"Channel","QDa 1: SIR Ch1"
0.00195,323
0.003616667,490
0.005283333,645
0.00695,500
0.008616666,718
0.01028333,647
0.01195,589
0.01361667,494
0.01528333,601
0.01695,593
0.01861667,586
0.02028333,702
0.02195,695
0.02361667,546
0.02528333,536
0.02695,635
0.02861667,627
0.03028333,544
0.03195,558
0.03361667,467
0.03528333,555
0.03695,596
0.03861667,637
0.04028333,593
0.04195,437
0.04361667,602
0.04528333,555
0.04695,382
0.04861667,488
0.05028334,546
0.05195,584
0.05361667,614
0.05528333,655
0.05695,474
0.05861667,611
0.06028333,526
0.06195,515
0.06361666,560
0.06528334,580
0.06695,599
0.06861667,602
0.07028333,486
0.07195,589
0.07361667,483
0.07528333,390
0.07695,475
0.07861666,441
0.08028334,514
0.08195,733
0.08361667,724
0.08528333,536
0.08695,542
0.08861667,597
0.09028333,590
0.09195,584
0.09361666,650
0.09528334,512
0.09695,526
0.09861667,597
0.1002833,452
0.10195,559
0.1036167,537
0.1052833,616
0.10695,392
0.1086167,592
0.1102833,696
0.11195,637
0.1136167,724
0.1152833,465
0.11695,488
0.1186167,467
0.1202833,546
0.12195,584
0.1236167,539
0.1252833,589
0.12695,579
0.1286167,569
0.1302833,577
0.13195,494
0.1336167,517
0.1352833,540
0.13695,498
0.1386167,456
0.1402833,482
0.14195,611
0.1436167,576
0.1452833,571
0.14695,451
0.1486167,479
0.1502833,455
0.15195,430
0.1536167,406
0.1552833,485
0.15695,496
0.1586167,507
0.1602833,473
0.16195,492
0.1636167,512
0.1652833,510
0.16695,423
0.1686167,335
0.1702833,370
0.17195,405
0.1736167,412
0.1752833,420
0.17695,534
0.1786167,568
0.1802833,514
0.18195,578
0.1836167,437
0.1852833,527
0.18695,467
0.1886167,545
0.1902833,432
0.19195,591
0.1936167,369
0.1952833,545
0.19695,460
0.1986167,480
0.2002833,483
0.20195,487
0.2036167,426
0.2052833,452
0.20695,478
0.2086167,387
0.2102833,530
0.21195,567
0.2136167,477
0.2152833,493
0.21695,510
0.2186167,597
0.2202833,574
0.22195,558
0.2236167,492
0.2252833,605
0.22695,477
0.2286333,506
0.2302833,434
0.23195,447
0.2336167,459
0.2352833,473
0.23695,470
0.2386167,467
0.2402833,482
0.24195,481
0.2436167,481
0.2453,460
0.24695,439
0.2486167,482
0.2503,457
0.25195,432
0.2536167,445
0.2552833,593
0.25695,568
0.2586167,463
0.2602833,510
0.26195,459
0.2636333,500
0.2652833,541
0.26695,608
0.2686167,393
0.2702833,442
0.27195,612
0.2736167,584
0.2752833,546
0.27695,571
0.2786167,665
0.2803,442
0.28195,560
0.2836167,480
0.2852833,521
0.28695,535
0.2886333,534
0.2902833,381
0.29195,648
0.2936167,583
0.2952833,691
0.2969667,494
0.2986333,522
0.3003,545
0.30195,468
0.3036167,466
0.3053,464
0.30695,426
0.3086167,389
0.3102833,505
0.31195,611
0.3136333,550
0.3153,491
0.31695,535
0.3186333,578
0.3202833,567
0.3219667,593
0.3236167,620
0.3252833,489
0.32695,478
0.3286167,544
0.3303,540
0.33195,516
0.3336333,615
0.3353,568
0.33695,521
0.3386333,652
0.3402833,632
0.34195,521
0.3436167,582
0.3452833,615
0.3469667,537
0.3486333,566
0.3503,596
0.3519667,476
0.3536333,408
0.3553,459
0.3569667,509
0.3586333,572
0.3603,606
0.3619667,628
0.3636333,819
0.3653,1332
0.3669667,2055
0.3686333,3091
0.3703,4169
0.3719667,5286
0.3736333,5933
0.3753,6058
0.3769667,6668
0.3786333,6362
0.3803,6056
0.3819667,5889
0.3836333,4308
0.3853,4639
0.3869667,3978
0.3886333,3271
0.3903,2712
0.3919667,2289
0.3936333,1986
0.3953,1408
0.3969667,1364
0.3986333,1208
0.4003,954
0.4019667,924
0.4036333,1266
0.4053,926
0.4069667,806
0.4086333,1069
0.4103,1028
0.4119667,1042
0.4136333,1067
0.4153,1053
0.4169667,1039
0.4186333,1042
0.4203,1080
0.4219667,1117
0.4236333,924
0.4253,1015
0.4269667,1106
0.4286333,1011
0.4303,1112
0.4319667,1214
0.4336333,1879
0.4353,2214
0.4369667,3464
0.4386333,5740
0.4403,9268
0.4419667,14732
0.4436333,22804
0.4453,35024
0.4469667,49104
0.4486333,69408
0.4503,94976
0.4519667,121168
0.4536333,148608
0.4553,175616
0.4569667,204096
0.4586333,239040
0.4603,266112
0.4619667,286464
0.4636333,311808
0.4653,333760
0.4669667,364992
0.4686333,391040
0.4703,424384
0.4719667,448768
0.4736333,470272
0.4753,485696
0.4769667,499392
0.4786333,501248
0.4803,487872
0.4819667,470080
0.4836333,438144
0.4853,398080
0.4869667,354240
0.4886333,310336
0.4903,260992
0.4919667,218304
0.4936333,182976
0.4953,147712
0.4969667,118848
0.4986333,94528
0.5003,76496
0.5019667,59872
0.5036333,48160
0.5053,36608
0.5069667,30444
0.5086333,24568
0.5103,21064
0.5119666,17544
0.5136333,14624
0.5153,12564
0.5169666,11464
0.5186333,10628
0.5203,9356
0.5219667,8916
0.5236334,8121
0.5253,7727
0.5269667,7617
0.5286334,6325
0.5303,6161
0.5319667,6098
0.5336334,5591
0.5353,5323
0.5369667,5292
0.5386333,5090
0.5403,5314
0.5419667,4471
0.5436333,4061
0.5453,4180
0.5469667,4293
0.5486333,3524
0.5503,3719
0.5519667,3774
0.5536333,3407
0.5553,3076
0.5569667,3018
0.5586333,2842
0.5603,3158
0.5619667,2820
0.5636333,2806
0.5653,2427
0.5669667,2678
0.5686333,2021
0.5703,2405
0.5719666,2555
0.5736333,2245
0.5753,2506
0.5769666,2400
0.5786333,2162
0.5803,1854
0.5819666,2152
0.5836333,1971
0.5853,1865
0.5869667,1994
0.5886334,2112
0.5903,2077
0.5919667,2041
0.5936334,2190
0.5953,1733
0.5969667,1837
0.5986333,1965
0.6003,1963
0.6019667,1686
0.6036333,1918
0.6053,1736
0.6069667,1702
0.6086333,1567
0.6103,1511
0.6119667,1455
0.6136333,1715
0.6153,1649
0.6169667,1632
0.6186333,1338
0.6203,1453
0.6219667,1586
0.6236333,1307
0.6253,1496
0.6269667,1148
0.6286333,1347
0.6303,1565
0.6319667,1339
0.6336333,1236
0.6353,1339
0.6369666,1266
0.6386333,1094
0.6403,1293
0.6419666,1103
0.6436333,1165
0.6453,1040
0.6469667,1015
0.6486334,990
0.6503,1127
0.6519667,1143
0.6536334,1158
0.6553,966
0.6569667,1216
0.6586334,1136
0.6603,1002
0.6619667,1190
0.6636333,1146
0.6653,1181
0.6669667,909
0.6686333,994
0.6703,1167
0.6719667,1004
0.6736333,1103
0.6753,1156
0.6769667,1114
0.6786333,1116
0.6803,1055
0.6819667,1110
0.6836333,1044
0.6853,1057
0.6869667,862
0.6886333,919
0.6903,937
0.6919667,875
0.6936333,901
0.6953,957
0.6969666,1030
0.6986333,1014
0.7003,823
0.7019666,821
0.7036333,843
0.7053,764
0.7069666,685
0.7086333,950
0.7103,938
0.7119667,1092
0.7136334,1023
0.7153,899
0.7169667,1007
0.7186334,817
0.7203,891
0.7219667,935
0.7236333,975
0.7253,787
0.7269667,932
0.7286333,677
0.7303,869
0.7319667,907
0.7336333,950
0.7353,754
0.7369667,925
0.7386333,954
0.7403,936
0.7419667,919
0.7436333,813
0.7453,855
0.7469667,814
0.7486333,872
0.7503,879
0.7519667,876
0.7536333,635
0.7553,829
0.7569667,686
0.7586333,877
0.7603,911
0.7619666,1003
0.7636333,1003
0.7653,770
0.7669666,849
0.7686333,965
0.7703,816
0.7719667,816
0.7736334,813
0.7753,811
0.7769667,679
0.7786334,774
0.7803,868
0.7819667,899
0.7836334,901
0.7853,903
0.7869667,842
0.7886333,872
0.7903,751
0.7919667,920
0.7936333,690
0.7953,886
0.7969667,806
0.7986333,903
0.8003,813
0.8019667,776
0.8036333,707
0.8053,838
0.8069667,777
0.8086333,850
0.8103,671
0.8119667,762
0.8136333,820
0.8153,938
0.8169667,890
0.8186333,838
0.8203,989
0.8219666,1017
0.8236333,832
0.8253,896
0.8269666,925
0.8286333,824
0.8303,883
0.8319666,924
0.8336333,887
0.8353,851
0.8369667,974
0.8386334,694
0.8403,952
0.8419667,653
0.8436334,917
0.8453,911
0.8469667,974
0.8486333,921
0.8503,810
0.8519667,878
0.8536333,732
0.8553,716
0.8569667,784
0.8586333,852
0.8603,847
0.8619667,763
0.8636333,736
0.8653,809
0.8669667,853
0.8686333,779
0.8703,705
0.8719667,744
0.8736333,750
0.8753,795
0.8769667,958
0.8786333,1279
0.8803,1447
0.8819667,1895
0.8836333,2117
0.8853,2373
0.8869666,2561
0.8886333,2748
0.8903,2781
0.8919666,2815
0.8936333,3144
0.8953,3239
0.8969667,3047
0.8986334,3270
0.9003,3286
0.9019667,3368
0.9036334,3319
0.9053,3270
0.9069667,2958
0.9086334,3143
0.9103,3112
0.9119667,3081
0.9136333,2951
0.9153,3240
0.9169667,3177
0.9186333,3153
0.9203,3130
0.9219667,3178
0.9236333,3166
0.9253,3184
0.9269667,2901
0.9286333,3178
0.9303,3079
0.9319667,3063
0.9336333,3069
0.9353,2994
0.9369667,2601
0.9386333,2788
0.9403,2775
0.9419667,2897
0.9436333,2905
0.9453,2296
0.9469666,2541
0.9486333,2225
0.9503,2397
0.9519666,1874
0.9536333,1858
0.9553,2133
0.9569666,1930
0.9586333,1668
0.9603,1871
0.9619667,1820
0.9636334,1477
0.9653,1468
0.9669667,1327
0.9686334,1391
0.9703,1230
0.9719667,1264
0.9736333,1002
0.9753,1169
0.9769667,973
0.9786333,977
0.9803,923
0.9819667,1035
0.9836333,668
0.9853,663
0.9869667,828
0.9886333,631
0.9903,753
0.9919667,595
0.9936333,635
0.9953,631
0.9969667,587
0.9986333,542
1.0003,601
1.001967,604
1.003633,607
1.0053,613
1.006967,636
1.008633,659
1.0103,419
1.011967,681
1.013633,565
1.0153,533
1.016967,500
1.018633,519
1.0203,538
1.021967,549
1.023633,548
1.0253,547
1.026967,522
1.028633,497
1.0303,653
1.031967,646
1.033633,640
1.0353,683
1.036967,684
1.038633,684
1.0403,631
1.041967,712
1.043633,707
1.0453,703
1.046967,668
1.048633,632
1.0503,646
1.051967,640
1.053633,618
1.0553,595
1.056967,514
1.058633,617
1.0603,600
1.061967,584
1.063633,611
1.0653,612
1.066967,613
1.068633,655
1.0703,539
1.071967,684
1.073633,756
1.0753,640
1.076967,641
1.078633,642
1.0803,659
1.081967,651
1.083633,644
1.0853,536
1.086967,573
1.088633,588
1.0903,542
1.091967,496
1.093633,632
1.0953,666
1.096967,748
1.098633,747
1.1003,692
1.101967,747
1.103633,720
1.1053,683
1.106967,721
1.108633,562
1.1103,672
1.111967,586
1.113633,648
1.1153,581
1.116967,641
1.118633,580
1.1203,620
1.121967,623
1.123633,627
1.1253,609
1.126967,544
1.128633,539
1.1303,533
1.131967,562
1.133633,676
1.1353,685
1.136967,794
1.138633,762
1.1403,532
1.141967,645
1.143633,624
1.1453,762
1.146967,790
1.148633,592
1.1503,694
1.151967,664
1.153633,663
1.1553,662
1.156967,691
1.158633,703
1.1603,715
1.161967,687
1.163633,773
1.1653,749
1.166967,725
1.168633,779
1.1703,786
1.171967,784
1.173633,782
1.1753,665
1.176967,818
1.178633,802
1.1803,916
1.181967,896
1.183633,890
1.1853,840
1.186967,750
1.188633,796
1.1903,663
1.191967,696
1.193633,729
1.1953,852
1.196967,812
1.198633,770
