"SampleName","A2Rd2_01-25"
"Target Mass 1",
"Column Name","IA-3 (3um, 4.6X100)"
"Channel","QDa 1: SIR Ch1"
0.00195,260
0.003616667,466
0.005283333,488
0.00695,508
0.008616666,501
0.01028333,493
0.01195,510
0.01361667,527
0.01528333,413
0.01695,606
0.01861667,603
0.02028333,652
0.02195,511
0.02361667,670
0.02528333,526
0.02695,449
0.02861667,511
0.03028333,393
0.03195,431
0.03361667,469
0.03528333,471
0.03695,472
0.03861667,482
0.04028333,491
0.04195,533
0.04361667,372
0.04528333,423
0.04695,453
0.04861667,517
0.05028334,515
0.05195,514
0.05361667,531
0.05528333,548
0.05695,549
0.05861667,523
0.06028333,476
0.06195,479
0.06361666,493
0.06528334,521
0.06695,549
0.06861667,415
0.07028333,518
0.07195,465
0.07361667,511
0.07528333,411
0.07695,452
0.07861666,500
0.08028334,497
0.08195,358
0.08361667,431
0.08528333,570
0.08695,553
0.08861667,305
0.09028333,404
0.09195,515
0.09361666,471
0.09528334,506
0.09695,408
0.09861667,413
0.1002833,474
0.10195,261
0.1036167,424
0.1052833,426
0.10695,428
0.1086167,376
0.1102833,456
0.11195,396
0.1136167,407
0.1152833,417
0.11695,341
0.1186167,559
0.1202833,520
0.12195,480
0.1236167,450
0.1252833,602
0.12695,336
0.1286167,408
0.1302833,453
0.13195,390
0.1336167,546
0.1352833,530
0.13695,297
0.1386167,369
0.1402833,390
0.14195,453
0.1436167,391
0.1452833,375
0.14695,366
0.1486167,527
0.1502833,521
0.15195,566
0.1536167,532
0.1552833,499
0.15695,598
0.1586167,469
0.1602833,510
0.16195,522
0.1636167,511
0.1652833,500
0.16695,506
0.1686167,511
0.1702833,519
0.17195,526
0.1736167,381
0.1752833,471
0.17695,462
0.1786167,389
0.1802833,463
0.18195,490
0.1836167,394
0.1852833,493
0.18695,506
0.1886167,591
0.1902833,365
0.19195,456
0.1936167,485
0.1952833,532
0.19695,320
0.1986167,347
0.2002833,476
0.20195,488
0.2036167,480
0.2052833,414
0.20695,494
0.2086167,441
0.2102833,532
0.21195,508
0.2136167,514
0.2152833,502
0.21695,487
0.2186167,428
0.2202833,561
0.22195,327
0.2236167,569
0.2252833,544
0.22695,538
0.2286167,396
0.2302833,546
0.23195,449
0.2336167,445
0.2352833,544
0.23695,460
0.2386167,507
0.2402833,524
0.24195,522
0.2436167,538
0.2453,329
0.24695,400
0.2486167,459
0.2502833,431
0.25195,522
0.2536167,497
0.2552833,372
0.25695,412
0.2586167,417
0.2602833,416
0.26195,415
0.2636333,407
0.2652833,398
0.26695,410
0.2686167,422
0.2702833,439
0.27195,434
0.2736167,428
0.2752833,444
0.27695,460
0.2786167,424
0.2803,388
0.28195,585
0.2836167,662
0.2852833,540
0.28695,456
0.2886167,548
0.2902833,501
0.29195,465
0.2936167,468
0.2952833,454
0.29695,497
0.2986333,540
0.3002833,402
0.30195,581
0.3036167,497
0.3052833,549
0.30695,395
0.3086167,410
0.3102833,409
0.31195,463
0.3136167,528
0.3153,525
0.31695,483
0.3186167,500
0.3202833,517
0.32195,598
0.3236167,555
0.3252833,511
0.3269667,490
0.3286333,563
0.3303,433
0.33195,457
0.3336333,439
0.3352833,421
0.3369667,433
0.3386167,576
0.3403,544
0.34195,535
0.3436167,500
0.3453,514
0.34695,510
0.3486167,580
0.3503,498
0.35195,415
0.3536333,495
0.3552833,498
0.35695,502
0.3586167,487
0.3602833,616
0.3619667,606
0.3636333,1026
0.3653,1993
0.36695,4144
0.3686333,7078
0.3703,10132
0.3719667,11024
0.3736167,12444
0.3753,9672
0.37695,8976
0.3786333,5786
0.3802833,4351
0.3819667,3931
0.3836167,3447
0.3853,2960
0.3869667,2396
0.3886333,1908
0.3902833,1385
0.3919667,1388
0.3936167,1324
0.3953,1276
0.3969667,1207
0.3986333,1233
0.4002833,1111
0.4019667,1186
0.4036333,1225
0.4053,1046
0.4069667,1250
0.4086333,1196
0.4103,1430
0.4119667,1454
0.4136167,1444
0.4153,1374
0.4169667,1478
0.4186333,1480
0.4203,1481
0.4219667,1308
0.4236333,1451
0.4253,1102
0.4269667,1092
0.4286333,931
0.4303,1160
0.4319667,994
0.4336333,1254
0.4353,1588
0.4369667,2352
0.4386333,3080
0.4403,4021
0.4419667,6400
0.4436333,7582
0.4453,10232
0.4469667,13424
0.4486333,17316
0.4503,21056
0.4519667,28408
0.4536333,37984
0.4553,48016
0.4569667,65904
0.4586333,89744
0.4603,117104
0.4619667,153408
0.4636333,185920
0.4653,227584
0.4669667,264832
0.4686333,299456
0.4703,311680
0.4719667,318272
0.4736333,308224
0.4753,288576
0.4769667,255744
0.4786333,222528
0.4803,181504
0.4819667,147392
0.4836333,113472
0.4853,89936
0.4869667,68112
0.4886333,52224
0.4903,40688
0.4919667,30800
0.4936333,24780
0.4953,19272
0.4969667,15804
0.4986333,12856
0.5003,11772
0.5019667,10040
0.5036333,8592
0.5053,7339
0.5069667,6471
0.5086333,6130
0.5103,5436
0.5119666,5258
0.5136333,4567
0.5153,4251
0.5169666,3670
0.5186333,3438
0.5203,3745
0.5219667,3105
0.5236334,3019
0.5253,3046
0.5269667,2960
0.5286334,2875
0.5303,3037
0.5319667,2457
0.5336334,2673
0.5353,2728
0.5369667,2587
0.5386333,2481
0.5403,2012
0.5419667,2448
0.5436333,2151
0.5453,2207
0.5469667,2035
0.5486333,1852
0.5503,2005
0.5519667,1813
0.5536333,1678
0.5553,1774
0.5569667,1524
0.5586333,1446
0.5603,1540
0.5619667,1370
0.5636333,1563
0.5653,1437
0.5669667,1540
0.5686333,1410
0.5703,1496
0.5719666,1253
0.5736333,1317
0.5753,1134
0.5769666,1383
0.5786333,1095
0.5803,1114
0.5819666,1297
0.5836333,1008
0.5853,1317
0.5869667,1256
0.5886334,1436
0.5903,1373
0.5919667,1310
0.5936334,1188
0.5953,1499
0.5969667,1448
0.5986333,1337
0.6003,1368
0.6019667,1320
0.6036333,1184
0.6053,1353
0.6069667,1163
0.6086333,1360
0.6103,1219
0.6119667,1349
0.6136333,1342
0.6153,1334
0.6169667,1102
0.6186333,1245
0.6203,1270
0.6219667,1117
0.6236333,1250
0.6253,931
0.6269667,1103
0.6286333,1256
0.6303,932
0.6319667,1077
0.6336333,874
0.6353,1021
0.6369666,901
0.6386333,970
0.6403,898
0.6419666,842
0.6436333,872
0.6453,851
0.6469667,831
0.6486334,787
0.6503,619
0.6519667,646
0.6536334,781
0.6553,790
0.6569667,766
0.6586334,797
0.6603,806
0.6619667,814
0.6636333,820
0.6653,835
0.6669667,733
0.6686333,762
0.6703,809
0.6719667,656
0.6736333,763
0.6753,759
0.6769667,754
0.6786333,553
0.6803,618
0.6819667,714
0.6836333,703
0.6853,801
0.6869667,789
0.6886333,777
0.6903,730
0.6919667,729
0.6936333,722
0.6953,715
0.6969666,798
0.6986333,805
0.7003,708
0.7019666,786
0.7036333,721
0.7053,751
0.7069666,627
0.7086333,695
0.7103,677
0.7119667,669
0.7136334,679
0.7153,620
0.7169667,562
0.7186334,616
0.7203,671
0.7219667,752
0.7236333,708
0.7253,582
0.7269667,583
0.7286333,635
0.7303,754
0.7319667,776
0.7336333,686
0.7353,725
0.7369667,666
0.7386333,726
0.7403,621
0.7419667,610
0.7436333,599
0.7453,759
0.7469667,746
0.7486333,715
0.7503,790
0.7519667,698
0.7536333,776
0.7553,836
0.7569667,798
0.7586333,761
0.7603,679
0.7619666,815
0.7636333,621
0.7653,688
0.7669666,639
0.7686333,612
0.7703,585
0.7719667,638
0.7736334,643
0.7753,697
0.7769667,694
0.7786334,578
0.7803,615
0.7819667,653
0.7836334,554
0.7853,682
0.7869667,613
0.7886333,648
0.7903,517
0.7919667,679
0.7936333,520
0.7953,623
0.7969667,699
0.7986333,635
0.8003,496
0.8019667,498
0.8036333,684
0.8053,718
0.8069667,667
0.8086333,670
0.8103,484
0.8119667,634
0.8136333,792
0.8153,847
0.8169667,700
0.8186333,850
0.8203,757
0.8219666,689
0.8236333,906
0.8253,687
0.8269666,778
0.8286333,700
0.8303,672
0.8319666,643
0.8336333,704
0.8353,764
0.8369667,801
0.8386334,984
0.8403,925
0.8419667,850
0.8436334,1016
0.8453,965
0.8469667,801
0.8486333,848
0.8503,901
0.8519667,885
0.8536333,649
0.8553,874
0.8569667,656
0.8586333,709
0.8603,733
0.8619667,721
0.8636333,535
0.8653,756
0.8669667,828
0.8686333,631
0.8703,705
0.8719667,619
0.8736333,729
0.8753,760
0.8769667,854
0.8786333,847
0.8803,1193
0.8819667,1702
0.8836333,1886
0.8853,2169
0.8869666,2607
0.8886333,3159
0.8903,3179
0.8919666,3423
0.8936333,3461
0.8953,3494
0.8969667,3428
0.8986334,3361
0.9003,3307
0.9019667,3252
0.9036334,3516
0.9053,3488
0.9069667,3598
0.9086334,3528
0.9103,3392
0.9119667,3568
0.9136333,3745
0.9153,3763
0.9169667,3402
0.9186333,3163
0.9203,3196
0.9219667,3202
0.9236333,3305
0.9253,3408
0.9269667,3016
0.9286333,3304
0.9303,3204
0.9319667,3436
0.9336333,3227
0.9353,3323
0.9369667,3262
0.9386333,2898
0.9403,2929
0.9419667,2539
0.9436333,2695
0.9453,2796
0.9469666,2566
0.9486333,2553
0.9503,2426
0.9519666,2165
0.9536333,2164
0.9553,1731
0.9569666,1926
0.9586333,1759
0.9603,1594
0.9619667,1414
0.9636334,1704
0.9653,1517
0.9669667,1097
0.9686334,1366
0.9703,957
0.9719667,1093
0.9736333,995
0.9753,872
0.9769667,777
0.9786333,939
0.9803,718
0.9819667,606
0.9836333,540
0.9853,738
0.9869667,570
0.9886333,700
0.9903,654
0.9919667,658
0.9936333,528
0.9953,521
0.9969667,671
0.9986333,727
1.0003,664
1.001967,478
1.003633,555
1.0053,618
1.006967,458
1.008633,555
1.0103,596
1.011967,585
1.013633,599
1.0153,700
1.016967,382
1.018633,648
1.0203,577
1.021967,486
1.023633,603
1.0253,461
1.026967,401
1.028633,592
1.0303,534
1.031967,529
1.033633,534
1.0353,540
1.036967,553
1.038633,642
1.0403,330
1.041967,437
1.043633,667
1.0453,659
1.046967,521
1.048633,660
1.0503,595
1.051967,610
1.053633,530
1.0553,589
1.056967,620
1.058633,639
1.0603,657
1.061967,606
1.063633,684
1.0653,476
1.066967,593
1.068633,615
1.0703,656
1.071967,632
1.073633,646
1.0753,717
1.076967,484
1.078633,560
1.0803,670
1.081967,519
1.083633,623
1.0853,634
1.086967,547
1.088633,579
1.0903,611
1.091967,721
1.093633,741
1.0953,790
1.096967,566
1.098633,586
1.1003,698
1.101967,594
1.103633,597
1.1053,615
1.106967,580
1.108633,605
1.1103,631
1.111967,671
1.113633,710
1.1153,472
1.116967,659
1.118633,649
1.1203,461
1.121967,666
1.123633,716
1.1253,666
1.126967,624
1.128633,582
1.1303,573
1.131967,510
1.133633,555
1.1353,600
1.136967,595
1.138633,611
1.1403,626
1.141967,439
1.143633,651
1.1453,604
1.146967,557
1.148633,717
1.1503,710
1.151967,577
1.153633,715
1.1553,683
1.156967,628
1.158633,697
1.1603,641
1.161967,563
1.163633,708
1.1653,690
1.166967,672
1.168633,696
1.1703,787
1.171967,749
1.173633,712
1.1753,793
1.176967,803
1.178633,834
1.1803,789
1.181967,744
1.183633,767
1.1853,757
1.186967,748
1.188633,896
1.1903,917
1.191967,820
1.193633,987
1.1953,722
1.196967,938
1.198633,759
