"SampleName","A2Rd2_01-2"
"Target Mass 1",
"Column Name","IA-3 (3um, 4.6X100)"
"Channel","QDa 1: SIR Ch2"
0.00195,531
0.003616667,606
0.005283333,585
0.00695,649
0.008616666,849
0.01028333,810
0.01195,746
0.01361667,873
0.01528333,731
0.01695,705
0.01861667,806
0.02028333,726
0.02195,676
0.02361667,936
0.02528333,1059
0.02695,935
0.02861667,764
0.03028333,780
0.03195,739
0.03361667,725
0.03528333,789
0.03695,853
0.03861667,949
0.04028333,930
0.04195,910
0.04361667,921
0.04528333,832
0.04695,853
0.04861667,901
0.05028334,868
0.05195,805
0.05361667,827
0.05528333,804
0.05695,781
0.05861667,625
0.06028333,819
0.06195,860
0.06361666,877
0.06528334,828
0.06695,711
0.06861667,985
0.07028333,922
0.07195,824
0.07361667,874
0.07528333,581
0.07695,1080
0.07861666,1098
0.08028334,879
0.08195,681
0.08361667,788
0.08528333,747
0.08695,707
0.08861667,888
0.09028333,956
0.09195,804
0.09361666,812
0.09528334,870
0.09695,741
0.09861667,817
0.1002833,566
0.10195,966
0.1036167,936
0.1052833,1106
0.10695,871
0.1086167,779
0.1102833,758
0.11195,783
0.1136167,808
0.1152833,828
0.11695,847
0.1186167,924
0.1202833,937
0.12195,798
0.1236167,919
0.1252833,808
0.12695,708
0.1286167,893
0.1302833,766
0.13195,672
0.1336167,716
0.1352833,761
0.13695,721
0.1386167,682
0.1402833,782
0.14195,796
0.1436167,786
0.1452833,716
0.14695,822
0.1486167,964
0.1502833,943
0.15195,563
0.1536167,613
0.1552833,607
0.15695,773
0.1586167,831
0.1602833,514
0.16195,631
0.1636167,884
0.1652833,798
0.16695,833
0.1686167,835
0.1702833,797
0.17195,587
0.1736167,841
0.1752833,836
0.17695,770
0.1786167,750
0.1802833,730
0.18195,738
0.1836167,746
0.1852833,592
0.18695,820
0.1886167,611
0.1902833,676
0.19195,741
0.1936167,754
0.1952833,766
0.19695,681
0.1986167,712
0.2002833,743
0.20195,713
0.2036167,684
0.2052833,770
0.20695,856
0.2086167,912
0.2102833,874
0.21195,904
0.2136167,769
0.2152833,821
0.21695,849
0.2186167,877
0.2202833,909
0.22195,942
0.2236167,1165
0.2252833,1104
0.22695,1013
0.2286167,1040
0.2302833,1117
0.23195,1194
0.2336167,1214
0.2352833,1125
0.23695,1088
0.2386167,1115
0.2402833,1117
0.24195,927
0.2436167,1158
0.2452833,1238
0.24695,943
0.2486167,1079
0.2502833,1190
0.25195,1213
0.2536167,1117
0.2552833,1148
0.25695,1125
0.2586167,969
0.2602833,987
0.26195,1037
0.2636333,990
0.2652833,943
0.26695,968
0.2686167,1101
0.2702833,1090
0.27195,1079
0.2736167,1107
0.2752833,1051
0.27695,942
0.2786167,1082
0.2803,1111
0.28195,1010
0.2836167,857
0.2852833,1053
0.28695,999
0.2886167,948
0.2902833,789
0.29195,934
0.2936167,991
0.2952833,1191
0.29695,1066
0.2986333,1042
0.3002833,910
0.30195,1152
0.3036167,1161
0.3052833,1148
0.30695,872
0.3086167,912
0.3102833,993
0.3119667,949
0.3136167,1051
0.3153,1053
0.31695,1110
0.3186167,953
0.3202833,1045
0.3219667,1019
0.3236167,1082
0.3252833,1058
0.32695,928
0.3286167,1316
0.3302833,1363
0.33195,1481
0.3336333,1252
0.3352833,1224
0.33695,1284
0.3386167,1371
0.3403,1328
0.34195,1286
0.3436333,1474
0.3452833,1160
0.34695,1161
0.3486167,1278
0.3503,1373
0.35195,1406
0.3536167,1397
0.3553,1388
0.35695,1260
0.3586167,1381
0.3603,1256
0.36195,1548
0.3636333,3387
0.3652833,5049
0.3669667,5925
0.3686333,5734
0.3703,5036
0.3719667,4361
0.3736333,2862
0.3753,2307
0.3769667,1778
0.3786167,1482
0.3803,1421
0.38195,1095
0.3836333,1055
0.3853,1050
0.3869667,1015
0.3886333,980
0.3902833,1248
0.3919667,1287
0.3936167,1069
0.3953,1056
0.39695,945
0.3986333,879
0.4002833,792
0.40195,742
0.4036333,751
0.4053,707
0.4069667,692
0.4086333,678
0.4102833,804
0.4119667,821
0.4136333,759
0.4153,660
0.4169667,666
0.4186333,600
0.4203,842
0.4219667,860
0.4236333,719
0.4253,760
0.4269667,855
0.4286333,823
0.4303,790
0.4319667,1051
0.4336333,1022
0.4353,962
0.4369667,959
0.4386333,956
0.4403,989
0.4419667,1022
0.4436333,1084
0.4453,1125
0.4469667,1041
0.4486333,958
0.4503,965
0.4519667,973
0.4536333,1246
0.4553,1250
0.4569667,1351
0.4586333,1545
0.4603,1580
0.4619667,1450
0.4636333,1667
0.4653,1745
0.4669667,1488
0.4686333,1504
0.4703,1566
0.4719667,1491
0.4736333,1575
0.4753,1659
0.4769667,1585
0.4786333,1510
0.4803,1477
0.4819667,1413
0.4836333,1329
0.4853,1190
0.4869667,1209
0.4886333,1280
0.4903,1215
0.4919667,1022
0.4936333,1059
0.4953,1108
0.4969667,1132
0.4986333,1112
0.5003,1091
0.5019667,1114
0.5036333,1136
0.5053,1141
0.5069667,894
0.5086333,988
0.5103,972
0.5119666,1009
0.5136333,1047
0.5153,734
0.5169666,807
0.5186333,796
0.5203,818
0.5219667,844
0.5236334,870
0.5253,919
0.5269667,968
0.5286334,922
0.5303,876
0.5319667,978
0.5336334,766
0.5353,838
0.5369667,1086
0.5386333,949
0.5403,1052
0.5419667,946
0.5436333,1005
0.5453,970
0.5469667,849
0.5486333,760
0.5503,939
0.5519667,844
0.5536333,993
0.5553,956
0.5569667,919
0.5586333,1029
0.5603,845
0.5619667,880
0.5636333,940
0.5653,868
0.5669667,823
0.5686333,938
0.5703,904
0.5719666,784
0.5736333,849
0.5753,887
0.5769666,932
0.5786333,897
0.5803,862
0.5819666,958
0.5836333,795
0.5853,943
0.5869667,878
0.5886334,1090
0.5903,1043
0.5919667,931
0.5936334,834
0.5953,995
0.5969667,928
0.5986333,972
0.6003,782
0.6019667,1056
0.6036333,860
0.6053,1018
0.6069667,924
0.6086333,843
0.6103,926
0.6119667,979
0.6136333,840
0.6153,758
0.6169667,713
0.6186333,710
0.6203,707
0.6219667,792
0.6236333,877
0.6253,918
0.6269667,943
0.6286333,851
0.6303,900
0.6319667,895
0.6336333,844
0.6353,793
0.6369666,797
0.6386333,871
0.6403,897
0.6419666,923
0.6436333,893
0.6453,864
0.6469667,894
0.6486334,859
0.6503,932
0.6519667,914
0.6536334,890
0.6553,747
0.6569667,783
0.6586334,786
0.6603,716
0.6619667,752
0.6636333,787
0.6653,769
0.6669667,750
0.6686333,759
0.6703,774
0.6719667,762
0.6736333,749
0.6753,785
0.6769667,821
0.6786333,892
0.6803,959
0.6819667,945
0.6836333,870
0.6853,784
0.6869667,886
0.6886333,929
0.6903,1014
0.6919667,735
0.6936333,716
0.6953,1014
0.6969666,749
0.6986333,796
0.7003,812
0.7019666,780
0.7036333,748
0.7053,761
0.7069666,592
0.7086333,656
0.7103,691
0.7119667,725
0.7136334,780
0.7153,834
0.7169667,966
0.7186334,976
0.7203,988
0.7219667,859
0.7236333,804
0.7253,829
0.7269667,843
0.7286333,857
0.7303,895
0.7319667,695
0.7336333,999
0.7353,905
0.7369667,830
0.7386333,873
0.7403,947
0.7419667,625
0.7436333,808
0.7453,806
0.7469667,732
0.7486333,739
0.7503,728
0.7519667,694
0.7536333,841
0.7553,793
0.7569667,744
0.7586333,766
0.7603,890
0.7619666,829
0.7636333,768
0.7653,656
0.7669666,735
0.7686333,718
0.7703,701
0.7719667,792
0.7736334,786
0.7753,710
0.7769667,770
0.7786334,619
0.7803,692
0.7819667,745
0.7836334,762
0.7853,894
0.7869667,855
0.7886333,815
0.7903,701
0.7919667,821
0.7936333,819
0.7953,818
0.7969667,837
0.7986333,856
0.8003,884
0.8019667,912
0.8036333,752
0.8053,923
0.8069667,873
0.8086333,971
0.8103,1005
0.8119667,819
0.8136333,836
0.8153,987
0.8169667,852
0.8186333,840
0.8203,971
0.8219666,1025
0.8236333,1028
0.8253,874
0.8269666,899
0.8286333,970
0.8303,842
0.8319666,616
0.8336333,947
0.8353,847
0.8369667,739
0.8386334,760
0.8403,715
0.8419667,853
0.8436334,833
0.8453,748
0.8469667,814
0.8486333,804
0.8503,721
0.8519667,877
0.8536333,806
0.8553,871
0.8569667,923
0.8586333,788
0.8603,889
0.8619667,773
0.8636333,921
0.8653,815
0.8669667,787
0.8686333,994
0.8703,720
0.8719667,698
0.8736333,807
0.8753,679
0.8769667,591
0.8786333,832
0.8803,882
0.8819667,880
0.8836333,897
0.8853,913
0.8869666,958
0.8886333,908
0.8903,859
0.8919666,1006
0.8936333,964
0.8953,921
0.8969667,1075
0.8986334,1116
0.9003,950
0.9019667,846
0.9036334,1052
0.9053,1007
0.9069667,1003
0.9086334,1125
0.9103,1157
0.9119667,778
0.9136333,851
0.9153,897
0.9169667,1151
0.9186333,1094
0.9203,1015
0.9219667,1032
0.9236333,1332
0.9253,1326
0.9269667,1277
0.9286333,1150
0.9303,1023
0.9319667,1134
0.9336333,1155
0.9353,1178
0.9369667,1034
0.9386333,940
0.9403,1241
0.9419667,1200
0.9436333,1276
0.9453,1223
0.9469666,909
0.9486333,818
0.9503,970
0.9519666,991
0.9536333,908
0.9553,890
0.9569666,908
0.9586333,851
0.9603,957
0.9619667,1035
0.9636334,787
0.9653,793
0.9669667,887
0.9686334,800
0.9703,734
0.9719667,650
0.9736333,746
0.9753,768
0.9769667,791
0.9786333,694
0.9803,526
0.9819667,727
0.9836333,741
0.9853,771
0.9869667,986
0.9886333,925
0.9903,759
0.9919667,836
0.9936333,860
0.9953,838
0.9969667,845
0.9986333,653
1.0003,856
1.001967,1003
1.003633,886
1.0053,752
1.006967,877
1.008633,919
1.0103,1080
1.011967,1086
1.013633,1051
1.0153,1026
1.016967,1002
1.018633,939
1.0203,906
1.021967,960
1.023633,934
1.0253,909
1.026967,991
1.028633,1018
1.0303,1016
1.031967,917
1.033633,919
1.0353,896
1.036967,795
1.038633,940
1.0403,921
1.041967,862
1.043633,893
1.0453,867
1.046967,836
1.048633,672
1.0503,779
1.051967,959
1.053633,857
1.0553,866
1.056967,867
1.058633,804
1.0603,756
1.061967,750
1.063633,743
1.0653,785
1.066967,828
1.068633,836
1.0703,769
1.071967,832
1.073633,896
1.0753,863
1.076967,861
1.078633,777
1.0803,773
1.081967,794
1.083633,858
1.0853,851
1.086967,776
1.088633,702
1.0903,766
1.091967,830
1.093633,860
1.0953,856
1.096967,671
1.098633,892
1.1003,933
1.101967,911
1.103633,949
1.1053,872
1.106967,932
1.108633,760
1.1103,1014
1.111967,869
1.113633,724
1.1153,784
1.116967,855
1.118633,798
1.1203,892
1.121967,864
1.123633,836
1.1253,734
1.126967,854
1.128633,920
1.1303,856
1.131967,730
1.133633,904
1.1353,785
1.136967,829
1.138633,813
1.1403,826
1.141967,763
1.143633,804
1.1453,845
1.146967,638
1.148633,815
1.1503,715
1.151967,615
1.153633,762
1.1553,755
1.156967,836
1.158633,796
1.1603,773
1.161967,758
1.163633,744
1.1653,741
1.166967,738
1.168633,760
1.1703,658
1.171967,863
1.173633,878
1.1753,893
1.176967,779
1.178633,848
1.1803,819
1.181967,729
1.183633,858
1.1853,749
1.186967,693
1.188633,769
1.1903,845
1.191967,901
1.193633,806
1.1953,995
1.196967,992
1.198633,743
