"SampleName","A2Rd2_01-63"
"Target Mass 1",
"Column Name","IA-3 (3um, 4.6X100)"
"Channel","QDa 1: SIR Ch1"
0.00195,351
0.003616667,588
0.005283333,588
0.00695,565
0.008616666,620
0.01028333,675
0.01195,822
0.01361667,769
0.01528333,691
0.01695,783
0.01861667,595
0.02028333,622
0.02195,556
0.02361667,624
0.02528333,657
0.02695,574
0.02861667,624
0.03028333,673
0.03195,664
0.03361667,654
0.03528333,559
0.03695,671
0.03861667,679
0.04028333,687
0.04195,692
0.04361667,697
0.04528333,739
0.04695,621
0.04861667,651
0.05028334,481
0.05195,589
0.05361667,697
0.05528333,639
0.05695,618
0.05861667,679
0.06028333,836
0.06195,814
0.06361666,638
0.06528334,651
0.06695,533
0.06861667,636
0.07028333,539
0.07195,543
0.07361667,514
0.07528333,530
0.07695,526
0.07861666,523
0.08028334,500
0.08195,555
0.08361667,604
0.08528333,653
0.08695,598
0.08861667,622
0.09028333,577
0.09195,532
0.09361666,580
0.09528334,629
0.09695,716
0.09861667,703
0.1002833,599
0.10195,470
0.1036167,543
0.1053,657
0.10695,638
0.1086167,522
0.1102833,545
0.11195,579
0.1136167,614
0.1152833,596
0.11695,579
0.1186167,523
0.1202833,556
0.12195,589
0.1236333,652
0.1252833,620
0.12695,589
0.1286167,490
0.1302833,645
0.13195,760
0.1336167,723
0.1352833,721
0.13695,697
0.1386167,671
0.1403,627
0.14195,630
0.1436167,632
0.1452833,618
0.14695,604
0.1486167,541
0.1502833,540
0.1519667,563
0.1536167,586
0.1552833,644
0.15695,639
0.1586333,612
0.1602833,654
0.16195,666
0.1636167,679
0.1653,750
0.16695,764
0.1686167,562
0.1702833,745
0.1719667,613
0.1736167,578
0.1753,663
0.17695,538
0.1786333,614
0.1802833,572
0.18195,444
0.1836167,662
0.1852833,716
0.18695,702
0.1886167,765
0.1903,519
0.19195,658
0.1936333,667
0.1952833,632
0.1969667,428
0.1986167,605
0.2003,702
0.20195,489
0.2036333,657
0.2053,659
0.2069667,564
0.2086167,647
0.2103,594
0.2119667,533
0.2136333,590
0.2153,659
0.2169667,627
0.2186333,530
0.2203,677
0.2219667,609
0.2236333,542
0.2253,554
0.2269667,386
0.2286333,441
0.2303,573
0.2319667,672
0.2336333,622
0.2353,568
0.2369667,581
0.2386333,598
0.2403,492
0.2419667,635
0.2436333,427
0.2453,487
0.2469667,511
0.2486333,611
0.2503,631
0.2519667,637
0.2536333,552
0.2553,647
0.2569667,612
0.2586333,611
0.2603,575
0.2619667,557
0.2636333,527
0.2653,633
0.2669667,699
0.2686333,637
0.2703,506
0.2719667,676
0.2736333,654
0.2753,595
0.2769667,548
0.2786333,548
0.2803,593
0.2819667,542
0.2836333,563
0.2853,451
0.2869667,530
0.2886333,496
0.2903,462
0.2919667,509
0.2936333,556
0.2953,565
0.2969667,575
0.2986333,499
0.3003,423
0.3019667,600
0.3036333,746
0.3053,653
0.3069667,703
0.3086333,564
0.3103,561
0.3119667,617
0.3136333,673
0.3153,669
0.3169667,667
0.3186333,587
0.3203,682
0.3219667,634
0.3236333,624
0.3253,724
0.3269667,682
0.3286333,661
0.3303,681
0.3319667,640
0.3336333,626
0.3353,512
0.3369667,520
0.3386333,528
0.3403,655
0.3419667,646
0.3436333,703
0.3453,474
0.3469667,664
0.3486333,602
0.3503,679
0.3519667,553
0.3536333,687
0.3553,582
0.3569667,580
0.3586333,556
0.3603,736
0.3619667,824
0.3636333,901
0.3653,1433
0.3669667,3193
0.3686333,4506
0.3703,5622
0.3719667,6612
0.3736333,6377
0.3753,7108
0.3769667,5827
0.3786333,5180
0.3803,4300
0.3819667,3645
0.3836333,2649
0.3853,2344
0.3869667,1894
0.3886333,1302
0.3903,1404
0.3919667,1126
0.3936333,1027
0.3953,1090
0.3969667,957
0.3986333,1035
0.4003,1211
0.4019667,1195
0.4036333,1135
0.4053,1201
0.4069667,1537
0.4086333,1882
0.4103,2024
0.4119667,1978
0.4136333,2129
0.4153,2151
0.4169667,2173
0.4186333,2385
0.4203,2645
0.4219667,2590
0.4236333,2368
0.4253,2526
0.4269667,2625
0.4286333,3040
0.4303,3189
0.4319667,4472
0.4336333,5565
0.4353,6707
0.4369667,8324
0.4386333,11300
0.4403,14332
0.4419667,18804
0.4436333,24264
0.4453,31676
0.4469667,38896
0.4486333,50048
0.4503,61280
0.4519667,73152
0.4536333,90672
0.4553,102528
0.4569667,118976
0.4586333,136384
0.4603,153856
0.4619667,174080
0.4636333,192384
0.4653,222784
0.4669667,242432
0.4686333,274112
0.4703,300672
0.4719667,321856
0.4736333,338944
0.4753,346496
0.4769667,343040
0.4786333,331008
0.4803,305344
0.4819667,276480
0.4836333,241728
0.4853,208128
0.4869667,172736
0.4886333,141376
0.4903,111392
0.4919667,85568
0.4936333,67936
0.4953,50976
0.4969667,38576
0.4986333,29520
0.5003,23552
0.5019667,18764
0.5036333,15596
0.5053,13732
0.5069667,11412
0.5086333,9936
0.5103,8892
0.5119666,7894
0.5136333,7406
0.5153,6483
0.5169666,5685
0.5186333,5751
0.5203,5625
0.5219667,5236
0.5236334,5051
0.5253,4593
0.5269667,4678
0.5286334,4382
0.5303,4055
0.5319667,4097
0.5336334,3903
0.5353,4084
0.5369667,4049
0.5386333,3832
0.5403,3578
0.5419667,3435
0.5436333,3356
0.5453,3394
0.5469667,3124
0.5486333,3078
0.5503,2965
0.5519667,2907
0.5536333,2862
0.5553,2802
0.5569667,2614
0.5586333,2191
0.5603,2461
0.5619667,2411
0.5636333,2534
0.5653,2069
0.5669667,2247
0.5686333,2114
0.5703,1844
0.5719666,2042
0.5736333,2185
0.5753,2109
0.5769666,1984
0.5786333,2355
0.5803,1794
0.5819666,1831
0.5836333,1766
0.5853,1813
0.5869667,1869
0.5886334,1925
0.5903,1671
0.5919667,1985
0.5936334,1900
0.5953,1762
0.5969667,1835
0.5986333,1855
0.6003,1773
0.6019667,1850
0.6036333,1927
0.6053,1880
0.6069667,1857
0.6086333,1834
0.6103,1827
0.6119667,1691
0.6136333,1814
0.6153,1826
0.6169667,1728
0.6186333,1630
0.6203,1732
0.6219667,1762
0.6236333,1745
0.6253,1605
0.6269667,1783
0.6286333,1752
0.6303,1271
0.6319667,1520
0.6336333,1480
0.6353,1437
0.6369666,1470
0.6386333,1374
0.6403,1278
0.6419666,1200
0.6436333,1293
0.6453,1357
0.6469667,1341
0.6486334,1371
0.6503,1230
0.6519667,1142
0.6536334,1147
0.6553,1129
0.6569667,1017
0.6586334,1042
0.6603,1124
0.6619667,1088
0.6636333,1051
0.6653,1157
0.6669667,1140
0.6686333,1122
0.6703,1233
0.6719667,1071
0.6736333,910
0.6753,1308
0.6769667,1190
0.6786333,1076
0.6803,1095
0.6819667,875
0.6836333,1109
0.6853,1140
0.6869667,1216
0.6886333,1125
0.6903,1208
0.6919667,1129
0.6936333,998
0.6953,898
0.6969666,1173
0.6986333,923
0.7003,763
0.7019666,1097
0.7036333,855
0.7053,983
0.7069666,1053
0.7086333,1089
0.7103,892
0.7119667,1047
0.7136334,1081
0.7153,986
0.7169667,914
0.7186334,1096
0.7203,1029
0.7219667,873
0.7236333,1091
0.7253,887
0.7269667,959
0.7286333,1123
0.7303,772
0.7319667,910
0.7336333,1004
0.7353,919
0.7369667,897
0.7386333,874
0.7403,914
0.7419667,903
0.7436333,840
0.7453,826
0.7469667,1022
0.7486333,1005
0.7503,943
0.7519667,945
0.7536333,946
0.7553,1087
0.7569667,1122
0.7586333,781
0.7603,1036
0.7619666,971
0.7636333,868
0.7653,801
0.7669666,854
0.7686333,871
0.7703,1052
0.7719667,1038
0.7736334,917
0.7753,883
0.7769667,854
0.7786334,848
0.7803,841
0.7819667,820
0.7836334,885
0.7853,913
0.7869667,905
0.7886333,909
0.7903,840
0.7919667,951
0.7936333,865
0.7953,715
0.7969667,690
0.7986333,741
0.8003,837
0.8019667,833
0.8036333,829
0.8053,799
0.8069667,992
0.8086333,965
0.8103,951
0.8119667,1073
0.8136333,1120
0.8153,814
0.8169667,1071
0.8186333,804
0.8203,651
0.8219666,844
0.8236333,508
0.8253,942
0.8269666,899
0.8286333,717
0.8303,838
0.8319666,792
0.8336333,808
0.8353,871
0.8369667,924
0.8386334,920
0.8403,889
0.8419667,680
0.8436334,763
0.8453,850
0.8469667,893
0.8486333,786
0.8503,811
0.8519667,841
0.8536333,701
0.8553,830
0.8569667,521
0.8586333,628
0.8603,843
0.8619667,686
0.8636333,1017
0.8653,1046
0.8669667,1472
0.8686333,1581
0.8703,1915
0.8719667,1960
0.8736333,2192
0.8753,2442
0.8769667,2457
0.8786333,2624
0.8803,2568
0.8819667,2513
0.8836333,2652
0.8853,2597
0.8869666,2353
0.8886333,2449
0.8903,2592
0.8919666,2475
0.8936333,2260
0.8953,2164
0.8969667,2404
0.8986334,2376
0.9003,2496
0.9019667,2547
0.9036334,2598
0.9053,2447
0.9069667,2674
0.9086334,2387
0.9103,2406
0.9119667,2489
0.9136333,2574
0.9153,2619
0.9169667,2663
0.9186333,2213
0.9203,2578
0.9219667,2892
0.9236333,2278
0.9253,2470
0.9269667,2114
0.9286333,2311
0.9303,2613
0.9319667,2085
0.9336333,2599
0.9353,1872
0.9369667,1995
0.9386333,2091
0.9403,1956
0.9419667,1635
0.9436333,2019
0.9453,1734
0.9469666,1807
0.9486333,1796
0.9503,1488
0.9519666,1509
0.9536333,1331
0.9553,1459
0.9569666,1323
0.9586333,1191
0.9603,1176
0.9619667,1077
0.9636334,1297
0.9653,1256
0.9669667,800
0.9686334,1209
0.9703,969
0.9719667,1123
0.9736333,759
0.9753,791
0.9769667,896
0.9786333,678
0.9803,806
0.9819667,847
0.9836333,676
0.9853,679
0.9869667,862
0.9886333,607
0.9903,514
0.9919667,592
0.9936333,591
0.9953,439
0.9969667,523
0.9986333,620
1.0003,534
1.001967,498
1.003633,562
1.0053,569
1.006967,575
1.008633,548
1.0103,521
1.011967,469
1.013633,575
1.0153,585
1.016967,594
1.018633,600
1.0203,489
1.021967,777
1.023633,816
1.0253,592
1.026967,483
1.028633,615
1.0303,629
1.031967,530
1.033633,590
1.0353,539
1.036967,590
1.038633,638
1.0403,611
1.041967,699
1.043633,516
1.0453,629
1.046967,735
1.048633,704
1.0503,695
1.051967,694
1.053633,530
1.0553,585
1.056967,710
1.058633,558
1.0603,692
1.061967,667
1.063633,658
1.0653,518
1.066967,568
1.068633,690
1.0703,637
1.071967,610
1.073633,583
1.0753,557
1.076967,704
1.078633,626
1.0803,549
1.081967,586
1.083633,579
1.0853,572
1.086967,509
1.088633,575
1.0903,641
1.091967,466
1.093633,642
1.0953,688
1.096967,680
1.098633,571
1.1003,708
1.101967,710
1.103633,683
1.1053,821
1.106967,465
1.108633,529
1.1103,665
1.111967,703
1.113633,585
1.1153,565
1.116967,578
1.118633,612
1.1203,646
1.121967,629
1.123633,580
1.1253,640
1.126967,632
1.128633,623
1.1303,571
1.131967,547
1.133633,671
1.1353,620
1.136967,574
1.138633,708
1.1403,650
1.141967,514
1.143633,712
1.1453,631
1.146967,661
1.148633,589
1.1503,620
1.151967,660
1.153633,569
1.1553,608
1.156967,648
1.158633,635
1.1603,623
1.161967,585
1.163633,600
1.1653,597
1.166967,593
1.168633,591
1.1703,731
1.171967,758
1.173633,536
1.1753,623
1.176967,574
1.178633,599
1.1803,582
1.181967,564
1.183633,542
1.1853,729
1.186967,828
1.188633,824
1.1903,427
1.191967,724
1.193633,614
1.1953,610
1.196967,645
1.198633,621
