"SampleName","A2Rd2_01-16"
"Target Mass 1",
"Column Name","IA-3 (3um, 4.6X100)"
"Channel","QDa 1: SIR Ch1"
0.00195,379
0.003616667,560
0.005283333,572
0.00695,726
0.008616666,624
0.01028333,601
0.01195,628
0.01361667,696
0.01528333,735
0.01695,681
0.01861667,586
0.02028333,636
0.02195,571
0.02361667,654
0.02528333,656
0.02695,658
0.02861667,625
0.03028333,592
0.03195,594
0.03361667,597
0.03528333,687
0.03695,722
0.03861667,713
0.04028333,526
0.04195,739
0.04361667,779
0.04528333,691
0.04695,579
0.04861667,831
0.05028334,675
0.05195,683
0.05361667,604
0.05528333,546
0.05695,636
0.05861667,717
0.06028333,660
0.06195,512
0.06361666,586
0.06528334,650
0.06695,615
0.06861667,652
0.07028333,655
0.07195,628
0.07361667,792
0.07528333,878
0.07695,548
0.07861666,727
0.08028334,682
0.08195,590
0.08361667,763
0.08528333,508
0.08695,507
0.08861667,500
0.09028333,558
0.09195,616
0.09361666,695
0.09528334,705
0.09695,730
0.09861667,506
0.1002833,616
0.10195,528
0.1036167,602
0.1052833,590
0.10695,766
0.1086167,735
0.1102833,674
0.11195,602
0.1136167,628
0.1152833,667
0.11695,438
0.1186167,620
0.1202833,632
0.12195,707
0.1236167,536
0.1252833,466
0.12695,691
0.1286167,602
0.1302833,694
0.13195,492
0.1336167,697
0.1352833,544
0.13695,730
0.1386167,666
0.1402833,708
0.14195,793
0.1436167,486
0.1452833,539
0.14695,723
0.1486167,685
0.1502833,734
0.15195,522
0.1536167,776
0.1552833,566
0.15695,659
0.1586167,669
0.1602833,531
0.16195,462
0.1636167,725
0.1652833,608
0.16695,677
0.1686167,709
0.1702833,620
0.17195,759
0.1736167,575
0.1752833,643
0.17695,686
0.1786167,545
0.1802833,620
0.18195,648
0.1836167,649
0.1852833,651
0.18695,666
0.1886167,648
0.1902833,630
0.19195,529
0.1936167,637
0.1952833,544
0.19695,689
0.1986167,676
0.2002833,569
0.20195,702
0.2036167,689
0.2052833,437
0.20695,642
0.2086167,569
0.2102833,564
0.21195,586
0.2136167,608
0.2152833,611
0.21695,608
0.2186167,554
0.2202833,583
0.22195,611
0.2236167,593
0.2252833,574
0.22695,503
0.2286167,640
0.2302833,716
0.23195,663
0.2336167,579
0.2352833,638
0.23695,665
0.2386167,697
0.2402833,611
0.24195,688
0.2436167,656
0.2452833,697
0.24695,513
0.2486167,631
0.2502833,524
0.25195,693
0.2536167,763
0.2552833,591
0.25695,534
0.2586167,525
0.2602833,607
0.26195,597
0.2636167,587
0.2652833,607
0.26695,641
0.2686167,674
0.2702833,559
0.27195,641
0.2736167,556
0.2752833,515
0.27695,473
0.2786167,668
0.2802833,627
0.28195,655
0.2836167,575
0.2852833,598
0.28695,632
0.2886167,579
0.2902833,526
0.29195,430
0.2936167,616
0.2952833,603
0.29695,768
0.2986333,666
0.3002833,728
0.30195,677
0.3036167,761
0.3052833,612
0.30695,694
0.3086167,791
0.3102833,714
0.31195,661
0.3136167,605
0.3153,775
0.31695,722
0.3186167,694
0.3202833,574
0.3219667,637
0.3236167,728
0.3252833,685
0.32695,583
0.3286167,669
0.3302833,756
0.33195,719
0.3336333,615
0.3352833,681
0.33695,701
0.3386167,555
0.3402833,582
0.34195,684
0.3436167,624
0.3452833,660
0.34695,686
0.3486167,690
0.3503,552
0.35195,566
0.3536333,575
0.3552833,553
0.35695,531
0.3586167,887
0.3602833,900
0.3619667,1071
0.3636167,2899
0.3652833,5031
0.36695,7128
0.3686333,7126
0.3703,6509
0.37195,5524
0.3736167,5016
0.3753,4167
0.37695,3474
0.3786333,3573
0.3802833,2907
0.38195,2297
0.3836167,2206
0.3853,1714
0.3869667,2006
0.3886167,1805
0.3902833,1967
0.39195,1735
0.3936167,1568
0.3953,1695
0.39695,2097
0.3986167,2081
0.4002833,2513
0.40195,2467
0.4036333,2135
0.4053,2409
0.4069667,2262
0.4086333,2334
0.4102833,2046
0.4119667,2401
0.4136167,2425
0.4153,2503
0.4169667,2187
0.4186333,2429
0.4203,2579
0.4219667,2374
0.4236333,2606
0.4253,2456
0.4269667,2474
0.4286333,2276
0.4302833,2446
0.4319667,2283
0.4336333,2022
0.4353,2387
0.4369667,1808
0.4386333,2556
0.4403,2445
0.4419667,2929
0.4436333,4041
0.4453,5472
0.4469667,7958
0.4486333,11740
0.4503,18532
0.4519667,30272
0.4536333,48096
0.4553,75216
0.4569667,106192
0.4586333,150976
0.4603,196672
0.4619667,254592
0.4636333,308736
0.4653,366208
0.4669667,403904
0.4686333,424128
0.4703,424512
0.4719667,414592
0.4736333,390144
0.4753,345664
0.4769667,298880
0.4786333,252032
0.4803,206208
0.4819667,167616
0.4836333,133760
0.4853,107600
0.4869667,85648
0.4886333,70768
0.4903,56560
0.4919667,47760
0.4936333,38528
0.4953,33552
0.4969667,27368
0.4986333,23188
0.5003,19492
0.5019667,16656
0.5036333,14808
0.5053,11668
0.5069667,11144
0.5086333,9672
0.5103,8784
0.5119666,7475
0.5136333,6703
0.5153,6000
0.5169666,5922
0.5186333,5644
0.5203,5145
0.5219667,5033
0.5236334,4760
0.5253,4175
0.5269667,4078
0.5286334,4157
0.5303,4070
0.5319667,3872
0.5336334,3481
0.5353,3633
0.5369667,3697
0.5386333,3544
0.5403,3392
0.5419667,3069
0.5436333,3174
0.5453,3196
0.5469667,2769
0.5486333,2869
0.5503,2680
0.5519667,2580
0.5536333,2500
0.5553,2623
0.5569667,2632
0.5586333,2220
0.5603,2409
0.5619667,2339
0.5636333,2238
0.5653,2139
0.5669667,2103
0.5686333,2118
0.5703,1985
0.5719666,2025
0.5736333,1972
0.5753,1891
0.5769666,1869
0.5786333,1898
0.5803,1893
0.5819666,1888
0.5836333,1858
0.5853,1655
0.5869667,1934
0.5886334,1813
0.5903,1999
0.5919667,1876
0.5936334,1637
0.5953,1698
0.5969667,1662
0.5986333,1659
0.6003,1684
0.6019667,1709
0.6036333,1734
0.6053,1774
0.6069667,1743
0.6086333,1712
0.6103,1828
0.6119667,1521
0.6136333,1692
0.6153,1848
0.6169667,1903
0.6186333,1678
0.6203,1680
0.6219667,1663
0.6236333,1465
0.6253,1475
0.6269667,1369
0.6286333,1393
0.6303,1242
0.6319667,1394
0.6336333,1468
0.6353,1218
0.6369666,1321
0.6386333,1162
0.6403,1248
0.6419666,1210
0.6436333,1258
0.6453,1319
0.6469667,1027
0.6486334,1076
0.6503,1054
0.6519667,1089
0.6536334,1017
0.6553,1058
0.6569667,1099
0.6586334,1188
0.6603,1140
0.6619667,1220
0.6636333,1013
0.6653,1138
0.6669667,1136
0.6686333,1255
0.6703,1336
0.6719667,996
0.6736333,1049
0.6753,1226
0.6769667,1020
0.6786333,1155
0.6803,1169
0.6819667,1034
0.6836333,1057
0.6853,1005
0.6869667,842
0.6886333,1157
0.6903,1263
0.6919667,1321
0.6936333,844
0.6953,940
0.6969666,1071
0.6986333,972
0.7003,924
0.7019666,985
0.7036333,1020
0.7053,913
0.7069666,874
0.7086333,1002
0.7103,785
0.7119667,933
0.7136334,740
0.7153,846
0.7169667,952
0.7186334,864
0.7203,777
0.7219667,986
0.7236333,859
0.7253,1070
0.7269667,909
0.7286333,916
0.7303,933
0.7319667,958
0.7336333,878
0.7353,960
0.7369667,1042
0.7386333,789
0.7403,932
0.7419667,914
0.7436333,893
0.7453,872
0.7469667,1040
0.7486333,1021
0.7503,981
0.7519667,861
0.7536333,799
0.7553,996
0.7569667,784
0.7586333,880
0.7603,968
0.7619666,1002
0.7636333,754
0.7653,894
0.7669666,970
0.7686333,722
0.7703,853
0.7719667,896
0.7736334,865
0.7753,756
0.7769667,795
0.7786334,784
0.7803,748
0.7819667,736
0.7836334,782
0.7853,719
0.7869667,711
0.7886333,702
0.7903,840
0.7919667,840
0.7936333,840
0.7953,791
0.7969667,594
0.7986333,758
0.8003,723
0.8019667,811
0.8036333,842
0.8053,605
0.8069667,759
0.8086333,807
0.8103,857
0.8119667,823
0.8136333,777
0.8153,785
0.8169667,792
0.8186333,795
0.8203,799
0.8219666,796
0.8236333,792
0.8253,775
0.8269666,758
0.8286333,853
0.8303,819
0.8319666,784
0.8336333,780
0.8353,777
0.8369667,863
0.8386334,876
0.8403,751
0.8419667,771
0.8436334,926
0.8453,637
0.8469667,658
0.8486333,910
0.8503,724
0.8519667,713
0.8536333,672
0.8553,703
0.8569667,734
0.8586333,648
0.8603,568
0.8619667,747
0.8636333,639
0.8653,717
0.8669667,1028
0.8686333,1158
0.8703,1444
0.8719667,1742
0.8736333,2066
0.8753,2097
0.8769667,2342
0.8786333,2416
0.8803,2489
0.8819667,2349
0.8836333,2208
0.8853,2436
0.8869666,2222
0.8886333,2555
0.8903,2664
0.8919666,2569
0.8936333,2468
0.8953,2346
0.8969667,2487
0.8986334,2434
0.9003,2381
0.9019667,2425
0.9036334,2637
0.9053,2632
0.9069667,2437
0.9086334,2591
0.9103,2231
0.9119667,2293
0.9136333,2356
0.9153,2677
0.9169667,2635
0.9186333,2508
0.9203,2602
0.9219667,2466
0.9236333,2586
0.9253,2604
0.9269667,2419
0.9286333,2382
0.9303,2577
0.9319667,2528
0.9336333,2269
0.9353,2061
0.9369667,2351
0.9386333,1887
0.9403,2161
0.9419667,1969
0.9436333,1872
0.9453,2013
0.9469666,1688
0.9486333,1669
0.9503,1597
0.9519666,1327
0.9536333,1454
0.9553,1282
0.9569666,1453
0.9586333,1367
0.9603,1384
0.9619667,1196
0.9636334,1176
0.9653,1239
0.9669667,987
0.9686334,716
0.9703,805
0.9719667,782
0.9736333,755
0.9753,760
0.9769667,783
0.9786333,806
0.9803,660
0.9819667,632
0.9836333,613
0.9853,708
0.9869667,519
0.9886333,596
0.9903,761
0.9919667,536
0.9936333,626
0.9953,673
0.9969667,526
0.9986333,553
1.0003,740
1.001967,390
1.003633,739
1.0053,560
1.006967,803
1.008633,598
1.0103,643
1.011967,508
1.013633,570
1.0153,575
1.016967,621
1.018633,660
1.0203,739
1.021967,690
1.023633,754
1.0253,695
1.026967,584
1.028633,570
1.0303,659
1.031967,675
1.033633,691
1.0353,651
1.036967,656
1.038633,549
1.0403,658
1.041967,736
1.043633,774
1.0453,621
1.046967,557
1.048633,778
1.0503,506
1.051967,716
1.053633,606
1.0553,698
1.056967,694
1.058633,701
1.0603,612
1.061967,469
1.063633,559
1.0653,626
1.066967,682
1.068633,680
1.0703,678
1.071967,576
1.073633,636
1.0753,541
1.076967,695
1.078633,643
1.0803,534
1.081967,827
1.083633,760
1.0853,601
1.086967,540
1.088633,768
1.0903,616
1.091967,559
1.093633,754
1.0953,623
1.096967,485
1.098633,591
1.1003,710
1.101967,458
1.103633,719
1.1053,496
1.106967,502
1.108633,717
1.1103,516
1.111967,757
1.113633,507
1.1153,648
1.116967,450
1.118633,704
1.1203,573
1.121967,533
1.123633,601
1.1253,632
1.126967,521
1.128633,723
1.1303,812
1.131967,659
1.133633,759
1.1353,623
1.136967,585
1.138633,616
1.1403,667
1.141967,701
1.143633,714
1.1453,726
1.146967,737
1.148633,506
1.1503,603
1.151967,692
1.153633,628
1.1553,624
1.156967,620
1.158633,641
1.1603,649
1.161967,751
1.163633,734
1.1653,718
1.166967,515
1.168633,866
1.1703,570
1.171967,628
1.173633,569
1.1753,626
1.176967,641
1.178633,656
1.1803,712
1.181967,719
1.183633,707
1.1853,695
1.186967,626
1.188633,488
1.1903,537
1.191967,507
1.193633,568
1.1953,608
1.196967,860
1.198633,803
