"SampleName","A2Rd2_01-10"
"Target Mass 1",
"Column Name","IA-3 (3um, 4.6X100)"
"Channel","QDa 1: SIR Ch2"
0.00195,500
0.003616667,526
0.005283333,663
0.00695,657
0.008616666,843
0.01028333,818
0.01195,793
0.01361667,876
0.01528333,1002
0.01695,1096
0.01861667,1054
0.02028333,707
0.02195,1035
0.02361667,971
0.02528333,1031
0.02695,982
0.02861667,793
0.03028333,845
0.03195,926
0.03361667,819
0.03528333,866
0.03695,954
0.03861667,945
0.04028333,1020
0.04195,1026
0.04361667,1031
0.04528333,840
0.04695,1003
0.04861667,985
0.05028334,897
0.05195,911
0.05361667,961
0.05528333,919
0.05695,877
0.05861667,846
0.06028333,805
0.06195,872
0.06361666,859
0.06528334,889
0.06695,846
0.06861667,846
0.07028333,844
0.07195,759
0.07361667,904
0.07528333,765
0.07695,879
0.07861666,813
0.08028334,885
0.08195,892
0.08361667,841
0.08528333,854
0.08695,868
0.08861667,847
0.09028333,825
0.09195,910
0.09361666,905
0.09528334,868
0.09695,935
0.09861667,854
0.1002833,682
0.10195,715
0.1036167,895
0.1052833,838
0.10695,602
0.1086167,903
0.1102833,857
0.11195,803
0.1136167,871
0.1152833,708
0.11695,831
0.1186167,829
0.1202833,855
0.12195,917
0.1236167,687
0.1252833,777
0.12695,1022
0.1286167,858
0.1302833,815
0.13195,596
0.1336167,686
0.1352833,776
0.13695,930
0.1386167,902
0.1402833,925
0.14195,641
0.1436167,880
0.1452833,834
0.14695,802
0.1486167,875
0.1502833,816
0.15195,706
0.1536167,634
0.1552833,782
0.15695,768
0.1586167,885
0.1602833,857
0.16195,829
0.1636167,793
0.1652833,758
0.16695,649
0.1686167,728
0.1702833,806
0.17195,821
0.1736167,766
0.1752833,839
0.17695,713
0.1786167,872
0.1802833,901
0.18195,709
0.1836167,844
0.1852833,749
0.18695,742
0.1886167,735
0.1902833,771
0.19195,759
0.1936167,747
0.1952833,751
0.19695,755
0.1986167,780
0.2002833,800
0.20195,821
0.2036167,867
0.2052833,847
0.20695,828
0.2086167,878
0.2102833,881
0.21195,885
0.2136167,749
0.2152833,1028
0.21695,958
0.2186167,955
0.2202833,930
0.22195,1068
0.2236167,1046
0.2252833,924
0.22695,1106
0.2286167,1095
0.2302833,1128
0.23195,1077
0.2336167,1120
0.2352833,1004
0.23695,1142
0.2386167,1045
0.2402833,1111
0.24195,1055
0.2436167,1133
0.2453,1206
0.24695,1178
0.2486167,1247
0.2502833,1200
0.25195,952
0.2536167,1276
0.2552833,1101
0.25695,962
0.2586167,1142
0.2602833,946
0.26195,1020
0.2636333,1056
0.2652833,874
0.26695,1116
0.2686167,1164
0.2702833,1192
0.27195,1002
0.2736167,1162
0.2752833,1153
0.27695,928
0.2786167,942
0.2803,1100
0.28195,1236
0.2836167,1150
0.2852833,793
0.28695,872
0.2886167,1034
0.2902833,1028
0.29195,1189
0.2936167,1308
0.2952833,831
0.29695,1066
0.2986333,1134
0.3002833,1000
0.30195,1071
0.3036333,917
0.3052833,1126
0.30695,1188
0.3086167,1183
0.3103,1237
0.31195,1003
0.3136167,1079
0.3153,1103
0.31695,912
0.3186167,1143
0.3203,1265
0.32195,892
0.3236167,1410
0.3252833,1305
0.32695,1249
0.3286333,1277
0.3302833,1306
0.33195,1206
0.3336333,1241
0.3353,1277
0.3369667,1474
0.3386167,1382
0.3402833,1290
0.34195,1438
0.3436167,1311
0.3452833,1426
0.3469667,1442
0.3486167,1433
0.3503,1203
0.35195,1353
0.3536333,1459
0.3552833,1322
0.3569667,1359
0.3586167,1397
0.3602833,1557
0.3619667,1793
0.3636333,3080
0.3653,4451
0.3669667,5458
0.3686333,5047
0.3703,4768
0.3719667,4195
0.3736333,2927
0.3753,2574
0.3769667,2367
0.3786333,1840
0.3803,1385
0.3819667,1174
0.3836333,894
0.3853,792
0.3869667,881
0.3886333,541
0.3903,674
0.3919667,768
0.3936333,832
0.3953,779
0.3969667,727
0.3986333,836
0.4003,790
0.4019667,834
0.4036333,736
0.4053,915
0.4069667,910
0.4086333,639
0.4103,821
0.4119667,596
0.4136333,702
0.4153,705
0.4169667,763
0.4186333,731
0.4203,685
0.4219667,779
0.4236333,873
0.4253,926
0.4269667,787
0.4286333,828
0.4303,854
0.4319667,1016
0.4336333,1071
0.4353,1053
0.4369667,1036
0.4386333,1073
0.4403,1110
0.4419667,1272
0.4436333,1307
0.4453,1077
0.4469667,1043
0.4486333,1117
0.4503,1140
0.4519667,1163
0.4536333,1081
0.4553,998
0.4569667,1276
0.4586333,1312
0.4603,1428
0.4619667,1400
0.4636333,1223
0.4653,1352
0.4669667,1329
0.4686333,1252
0.4703,1396
0.4719667,1372
0.4736333,1347
0.4753,1122
0.4769667,1158
0.4786333,1017
0.4803,1096
0.4819667,1175
0.4836333,939
0.4853,1218
0.4869667,1130
0.4886333,1127
0.4903,1091
0.4919667,1031
0.4936333,939
0.4953,931
0.4969667,973
0.4986333,811
0.5003,1022
0.5019667,961
0.5036333,888
0.5053,689
0.5069667,952
0.5086333,953
0.5103,906
0.5119666,910
0.5136333,869
0.5153,829
0.5169666,880
0.5186333,931
0.5203,922
0.5219667,920
0.5236334,887
0.5253,758
0.5269667,867
0.5286334,812
0.5303,757
0.5319667,903
0.5336334,1006
0.5353,964
0.5369667,887
0.5386333,810
0.5403,929
0.5419667,969
0.5436333,1010
0.5453,978
0.5469667,893
0.5486333,918
0.5503,941
0.5519667,885
0.5536333,918
0.5553,902
0.5569667,950
0.5586333,829
0.5603,805
0.5619667,917
0.5636333,1011
0.5653,992
0.5669667,959
0.5686333,927
0.5703,870
0.5719666,973
0.5736333,895
0.5753,911
0.5769666,696
0.5786333,816
0.5803,936
0.5819666,857
0.5836333,813
0.5853,770
0.5869667,920
0.5886334,1020
0.5903,1003
0.5919667,874
0.5936334,717
0.5953,985
0.5969667,787
0.5986333,927
0.6003,980
0.6019667,1061
0.6036333,970
0.6053,995
0.6069667,940
0.6086333,958
0.6103,861
0.6119667,898
0.6136333,1019
0.6153,1025
0.6169667,948
0.6186333,836
0.6203,931
0.6219667,897
0.6236333,864
0.6253,784
0.6269667,703
0.6286333,754
0.6303,929
0.6319667,1014
0.6336333,922
0.6353,941
0.6369666,980
0.6386333,932
0.6403,951
0.6419666,952
0.6436333,890
0.6453,829
0.6469667,777
0.6486334,849
0.6503,938
0.6519667,1007
0.6536334,741
0.6553,922
0.6569667,741
0.6586334,720
0.6603,925
0.6619667,795
0.6636333,966
0.6653,979
0.6669667,821
0.6686333,970
0.6703,805
0.6719667,724
0.6736333,735
0.6753,803
0.6769667,826
0.6786333,757
0.6803,690
0.6819667,812
0.6836333,871
0.6853,858
0.6869667,846
0.6886333,910
0.6903,978
0.6919667,962
0.6936333,1024
0.6953,1086
0.6969666,1231
0.6986333,1229
0.7003,1306
0.7019666,1425
0.7036333,1513
0.7053,1469
0.7069666,1527
0.7086333,1590
0.7103,1386
0.7119667,1513
0.7136334,1648
0.7153,1478
0.7169667,1382
0.7186334,1125
0.7203,1230
0.7219667,1012
0.7236333,1044
0.7253,975
0.7269667,1020
0.7286333,867
0.7303,839
0.7319667,895
0.7336333,826
0.7353,867
0.7369667,921
0.7386333,930
0.7403,940
0.7419667,799
0.7436333,788
0.7453,732
0.7469667,765
0.7486333,799
0.7503,680
0.7519667,859
0.7536333,901
0.7553,927
0.7569667,930
0.7586333,932
0.7603,900
0.7619666,867
0.7636333,683
0.7653,730
0.7669666,920
0.7686333,839
0.7703,854
0.7719667,906
0.7736334,797
0.7753,810
0.7769667,753
0.7786334,718
0.7803,998
0.7819667,878
0.7836334,758
0.7853,837
0.7869667,879
0.7886333,921
0.7903,1015
0.7919667,1127
0.7936333,1071
0.7953,1016
0.7969667,1320
0.7986333,1454
0.8003,1686
0.8019667,1658
0.8036333,1831
0.8053,2024
0.8069667,1928
0.8086333,2554
0.8103,2438
0.8119667,2395
0.8136333,2758
0.8153,2698
0.8169667,2804
0.8186333,2569
0.8203,2300
0.8219666,1938
0.8236333,2310
0.8253,2030
0.8269666,1868
0.8286333,1636
0.8303,1594
0.8319666,1621
0.8336333,1403
0.8353,1093
0.8369667,1312
0.8386334,1178
0.8403,1345
0.8419667,981
0.8436334,1225
0.8453,1021
0.8469667,1015
0.8486333,893
0.8503,904
0.8519667,850
0.8536333,797
0.8553,1059
0.8569667,1092
0.8586333,839
0.8603,971
0.8619667,692
0.8636333,758
0.8653,857
0.8669667,767
0.8686333,935
0.8703,938
0.8719667,919
0.8736333,848
0.8753,945
0.8769667,962
0.8786333,978
0.8803,1204
0.8819667,1207
0.8836333,1243
0.8853,1336
0.8869666,1388
0.8886333,1294
0.8903,1057
0.8919666,1052
0.8936333,1048
0.8953,1315
0.8969667,1252
0.8986334,1189
0.9003,1159
0.9019667,1214
0.9036334,1194
0.9053,1206
0.9069667,1127
0.9086334,1285
0.9103,1359
0.9119667,1413
0.9136333,1115
0.9153,1174
0.9169667,1301
0.9186333,1222
0.9203,1228
0.9219667,1234
0.9236333,1273
0.9253,1291
0.9269667,1309
0.9286333,1296
0.9303,1101
0.9319667,1269
0.9336333,1194
0.9353,1120
0.9369667,1275
0.9386333,1215
0.9403,1356
0.9419667,1319
0.9436333,1302
0.9453,1124
0.9469666,1143
0.9486333,1309
0.9503,1171
0.9519666,1341
0.9536333,1049
0.9553,1194
0.9569666,956
0.9586333,1189
0.9603,1094
0.9619667,1205
0.9636334,958
0.9653,881
0.9669667,918
0.9686334,890
0.9703,902
0.9719667,915
0.9736333,925
0.9753,909
0.9769667,894
0.9786333,936
0.9803,978
0.9819667,949
0.9836333,920
0.9853,1204
0.9869667,1278
0.9886333,1675
0.9903,1458
0.9919667,1353
0.9936333,1812
0.9953,1829
0.9969667,2167
0.9986333,2286
1.0003,2424
1.001967,2034
1.003633,2277
1.0053,2112
1.006967,2187
1.008633,2088
1.0103,1989
1.011967,1748
1.013633,2097
1.0153,1732
1.016967,2050
1.018633,1646
1.0203,1664
1.021967,1758
1.023633,1484
1.0253,1652
1.026967,1466
1.028633,1192
1.0303,1249
1.031967,1328
1.033633,1148
1.0353,1088
1.036967,1173
1.038633,1179
1.0403,1209
1.041967,995
1.043633,982
1.0453,1158
1.046967,890
1.048633,1196
1.0503,1282
1.051967,952
1.053633,829
1.0553,1021
1.056967,903
1.058633,1007
1.0603,917
1.061967,827
1.063633,878
1.0653,1025
1.066967,979
1.068633,1114
1.0703,1062
1.071967,1131
1.073633,1039
1.0753,1085
1.076967,812
1.078633,1020
1.0803,1076
1.081967,1147
1.083633,1137
1.0853,1128
1.086967,1244
1.088633,1236
1.0903,1229
1.091967,1155
1.093633,1286
1.0953,1172
1.096967,1115
1.098633,1192
1.1003,1020
1.101967,1088
1.103633,1155
1.1053,1188
1.106967,1221
1.108633,1291
1.1103,999
1.111967,1178
1.113633,1026
1.1153,1113
1.116967,822
1.118633,760
1.1203,1145
1.121967,994
1.123633,959
1.1253,1039
1.126967,862
1.128633,875
1.1303,954
1.131967,901
1.133633,848
1.1353,809
1.136967,769
1.138633,837
1.1403,687
1.141967,929
1.143633,856
1.1453,641
1.146967,1020
1.148633,1080
1.1503,896
1.151967,887
1.153633,715
1.1553,967
1.156967,872
1.158633,777
1.1603,711
1.161967,821
1.163633,778
1.1653,784
1.166967,816
1.168633,907
1.1703,896
1.171967,970
1.173633,800
1.1753,781
1.176967,943
1.178633,908
1.1803,807
1.181967,838
1.183633,662
1.1853,908
1.186967,956
1.188633,855
1.1903,758
1.191967,755
1.193633,890
1.1953,936
1.196967,928
1.198633,875
