"SampleName","A2Rd2_01-34"
"Target Mass 1",
"Column Name","IA-3 (3um, 4.6X100)"
"Channel","QDa 1: SIR Ch2"
0.00195,445
0.003616667,739
0.005283333,675
0.00695,783
0.008616666,848
0.01028333,865
0.01195,869
0.01361667,873
0.01528333,943
0.01695,921
0.01861667,900
0.02028333,835
0.02195,770
0.02361667,1065
0.02528333,1017
0.02695,984
0.02861667,1094
0.03028333,887
0.03195,793
0.03361667,977
0.03528333,1046
0.03695,968
0.03861667,1004
0.04028333,1084
0.04195,1065
0.04361667,1114
0.04528333,926
0.04695,1059
0.04861667,751
0.05028334,910
0.05195,740
0.05361667,967
0.05528333,1024
0.05695,935
0.05861667,851
0.06028333,881
0.06195,968
0.06361666,879
0.06528334,789
0.06695,1048
0.06861667,931
0.07028333,833
0.07195,1069
0.07361667,953
0.07528333,970
0.07695,786
0.07861666,1087
0.08028334,774
0.08195,960
0.08361667,1034
0.08528333,1016
0.08695,1087
0.08861667,1139
0.09028333,821
0.09195,829
0.09361666,856
0.09528334,825
0.09695,794
0.09861667,764
0.1002833,856
0.10195,948
0.1036167,870
0.1052833,792
0.10695,1055
0.1086167,1018
0.1102833,1035
0.11195,941
0.1136167,841
0.1152833,827
0.11695,1000
0.1186167,925
0.1202833,1029
0.12195,880
0.1236167,788
0.1252833,954
0.12695,947
0.1286167,989
0.1302833,1017
0.13195,1091
0.1336167,818
0.1352833,1036
0.13695,782
0.1386167,822
0.1402833,844
0.14195,903
0.1436167,976
0.1452833,1017
0.14695,820
0.1486167,1025
0.1502833,930
0.15195,971
0.1536167,997
0.1552833,870
0.15695,966
0.1586167,846
0.1602833,858
0.16195,1071
0.1636167,989
0.1652833,1059
0.16695,825
0.1686167,878
0.1702833,760
0.17195,800
0.1736167,841
0.1752833,768
0.17695,985
0.1786167,1034
0.1802833,874
0.18195,878
0.1836167,949
0.1852833,861
0.18695,773
0.1886167,1009
0.1902833,886
0.19195,1005
0.1936167,1095
0.1952833,1063
0.19695,910
0.1986167,1015
0.2002833,940
0.20195,979
0.2036167,1017
0.2052833,981
0.20695,957
0.2086167,934
0.2102833,1122
0.21195,1158
0.2136167,923
0.2152833,1090
0.21695,969
0.2186167,1093
0.2202833,1105
0.22195,1119
0.2236167,1130
0.2252833,1230
0.22695,1204
0.2286167,1154
0.2302833,1211
0.23195,1203
0.2336167,1180
0.2352833,1163
0.23695,1141
0.2386167,1119
0.2402833,1142
0.24195,1200
0.2436167,998
0.2452833,1211
0.24695,1122
0.2486167,1215
0.2502833,1211
0.25195,996
0.2536167,1198
0.2552833,1083
0.25695,1095
0.2586167,977
0.2602833,1009
0.26195,1132
0.2636167,965
0.2653,1125
0.26695,1123
0.2686167,1121
0.2703,1149
0.27195,970
0.2736167,1147
0.2752833,1058
0.27695,913
0.2786167,1173
0.2803,905
0.28195,1070
0.2836167,1055
0.2852833,1003
0.28695,1059
0.2886167,1048
0.2902833,1037
0.29195,1111
0.2936167,1116
0.2952833,1120
0.29695,1177
0.2986333,1016
0.3002833,927
0.30195,1104
0.3036333,1079
0.3052833,1226
0.3069667,1164
0.3086167,1188
0.3103,1127
0.31195,1066
0.3136167,1232
0.3153,1114
0.3169667,1263
0.3186167,935
0.3203,1216
0.32195,1229
0.3236333,1225
0.3252833,1226
0.32695,1228
0.3286167,1405
0.3302833,1383
0.3319667,1360
0.3336333,1280
0.3352833,1411
0.33695,1338
0.3386167,1264
0.3403,1379
0.34195,1276
0.3436167,1245
0.3452833,1379
0.34695,1395
0.3486333,1410
0.3503,1290
0.35195,1076
0.3536167,1236
0.3552833,1323
0.3569667,1210
0.3586167,1301
0.3602833,1346
0.36195,1197
0.3636333,1786
0.3653,3991
0.3669667,4667
0.3686333,5259
0.3703,5276
0.3719667,4924
0.3736333,4858
0.3752833,4375
0.3769667,3862
0.3786167,2467
0.3803,2137
0.3819667,1861
0.3836333,1491
0.3853,1312
0.3869667,1125
0.3886333,1077
0.3903,709
0.3919667,649
0.3936333,547
0.3953,660
0.3969667,498
0.3986333,540
0.4003,598
0.4019667,588
0.4036333,620
0.4053,653
0.4069667,623
0.4086333,593
0.4103,615
0.4119667,636
0.4136333,613
0.4153,563
0.4169667,634
0.4186333,705
0.4203,658
0.4219667,610
0.4236333,574
0.4253,667
0.4269667,681
0.4286333,637
0.4303,802
0.4319667,725
0.4336333,649
0.4353,756
0.4369667,792
0.4386333,828
0.4403,1040
0.4419667,974
0.4436333,1017
0.4453,1045
0.4469667,1074
0.4486333,871
0.4503,905
0.4519667,1024
0.4536333,1144
0.4553,1109
0.4569667,1168
0.4586333,1005
0.4603,1177
0.4619667,1081
0.4636333,1089
0.4653,1159
0.4669667,1165
0.4686333,1153
0.4703,1196
0.4719667,1173
0.4736333,1151
0.4753,1269
0.4769667,1264
0.4786333,1068
0.4803,1263
0.4819667,1125
0.4836333,1144
0.4853,1013
0.4869667,1207
0.4886333,1059
0.4903,1047
0.4919667,1152
0.4936333,1045
0.4953,795
0.4969667,935
0.4986333,830
0.5003,907
0.5019667,896
0.5036333,885
0.5053,746
0.5069667,753
0.5086333,781
0.5103,869
0.5119666,857
0.5136333,855
0.5153,854
0.5169666,878
0.5186333,902
0.5203,812
0.5219667,949
0.5236334,917
0.5253,720
0.5269667,837
0.5286334,844
0.5303,850
0.5319667,794
0.5336334,826
0.5353,1039
0.5369667,1004
0.5386333,1133
0.5403,870
0.5419667,1113
0.5436333,1123
0.5453,918
0.5469667,905
0.5486333,889
0.5503,880
0.5519667,966
0.5536333,782
0.5553,1017
0.5569667,1007
0.5586333,1107
0.5603,713
0.5619667,924
0.5636333,1053
0.5653,783
0.5669667,941
0.5686333,931
0.5703,977
0.5719666,935
0.5736333,898
0.5753,920
0.5769666,874
0.5786333,860
0.5803,893
0.5819666,778
0.5836333,677
0.5853,902
0.5869667,694
0.5886334,1153
0.5903,1108
0.5919667,1068
0.5936334,810
0.5953,922
0.5969667,866
0.5986333,962
0.6003,1019
0.6019667,994
0.6036333,970
0.6053,882
0.6069667,894
0.6086333,905
0.6103,855
0.6119667,805
0.6136333,868
0.6153,847
0.6169667,826
0.6186333,951
0.6203,977
0.6219667,955
0.6236333,891
0.6253,828
0.6269667,1070
0.6286333,1180
0.6303,1022
0.6319667,1125
0.6336333,869
0.6353,965
0.6369666,990
0.6386333,968
0.6403,945
0.6419666,967
0.6436333,989
0.6453,1028
0.6469667,1085
0.6486334,1233
0.6503,1280
0.6519667,1122
0.6536334,1266
0.6553,1039
0.6569667,894
0.6586334,1096
0.6603,950
0.6619667,925
0.6636333,852
0.6653,941
0.6669667,975
0.6686333,863
0.6703,966
0.6719667,1022
0.6736333,962
0.6753,1028
0.6769667,911
0.6786333,945
0.6803,813
0.6819667,853
0.6836333,895
0.6853,916
0.6869667,642
0.6886333,757
0.6903,810
0.6919667,912
0.6936333,883
0.6953,925
0.6969666,995
0.6986333,794
0.7003,1101
0.7019666,1056
0.7036333,799
0.7053,785
0.7069666,841
0.7086333,963
0.7103,940
0.7119667,781
0.7136334,868
0.7153,962
0.7169667,749
0.7186334,777
0.7203,739
0.7219667,744
0.7236333,750
0.7253,822
0.7269667,894
0.7286333,935
0.7303,849
0.7319667,954
0.7336333,681
0.7353,639
0.7369667,866
0.7386333,822
0.7403,891
0.7419667,825
0.7436333,828
0.7453,830
0.7469667,864
0.7486333,763
0.7503,713
0.7519667,882
0.7536333,776
0.7553,830
0.7569667,712
0.7586333,769
0.7603,862
0.7619666,883
0.7636333,879
0.7653,859
0.7669666,838
0.7686333,822
0.7703,908
0.7719667,918
0.7736334,856
0.7753,936
0.7769667,823
0.7786334,810
0.7803,675
0.7819667,798
0.7836334,761
0.7853,725
0.7869667,865
0.7886333,831
0.7903,898
0.7919667,845
0.7936333,811
0.7953,777
0.7969667,786
0.7986333,796
0.8003,830
0.8019667,802
0.8036333,774
0.8053,860
0.8069667,926
0.8086333,993
0.8103,650
0.8119667,948
0.8136333,846
0.8153,1022
0.8169667,812
0.8186333,929
0.8203,935
0.8219666,940
0.8236333,943
0.8253,947
0.8269666,937
0.8286333,796
0.8303,943
0.8319666,938
0.8336333,934
0.8353,968
0.8369667,934
0.8386334,900
0.8403,907
0.8419667,792
0.8436334,874
0.8453,871
0.8469667,854
0.8486333,841
0.8503,734
0.8519667,700
0.8536333,789
0.8553,719
0.8569667,649
0.8586333,798
0.8603,941
0.8619667,896
0.8636333,921
0.8653,838
0.8669667,870
0.8686333,825
0.8703,905
0.8719667,985
0.8736333,951
0.8753,917
0.8769667,986
0.8786333,1226
0.8803,1301
0.8819667,1472
0.8836333,1424
0.8853,1394
0.8869666,1359
0.8886333,1323
0.8903,1380
0.8919666,1397
0.8936333,1415
0.8953,1199
0.8969667,1201
0.8986334,1348
0.9003,1273
0.9019667,1254
0.9036334,1349
0.9053,1341
0.9069667,1332
0.9086334,1310
0.9103,1400
0.9119667,1086
0.9136333,1241
0.9153,1191
0.9169667,1391
0.9186333,1296
0.9203,1174
0.9219667,1227
0.9236333,1019
0.9253,1249
0.9269667,1167
0.9286333,977
0.9303,1159
0.9319667,1194
0.9336333,1229
0.9353,1118
0.9369667,1112
0.9386333,1245
0.9403,1206
0.9419667,1167
0.9436333,1352
0.9453,1299
0.9469666,1246
0.9486333,1090
0.9503,1142
0.9519666,1022
0.9536333,1011
0.9553,1141
0.9569666,1046
0.9586333,1025
0.9603,1004
0.9619667,895
0.9636334,913
0.9653,743
0.9669667,909
0.9686334,989
0.9703,910
0.9719667,847
0.9736333,717
0.9753,789
0.9769667,798
0.9786333,807
0.9803,582
0.9819667,731
0.9836333,751
0.9853,782
0.9869667,775
0.9886333,769
0.9903,784
0.9919667,800
0.9936333,729
0.9953,659
0.9969667,919
0.9986333,841
1.0003,685
1.001967,967
1.003633,936
1.0053,730
1.006967,1122
1.008633,1044
1.0103,922
1.011967,903
1.013633,891
1.0153,854
1.016967,818
1.018633,630
1.0203,769
1.021967,753
1.023633,949
1.0253,897
1.026967,845
1.028633,923
1.0303,941
1.031967,936
1.033633,932
1.0353,936
1.036967,941
1.038633,753
1.0403,755
1.041967,836
1.043633,835
1.0453,851
1.046967,761
1.048633,817
1.0503,873
1.051967,751
1.053633,686
1.0553,724
1.056967,763
1.058633,833
1.0603,849
1.061967,841
1.063633,833
1.0653,845
1.066967,781
1.068633,816
1.0703,852
1.071967,809
1.073633,745
1.0753,937
1.076967,824
1.078633,710
1.0803,1018
1.081967,790
1.083633,852
1.0853,835
1.086967,749
1.088633,919
1.0903,944
1.091967,595
1.093633,836
1.0953,725
1.096967,954
1.098633,802
1.1003,782
1.101967,808
1.103633,886
1.1053,691
1.106967,741
1.108633,912
1.1103,857
1.111967,871
1.113633,714
1.1153,913
1.116967,721
1.118633,747
1.1203,716
1.121967,888
1.123633,847
1.1253,706
1.126967,896
1.128633,729
1.1303,786
1.131967,759
1.133633,809
1.1353,672
1.136967,684
1.138633,695
1.1403,724
1.141967,836
1.143633,739
1.1453,642
1.146967,869
1.148633,912
1.1503,683
1.151967,908
1.153633,799
1.1553,833
1.156967,849
1.158633,732
1.1603,684
1.161967,684
1.163633,747
1.1653,809
1.166967,818
1.168633,882
1.1703,863
1.171967,875
1.173633,618
1.1753,798
1.176967,690
1.178633,896
1.1803,852
1.181967,886
1.183633,739
1.1853,732
1.186967,893
1.188633,706
1.1903,781
1.191967,842
1.193633,618
1.1953,744
1.196967,775
1.198633,804
