"SampleName","A2Rd2_01-10"
"Target Mass 1",
"Column Name","IA-3 (3um, 4.6X100)"
"Channel","QDa 1: SIR Ch1"
0.00195,394
0.003616667,526
0.005283333,418
0.00695,483
0.008616666,370
0.01028333,416
0.01195,461
0.01361667,511
0.01528333,558
0.01695,500
0.01861667,476
0.02028333,556
0.02195,548
0.02361667,528
0.02528333,507
0.02695,512
0.02861667,517
0.03028333,486
0.03195,442
0.03361667,470
0.03528333,498
0.03695,529
0.03861667,519
0.04028333,504
0.04195,356
0.04361667,526
0.04528333,606
0.04695,422
0.04861667,410
0.05028334,469
0.05195,522
0.05361667,469
0.05528333,415
0.05695,444
0.05861667,489
0.06028333,435
0.06195,382
0.06361666,497
0.06528334,404
0.06695,480
0.06861667,434
0.07028333,385
0.07195,337
0.07361667,381
0.07528333,425
0.07695,493
0.07861666,552
0.08028334,560
0.08195,435
0.08361667,372
0.08528333,517
0.08695,456
0.08861667,560
0.09028333,517
0.09195,550
0.09361666,654
0.09528334,399
0.09695,423
0.09861667,499
0.1002833,455
0.10195,503
0.1036167,530
0.1052833,540
0.10695,419
0.1086167,582
0.1102833,541
0.11195,488
0.1136167,568
0.1152833,515
0.11695,523
0.1186167,532
0.1202833,502
0.12195,472
0.1236167,423
0.1252833,362
0.12695,388
0.1286167,414
0.1302833,386
0.13195,407
0.1336167,429
0.1352833,444
0.13695,448
0.1386167,453
0.1402833,412
0.14195,371
0.1436167,504
0.1452833,535
0.14695,466
0.1486167,449
0.1502833,362
0.15195,527
0.1536167,562
0.1552833,515
0.15695,450
0.1586167,345
0.1602833,469
0.16195,515
0.1636167,501
0.1652833,525
0.16695,575
0.1686167,348
0.1702833,340
0.17195,448
0.1736167,517
0.1752833,558
0.17695,432
0.1786167,461
0.1802833,533
0.18195,334
0.1836167,491
0.1852833,424
0.18695,338
0.1886167,359
0.1902833,499
0.19195,436
0.1936167,374
0.1952833,492
0.19695,368
0.1986167,502
0.2002833,392
0.20195,383
0.2036167,533
0.2052833,430
0.20695,512
0.2086167,464
0.2102833,534
0.21195,546
0.2136167,584
0.2152833,495
0.21695,491
0.2186167,565
0.2202833,575
0.22195,310
0.2236167,402
0.2252833,476
0.22695,377
0.2286167,426
0.2302833,560
0.23195,587
0.2336167,536
0.2352833,412
0.23695,449
0.2386167,451
0.2402833,352
0.24195,403
0.2436167,455
0.2453,393
0.24695,407
0.2486167,428
0.2502833,424
0.25195,420
0.2536167,435
0.2552833,436
0.25695,437
0.2586167,458
0.2602833,459
0.26195,461
0.2636333,458
0.2652833,333
0.26695,458
0.2686167,493
0.2702833,480
0.27195,487
0.2736167,472
0.2752833,440
0.27695,407
0.2786167,445
0.2803,393
0.28195,465
0.2836167,510
0.2852833,636
0.28695,580
0.2886167,567
0.2902833,501
0.29195,578
0.2936167,431
0.2952833,444
0.29695,453
0.2986333,452
0.3002833,452
0.30195,398
0.3036333,471
0.3052833,407
0.30695,380
0.3086167,521
0.3103,505
0.31195,454
0.3136167,404
0.3153,530
0.31695,512
0.3186167,458
0.3203,541
0.32195,556
0.3236167,553
0.3252833,421
0.32695,468
0.3286333,456
0.3302833,458
0.33195,460
0.3336333,480
0.3353,500
0.3369667,513
0.3386167,526
0.3402833,477
0.34195,389
0.3436167,438
0.3452833,455
0.3469667,444
0.3486167,432
0.3503,533
0.35195,548
0.3536333,586
0.3552833,544
0.3569667,653
0.3586167,657
0.3602833,661
0.3619667,863
0.3636333,1583
0.3653,4084
0.3669667,6655
0.3686333,7793
0.3703,7675
0.3719667,6758
0.3736333,5854
0.3753,5148
0.3769667,3629
0.3786333,3854
0.3803,3621
0.3819667,2618
0.3836333,2548
0.3853,2166
0.3869667,2058
0.3886333,1802
0.3903,1629
0.3919667,1570
0.3936333,1358
0.3953,1696
0.3969667,1501
0.3986333,1763
0.4003,1606
0.4019667,1502
0.4036333,1449
0.4053,1501
0.4069667,1490
0.4086333,1480
0.4103,1451
0.4119667,1383
0.4136333,1497
0.4153,1381
0.4169667,1273
0.4186333,1394
0.4203,1436
0.4219667,1232
0.4236333,1035
0.4253,939
0.4269667,1103
0.4286333,958
0.4303,981
0.4319667,981
0.4336333,980
0.4353,1308
0.4369667,1946
0.4386333,2495
0.4403,3476
0.4419667,5148
0.4436333,6826
0.4453,10184
0.4469667,13352
0.4486333,19660
0.4503,28608
0.4519667,41072
0.4536333,58496
0.4553,86416
0.4569667,123488
0.4586333,170112
0.4603,222208
0.4619667,278400
0.4636333,342272
0.4653,391296
0.4669667,431808
0.4686333,459712
0.4703,463360
0.4719667,451328
0.4736333,427136
0.4753,385856
0.4769667,336064
0.4786333,285120
0.4803,241664
0.4819667,198208
0.4836333,160384
0.4853,129232
0.4869667,102176
0.4886333,86496
0.4903,69280
0.4919667,54560
0.4936333,46688
0.4953,38208
0.4969667,31064
0.4986333,26820
0.5003,22872
0.5019667,17820
0.5036333,15608
0.5053,14832
0.5069667,12236
0.5086333,11312
0.5103,9368
0.5119666,8272
0.5136333,7598
0.5153,7245
0.5169666,6094
0.5186333,5890
0.5203,5381
0.5219667,4889
0.5236334,4903
0.5253,4625
0.5269667,4488
0.5286334,4069
0.5303,3798
0.5319667,3741
0.5336334,3286
0.5353,3634
0.5369667,3275
0.5386333,3197
0.5403,2913
0.5419667,3011
0.5436333,2779
0.5453,3255
0.5469667,2405
0.5486333,2275
0.5503,2668
0.5519667,2517
0.5536333,2366
0.5553,2317
0.5569667,2206
0.5586333,2171
0.5603,1783
0.5619667,1976
0.5636333,1996
0.5653,1781
0.5669667,1900
0.5686333,1582
0.5703,1788
0.5719666,1861
0.5736333,1484
0.5753,1653
0.5769666,1607
0.5786333,1542
0.5803,1422
0.5819666,1432
0.5836333,1428
0.5853,1424
0.5869667,1647
0.5886334,1575
0.5903,1503
0.5919667,1363
0.5936334,1552
0.5953,1486
0.5969667,1507
0.5986333,1512
0.6003,1600
0.6019667,1596
0.6036333,1592
0.6053,1555
0.6069667,1676
0.6086333,1301
0.6103,1540
0.6119667,1663
0.6136333,1515
0.6153,1276
0.6169667,1373
0.6186333,1146
0.6203,1214
0.6219667,1310
0.6236333,1236
0.6253,1206
0.6269667,1199
0.6286333,1033
0.6303,1150
0.6319667,865
0.6336333,1233
0.6353,914
0.6369666,876
0.6386333,852
0.6403,961
0.6419666,1097
0.6436333,1020
0.6453,932
0.6469667,1079
0.6486334,1113
0.6503,816
0.6519667,987
0.6536334,844
0.6553,872
0.6569667,988
0.6586334,1018
0.6603,796
0.6619667,1006
0.6636333,782
0.6653,749
0.6669667,803
0.6686333,846
0.6703,806
0.6719667,766
0.6736333,734
0.6753,703
0.6769667,739
0.6786333,776
0.6803,750
0.6819667,724
0.6836333,718
0.6853,695
0.6869667,673
0.6886333,746
0.6903,892
0.6919667,865
0.6936333,794
0.6953,799
0.6969666,654
0.6986333,590
0.7003,862
0.7019666,746
0.7036333,748
0.7053,747
0.7069666,769
0.7086333,583
0.7103,566
0.7119667,739
0.7136334,703
0.7153,737
0.7169667,688
0.7186334,713
0.7203,647
0.7219667,477
0.7236333,735
0.7253,738
0.7269667,865
0.7286333,682
0.7303,619
0.7319667,639
0.7336333,682
0.7353,726
0.7369667,723
0.7386333,561
0.7403,562
0.7419667,694
0.7436333,917
0.7453,924
0.7469667,692
0.7486333,815
0.7503,705
0.7519667,657
0.7536333,684
0.7553,713
0.7569667,782
0.7586333,537
0.7603,835
0.7619666,733
0.7636333,722
0.7653,732
0.7669666,663
0.7686333,594
0.7703,552
0.7719667,667
0.7736334,733
0.7753,687
0.7769667,766
0.7786334,629
0.7803,487
0.7819667,578
0.7836334,563
0.7853,635
0.7869667,655
0.7886333,623
0.7903,592
0.7919667,600
0.7936333,609
0.7953,609
0.7969667,672
0.7986333,679
0.8003,697
0.8019667,688
0.8036333,821
0.8053,790
0.8069667,764
0.8086333,657
0.8103,733
0.8119667,768
0.8136333,750
0.8153,783
0.8169667,792
0.8186333,694
0.8203,719
0.8219666,747
0.8236333,854
0.8253,843
0.8269666,831
0.8286333,839
0.8303,784
0.8319666,829
0.8336333,875
0.8353,766
0.8369667,907
0.8386334,948
0.8403,928
0.8419667,752
0.8436334,788
0.8453,562
0.8469667,834
0.8486333,717
0.8503,920
0.8519667,836
0.8536333,857
0.8553,792
0.8569667,859
0.8586333,708
0.8603,596
0.8619667,637
0.8636333,747
0.8653,727
0.8669667,692
0.8686333,637
0.8703,624
0.8719667,584
0.8736333,564
0.8753,686
0.8769667,981
0.8786333,1166
0.8803,1287
0.8819667,1607
0.8836333,2031
0.8853,2407
0.8869666,2823
0.8886333,3366
0.8903,3166
0.8919666,3454
0.8936333,3105
0.8953,3383
0.8969667,3553
0.8986334,3447
0.9003,2829
0.9019667,2996
0.9036334,3005
0.9053,3001
0.9069667,3382
0.9086334,3301
0.9103,3301
0.9119667,3326
0.9136333,3352
0.9153,3227
0.9169667,2928
0.9186333,2961
0.9203,2994
0.9219667,3043
0.9236333,3028
0.9253,3014
0.9269667,2900
0.9286333,3121
0.9303,3040
0.9319667,2960
0.9336333,2910
0.9353,3088
0.9369667,2703
0.9386333,2775
0.9403,2559
0.9419667,2700
0.9436333,2437
0.9453,2306
0.9469666,2231
0.9486333,2100
0.9503,2060
0.9519666,2052
0.9536333,1813
0.9553,1767
0.9569666,1637
0.9586333,1550
0.9603,1247
0.9619667,1590
0.9636334,1108
0.9653,1160
0.9669667,1024
0.9686334,1101
0.9703,904
0.9719667,1007
0.9736333,718
0.9753,626
0.9769667,601
0.9786333,695
0.9803,631
0.9819667,666
0.9836333,668
0.9853,610
0.9869667,675
0.9886333,592
0.9903,687
0.9919667,562
0.9936333,669
0.9953,570
0.9969667,348
0.9986333,381
1.0003,584
1.001967,424
1.003633,624
1.0053,465
1.006967,609
1.008633,555
1.0103,526
1.011967,481
1.013633,451
1.0153,556
1.016967,533
1.018633,541
1.0203,549
1.021967,664
1.023633,655
1.0253,529
1.026967,623
1.028633,528
1.0303,529
1.031967,637
1.033633,579
1.0353,643
1.036967,530
1.038633,687
1.0403,457
1.041967,438
1.043633,546
1.0453,489
1.046967,562
1.048633,447
1.0503,525
1.051967,445
1.053633,478
1.0553,511
1.056967,577
1.058633,628
1.0603,660
1.061967,627
1.063633,594
1.0653,640
1.066967,520
1.068633,540
1.0703,582
1.071967,580
1.073633,559
1.0753,537
1.076967,630
1.078633,608
1.0803,586
1.081967,620
1.083633,539
1.0853,653
1.086967,584
1.088633,477
1.0903,560
1.091967,573
1.093633,668
1.0953,640
1.096967,633
1.098633,594
1.1003,613
1.101967,558
1.103633,620
1.1053,617
1.106967,615
1.108633,523
1.1103,672
1.111967,646
1.113633,713
1.1153,701
1.116967,393
1.118633,470
1.1203,763
1.121967,592
1.123633,472
1.1253,659
1.126967,361
1.128633,604
1.1303,662
1.131967,671
1.133633,606
1.1353,575
1.136967,544
1.138633,566
1.1403,691
1.141967,714
1.143633,767
1.1453,742
1.146967,717
1.148633,626
1.1503,673
1.151967,681
1.153633,634
1.1553,631
1.156967,628
1.158633,650
1.1603,640
1.161967,629
1.163633,625
1.1653,653
1.166967,847
1.168633,805
1.1703,697
1.171967,665
1.173633,768
1.1753,787
1.176967,744
1.178633,742
1.1803,748
1.181967,777
1.183633,806
1.1853,842
1.186967,826
1.188633,810
1.1903,795
1.191967,833
1.193633,870
1.1953,948
1.196967,696
1.198633,714
