"SampleName","A2Rd2_01-6"
"Target Mass 1",
"Column Name","IA-3 (3um, 4.6X100)"
"Channel","QDa 1: SIR Ch1"
0.00195,313
0.003616667,480
0.005283333,639
0.00695,446
0.008616666,617
0.01028333,617
0.01195,430
0.01361667,644
0.01528333,549
0.01695,476
0.01861667,432
0.02028333,517
0.02195,523
0.02361667,515
0.02528333,520
0.02695,526
0.02861667,486
0.03028333,471
0.03195,535
0.03361667,495
0.03528333,456
0.03695,650
0.03861667,618
0.04028333,449
0.04195,572
0.04361667,544
0.04528333,443
0.04695,403
0.04861667,481
0.05028334,455
0.05195,430
0.05361667,490
0.05528333,476
0.05695,461
0.05861667,431
0.06028333,532
0.06195,473
0.06361666,413
0.06528334,476
0.06695,541
0.06861667,540
0.07028333,405
0.07195,551
0.07361667,579
0.07528333,547
0.07695,434
0.07861666,570
0.08028334,551
0.08195,555
0.08361667,322
0.08528333,517
0.08695,660
0.08861667,550
0.09028333,501
0.09195,622
0.09361666,636
0.09528334,384
0.09695,537
0.09861667,706
0.1002833,530
0.10195,494
0.1036167,370
0.1052833,457
0.10695,429
0.1086167,402
0.1102833,483
0.11195,486
0.1136167,375
0.1152833,416
0.11695,480
0.1186167,420
0.1202833,449
0.12195,368
0.1236167,564
0.1252833,527
0.12695,510
0.1286167,541
0.1302833,580
0.13195,466
0.1336167,425
0.1352833,469
0.13695,407
0.1386167,344
0.1402833,348
0.14195,352
0.1436167,398
0.1452833,387
0.14695,376
0.1486167,500
0.1502833,443
0.15195,385
0.1536167,577
0.1552833,516
0.15695,377
0.1586167,535
0.1602833,438
0.16195,431
0.1636167,424
0.1652833,423
0.16695,423
0.1686167,441
0.1702833,459
0.17195,588
0.1736167,598
0.1752833,596
0.17695,454
0.1786167,502
0.1802833,593
0.18195,499
0.1836167,357
0.1852833,490
0.18695,546
0.1886167,353
0.1902833,500
0.19195,556
0.1936167,387
0.1952833,501
0.19695,519
0.1986167,499
0.2002833,483
0.20195,467
0.2036167,292
0.2052833,553
0.20695,442
0.2086167,374
0.2102833,389
0.21195,405
0.2136167,474
0.2152833,472
0.21695,376
0.2186167,502
0.2202833,492
0.22195,477
0.2236167,472
0.2252833,401
0.22695,443
0.2286167,486
0.2302833,372
0.23195,497
0.2336167,448
0.2352833,434
0.23695,501
0.2386167,483
0.2402833,444
0.24195,405
0.2436167,420
0.2452833,448
0.24695,476
0.2486167,483
0.2502833,510
0.25195,331
0.2536167,575
0.2552833,501
0.25695,531
0.2586167,535
0.2602833,455
0.26195,572
0.2636167,495
0.2652833,436
0.26695,473
0.2686167,530
0.2702833,420
0.27195,474
0.2736167,520
0.2752833,563
0.27695,507
0.2786167,498
0.2802833,478
0.28195,445
0.2836167,457
0.2852833,469
0.28695,488
0.2886167,507
0.2902833,505
0.29195,504
0.2936167,478
0.2952833,452
0.29695,472
0.2986167,492
0.3002833,572
0.30195,583
0.3036333,682
0.3052833,696
0.30695,597
0.3086167,663
0.3102833,532
0.31195,452
0.3136167,480
0.3153,549
0.31695,550
0.3186167,516
0.3202833,517
0.32195,500
0.3236167,483
0.3252833,501
0.32695,519
0.3286167,499
0.3302833,479
0.33195,461
0.3336333,443
0.3352833,559
0.33695,601
0.3386167,518
0.3402833,539
0.34195,561
0.3436167,606
0.3452833,600
0.34695,545
0.3486167,578
0.3503,557
0.3519667,536
0.3536333,516
0.3552833,541
0.35695,629
0.3586167,690
0.3602833,876
0.36195,1632
0.3636167,5724
0.3652833,8284
0.3669667,9764
0.3686333,9328
0.3702833,7825
0.37195,6546
0.3736167,5582
0.3752833,4511
0.37695,4273
0.3786167,3287
0.3802833,3199
0.38195,2775
0.3836167,2351
0.3853,2178
0.38695,2144
0.3886333,1968
0.3902833,2019
0.39195,2028
0.3936167,2336
0.3952833,2348
0.39695,2300
0.3986167,2206
0.4003,2013
0.40195,2177
0.4036333,2222
0.4053,2325
0.40695,1883
0.4086167,2173
0.4102833,1991
0.41195,1890
0.4136167,1841
0.4153,1705
0.41695,1715
0.4186333,1844
0.4203,1536
0.4219667,1728
0.4236333,1515
0.4252833,1528
0.42695,1533
0.4286333,1538
0.4303,1605
0.43195,1384
0.4336333,1393
0.4353,1642
0.43695,1537
0.4386333,1317
0.4402833,1337
0.4419667,1710
0.4436167,2133
0.4453,3658
0.44695,5556
0.4486333,11764
0.4502833,20536
0.4519667,38080
0.4536333,66160
0.4553,107280
0.4569667,160640
0.4586333,242240
0.4602833,331520
0.4619667,434048
0.4636167,551424
0.4653,680448
0.4669667,797184
0.4686333,891648
0.4703,967168
0.4719667,1014528
0.4736333,997120
0.4753,994048
0.4769667,928512
0.4786333,843008
0.4803,750848
0.4819667,658432
0.4836333,563200
0.4853,467136
0.4869667,388416
0.4886333,321856
0.4903,265280
0.4919667,224000
0.4936333,187840
0.4953,161792
0.4969667,133888
0.4986333,111440
0.5003,98720
0.5019667,84112
0.5036333,72752
0.5053,61888
0.5069667,51824
0.5086333,46432
0.5103,40064
0.5119666,35536
0.5136333,29516
0.5153,25876
0.5169666,24392
0.5186333,21212
0.5203,18256
0.5219667,17260
0.5236334,15308
0.5253,14444
0.5269667,13388
0.5286334,11992
0.5303,12280
0.5319667,11336
0.5336334,10152
0.5353,9344
0.5369667,9104
0.5386333,9060
0.5403,8600
0.5419667,8552
0.5436333,7572
0.5453,7765
0.5469667,6953
0.5486333,7260
0.5503,6271
0.5519667,6228
0.5536333,5871
0.5553,5772
0.5569667,5582
0.5586333,5158
0.5603,5420
0.5619667,5112
0.5636333,4850
0.5653,4628
0.5669667,4308
0.5686333,4023
0.5703,4133
0.5719666,4225
0.5736333,3762
0.5753,4011
0.5769666,3971
0.5786333,3788
0.5803,3660
0.5819666,3653
0.5836333,3636
0.5853,3419
0.5869667,3126
0.5886334,3039
0.5903,3045
0.5919667,3051
0.5936334,2916
0.5953,2819
0.5969667,2931
0.5986333,2868
0.6003,2805
0.6019667,2445
0.6036333,2943
0.6053,3121
0.6069667,2648
0.6086333,2935
0.6103,2760
0.6119667,2209
0.6136333,2331
0.6153,2510
0.6169667,2593
0.6186333,2300
0.6203,2372
0.6219667,2340
0.6236333,2092
0.6253,2035
0.6269667,2079
0.6286333,2039
0.6303,2282
0.6319667,1723
0.6336333,2041
0.6353,1813
0.6369666,1943
0.6386333,1740
0.6403,1805
0.6419666,1870
0.6436333,1727
0.6453,1767
0.6469667,1494
0.6486334,1668
0.6503,1674
0.6519667,1527
0.6536334,1511
0.6553,1633
0.6569667,1450
0.6586334,1628
0.6603,1680
0.6619667,1824
0.6636333,1698
0.6653,1849
0.6669667,1635
0.6686333,1836
0.6703,1808
0.6719667,1725
0.6736333,1726
0.6753,1726
0.6769667,1937
0.6786333,1907
0.6803,1651
0.6819667,1595
0.6836333,1651
0.6853,1457
0.6869667,1250
0.6886333,1462
0.6903,1614
0.6919667,1243
0.6936333,1285
0.6953,1271
0.6969666,1279
0.6986333,1310
0.7003,1341
0.7019666,1213
0.7036333,1084
0.7053,1280
0.7069666,1239
0.7086333,1131
0.7103,1225
0.7119667,1300
0.7136334,1202
0.7153,1168
0.7169667,1242
0.7186334,1102
0.7203,1088
0.7219667,1196
0.7236333,975
0.7253,979
0.7269667,1017
0.7286333,1058
0.7303,1098
0.7319667,1036
0.7336333,973
0.7353,1011
0.7369667,1048
0.7386333,1273
0.7403,1238
0.7419667,1013
0.7436333,1037
0.7453,1288
0.7469667,1083
0.7486333,1117
0.7503,1188
0.7519667,1184
0.7536333,1088
0.7553,1105
0.7569667,1123
0.7586333,1101
0.7603,1079
0.7619666,1219
0.7636333,858
0.7653,997
0.7669666,1126
0.7686333,1099
0.7703,937
0.7719667,999
0.7736334,887
0.7753,1022
0.7769667,1028
0.7786334,1027
0.7803,921
0.7819667,972
0.7836334,970
0.7853,969
0.7869667,993
0.7886333,1016
0.7903,1078
0.7919667,1101
0.7936333,1037
0.7953,854
0.7969667,1176
0.7986333,1022
0.8003,1073
0.8019667,1119
0.8036333,1165
0.8053,1230
0.8069667,1223
0.8086333,1080
0.8103,1046
0.8119667,1057
0.8136333,1085
0.8153,1113
0.8169667,1164
0.8186333,1083
0.8203,1001
0.8219666,1065
0.8236333,1128
0.8253,1179
0.8269666,1180
0.8286333,1131
0.8303,1118
0.8319666,1105
0.8336333,1160
0.8353,943
0.8369667,1034
0.8386334,1011
0.8403,987
0.8419667,1030
0.8436334,1087
0.8453,1042
0.8469667,997
0.8486333,1037
0.8503,996
0.8519667,984
0.8536333,972
0.8553,1023
0.8569667,936
0.8586333,942
0.8603,874
0.8619667,1113
0.8636333,1603
0.8653,2111
0.8669667,2315
0.8686333,2806
0.8703,3527
0.8719667,3678
0.8736333,4097
0.8753,3962
0.8769667,3827
0.8786333,3741
0.8803,3431
0.8819667,3564
0.8836333,3719
0.8853,3600
0.8869666,3642
0.8886333,3683
0.8903,3720
0.8919666,3541
0.8936333,3577
0.8953,3508
0.8969667,3549
0.8986334,3590
0.9003,3517
0.9019667,3555
0.9036334,3593
0.9053,3745
0.9069667,4004
0.9086334,4096
0.9103,3877
0.9119667,3895
0.9136333,3741
0.9153,3803
0.9169667,3413
0.9186333,3513
0.9203,3351
0.9219667,3401
0.9236333,3451
0.9253,3785
0.9269667,3766
0.9286333,3520
0.9303,3254
0.9319667,3630
0.9336333,3559
0.9353,3066
0.9369667,3053
0.9386333,2906
0.9403,2942
0.9419667,2955
0.9436333,2967
0.9453,2501
0.9469666,2336
0.9486333,2582
0.9503,2002
0.9519666,1868
0.9536333,2288
0.9553,2304
0.9569666,1927
0.9586333,1634
0.9603,1658
0.9619667,1422
0.9636334,1618
0.9653,1236
0.9669667,1264
0.9686334,1326
0.9703,1200
0.9719667,1241
0.9736333,1130
0.9753,990
0.9769667,964
0.9786333,811
0.9803,906
0.9819667,810
0.9836333,895
0.9853,724
0.9869667,709
0.9886333,791
0.9903,937
0.9919667,918
0.9936333,710
0.9953,800
0.9969667,859
0.9986333,701
1.0003,742
1.001967,802
1.003633,688
1.0053,796
1.006967,810
1.008633,615
1.0103,612
1.011967,847
1.013633,726
1.0153,661
1.016967,671
1.018633,637
1.0203,664
1.021967,691
1.023633,749
1.0253,800
1.026967,761
1.028633,721
1.0303,752
1.031967,658
1.033633,603
1.0353,765
1.036967,752
1.038633,703
1.0403,768
1.041967,728
1.043633,710
1.0453,692
1.046967,703
1.048633,713
1.0503,669
1.051967,670
1.053633,742
1.0553,813
1.056967,814
1.058633,615
1.0603,924
1.061967,739
1.063633,891
1.0653,688
1.066967,726
1.068633,862
1.0703,802
1.071967,742
1.073633,724
1.0753,829
1.076967,684
1.078633,840
1.0803,807
1.081967,696
1.083633,796
1.0853,768
1.086967,710
1.088633,731
1.0903,752
1.091967,758
1.093633,765
1.0953,765
1.096967,765
1.098633,628
1.1003,792
1.101967,664
1.103633,813
1.1053,714
1.106967,789
1.108633,801
1.1103,813
1.111967,750
1.113633,716
1.1153,842
1.116967,636
1.118633,662
1.1203,517
1.121967,697
1.123633,697
1.1253,770
1.126967,622
1.128633,853
1.1303,815
1.131967,736
1.133633,701
1.1353,722
1.136967,580
1.138633,864
1.1403,829
1.141967,757
1.143633,767
1.1453,819
1.146967,821
1.148633,817
1.1503,757
1.151967,799
1.153633,728
1.1553,789
1.156967,851
1.158633,693
1.1603,826
1.161967,790
1.163633,754
1.1653,948
1.166967,925
1.168633,1058
1.1703,853
1.171967,898
1.173633,961
1.1753,859
1.176967,828
1.178633,967
1.1803,941
1.181967,914
1.183633,916
1.1853,829
1.186967,849
1.188633,868
1.1903,942
1.191967,987
1.193633,803
1.1953,1025
1.196967,988
1.198633,1113
