"SampleName","A2Rd2_01-13"
"Target Mass 1",
"Column Name","IA-3 (3um, 4.6X100)"
"Channel","QDa 1: SIR Ch2"
0.00195,559
0.003616667,639
0.005283333,648
0.00695,707
0.008616666,720
0.01028333,733
0.01195,890
0.01361667,939
0.01528333,884
0.01695,833
0.01861667,782
0.02028333,675
0.02195,668
0.02361667,660
0.02528333,804
0.02695,849
0.02861667,894
0.03028333,879
0.03195,839
0.03361667,902
0.03528333,836
0.03695,771
0.03861667,792
0.04028333,849
0.04195,868
0.04361667,888
0.04528333,705
0.04695,935
0.04861667,722
0.05028334,818
0.05195,815
0.05361667,768
0.05528333,720
0.05695,854
0.05861667,701
0.06028333,909
0.06195,888
0.06361666,686
0.06528334,847
0.06695,937
0.06861667,747
0.07028333,846
0.07195,1037
0.07361667,947
0.07528333,973
0.07695,1010
0.07861666,749
0.08028334,804
0.08195,835
0.08361667,841
0.08528333,732
0.08695,880
0.08861667,881
0.09028333,853
0.09195,763
0.09361666,719
0.09528334,892
0.09695,775
0.09861667,882
0.1002833,889
0.10195,896
0.1036167,854
0.1052833,874
0.10695,810
0.1086167,816
0.1102833,822
0.11195,695
0.1136167,677
0.1152833,654
0.11695,749
0.1186167,844
0.1202833,858
0.12195,795
0.1236167,781
0.1252833,767
0.12695,640
0.1286167,674
0.1302833,715
0.13195,755
0.1336167,617
0.1352833,663
0.13695,709
0.1386167,810
0.1402833,775
0.14195,701
0.1436167,843
0.1452833,798
0.14695,835
0.1486167,828
0.1502833,822
0.15195,791
0.1536167,761
0.1552833,815
0.15695,827
0.1586167,770
0.1602833,713
0.16195,738
0.1636167,762
0.1652833,914
0.16695,960
0.1686167,906
0.1702833,918
0.17195,806
0.1736167,730
0.1752833,969
0.17695,740
0.1786167,991
0.1802833,933
0.18195,870
0.1836167,772
0.1852833,968
0.18695,800
0.1886167,788
0.1902833,937
0.19195,802
0.1936167,1058
0.1952833,1053
0.19695,927
0.1986167,794
0.2002833,878
0.20195,1028
0.2036167,1008
0.2052833,961
0.20695,915
0.2086167,787
0.2102833,771
0.21195,940
0.2136167,919
0.2152833,898
0.21695,935
0.2186167,1024
0.2202833,1037
0.22195,1076
0.2236167,1114
0.2252833,963
0.22695,838
0.2286167,1038
0.2302833,1028
0.23195,1018
0.2336167,1077
0.2352833,1136
0.23695,1051
0.2386167,965
0.2402833,1179
0.24195,1074
0.2436167,1228
0.2452833,1106
0.24695,1050
0.2486167,1032
0.2502833,1239
0.25195,1239
0.2536167,1082
0.2552833,1052
0.25695,1198
0.2586167,1291
0.2602833,1222
0.26195,961
0.2636333,1368
0.2652833,1055
0.26695,1215
0.2686167,848
0.2702833,1105
0.27195,1004
0.2736167,755
0.2752833,1009
0.27695,854
0.2786167,1087
0.2803,949
0.28195,852
0.2836167,937
0.2852833,1045
0.28695,1008
0.2886167,932
0.2902833,941
0.29195,950
0.2936167,1004
0.2952833,1057
0.29695,1199
0.2986333,1194
0.3002833,1116
0.3019667,1002
0.3036333,1245
0.3052833,1004
0.30695,991
0.3086167,950
0.3102833,1059
0.31195,996
0.3136333,933
0.3153,1170
0.31695,1144
0.3186167,1118
0.3202833,1017
0.32195,1244
0.3236167,1156
0.3252833,1139
0.32695,1123
0.3286167,1478
0.3303,1417
0.33195,1402
0.3336333,1357
0.3352833,1400
0.33695,1463
0.3386167,1438
0.3402833,1290
0.34195,1285
0.3436167,1306
0.3452833,1255
0.3469667,1166
0.3486167,1078
0.3503,1166
0.3519667,1254
0.3536167,1301
0.3552833,1091
0.35695,1431
0.3586167,1360
0.3602833,1610
0.36195,1779
0.3636333,3759
0.3652833,4985
0.36695,6256
0.3686333,6482
0.3702833,5901
0.3719667,4784
0.3736167,3751
0.3753,2789
0.37695,2156
0.3786333,1646
0.3803,1316
0.3819667,1173
0.3836167,752
0.3853,591
0.3869667,709
0.3886333,700
0.3902833,450
0.3919667,604
0.3936167,603
0.3953,540
0.3969667,694
0.3986167,692
0.4002833,711
0.4019667,715
0.4036333,720
0.4053,743
0.4069667,587
0.4086167,744
0.4103,608
0.4119667,511
0.4136333,517
0.4153,702
0.4169667,731
0.4186333,790
0.4203,675
0.4219667,649
0.4236333,710
0.4253,744
0.4269667,778
0.4286333,764
0.4303,868
0.4319667,952
0.4336333,993
0.4353,1085
0.4369667,1025
0.4386333,964
0.4403,987
0.4419667,1051
0.4436333,1042
0.4453,1034
0.4469667,1048
0.4486333,1061
0.4503,1067
0.4519667,1072
0.4536333,1272
0.4553,1252
0.4569667,1499
0.4586333,1512
0.4603,1447
0.4619667,1617
0.4636333,1575
0.4653,1506
0.4669667,1415
0.4686333,1627
0.4703,1535
0.4719667,1444
0.4736333,1418
0.4753,1546
0.4769667,1500
0.4786333,1048
0.4803,1387
0.4819667,1294
0.4836333,1071
0.4853,1255
0.4869667,1295
0.4886333,1366
0.4903,1074
0.4919667,1113
0.4936333,1175
0.4953,1094
0.4969667,1109
0.4986333,905
0.5003,1074
0.5019667,778
0.5036333,1169
0.5053,1131
0.5069667,780
0.5086333,1066
0.5103,988
0.5119666,1011
0.5136333,920
0.5153,971
0.5169666,1022
0.5186333,756
0.5203,942
0.5219667,957
0.5236334,959
0.5253,961
0.5269667,983
0.5286334,1005
0.5303,1021
0.5319667,1036
0.5336334,1064
0.5353,964
0.5369667,1086
0.5386333,793
0.5403,923
0.5419667,1117
0.5436333,1007
0.5453,1075
0.5469667,964
0.5486333,984
0.5503,1034
0.5519667,937
0.5536333,997
0.5553,924
0.5569667,886
0.5586333,849
0.5603,1052
0.5619667,1093
0.5636333,1058
0.5653,989
0.5669667,941
0.5686333,855
0.5703,937
0.5719666,898
0.5736333,942
0.5753,915
0.5769666,888
0.5786333,852
0.5803,872
0.5819666,916
0.5836333,975
0.5853,935
0.5869667,953
0.5886334,972
0.5903,1111
0.5919667,1048
0.5936334,985
0.5953,879
0.5969667,967
0.5986333,1049
0.6003,984
0.6019667,918
0.6036333,828
0.6053,895
0.6069667,862
0.6086333,938
0.6103,937
0.6119667,963
0.6136333,908
0.6153,938
0.6169667,967
0.6186333,1010
0.6203,1184
0.6219667,1159
0.6236333,1066
0.6253,1069
0.6269667,1095
0.6286333,1137
0.6303,1125
0.6319667,1207
0.6336333,1126
0.6353,1044
0.6369666,1159
0.6386333,1164
0.6403,1192
0.6419666,1221
0.6436333,1338
0.6453,1300
0.6469667,1384
0.6486334,1161
0.6503,1475
0.6519667,1131
0.6536334,1113
0.6553,1161
0.6569667,1060
0.6586334,1214
0.6603,1179
0.6619667,1151
0.6636333,1007
0.6653,1015
0.6669667,1024
0.6686333,1070
0.6703,1039
0.6719667,1008
0.6736333,1473
0.6753,1373
0.6769667,1842
0.6786333,2231
0.6803,2746
0.6819667,3324
0.6836333,4375
0.6853,5325
0.6869667,6607
0.6886333,7881
0.6903,10660
0.6919667,13172
0.6936333,16416
0.6953,20868
0.6969666,27060
0.6986333,32028
0.7003,39520
0.7019666,45184
0.7036333,49728
0.7053,58640
0.7069666,63440
0.7086333,67648
0.7103,67792
0.7119667,66944
0.7136334,64912
0.7153,61376
0.7169667,55088
0.7186334,49904
0.7203,42192
0.7219667,35008
0.7236333,30952
0.7253,24284
0.7269667,21260
0.7286333,16088
0.7303,13364
0.7319667,11236
0.7336333,9388
0.7353,7700
0.7369667,6929
0.7386333,6164
0.7403,5588
0.7419667,4667
0.7436333,4656
0.7453,3992
0.7469667,4207
0.7486333,3969
0.7503,3485
0.7519667,3154
0.7536333,2845
0.7553,2863
0.7569667,2449
0.7586333,2337
0.7603,2585
0.7619666,1920
0.7636333,2160
0.7653,2184
0.7669666,2156
0.7686333,1859
0.7703,2013
0.7719667,2104
0.7736334,1966
0.7753,2116
0.7769667,2541
0.7786334,2538
0.7803,3027
0.7819667,3513
0.7836334,4319
0.7853,5389
0.7869667,5320
0.7886333,6763
0.7903,8368
0.7919667,11100
0.7936333,12864
0.7953,15120
0.7969667,20048
0.7986333,24344
0.8003,30924
0.8019667,36528
0.8036333,42944
0.8053,51392
0.8069667,62656
0.8086333,66208
0.8103,76272
0.8119667,83040
0.8136333,87168
0.8153,89776
0.8169667,86688
0.8186333,86848
0.8203,84480
0.8219666,78560
0.8236333,72432
0.8253,66032
0.8269666,56416
0.8286333,48688
0.8303,41824
0.8319666,34656
0.8336333,31236
0.8353,24788
0.8369667,20612
0.8386334,18184
0.8403,14540
0.8419667,12672
0.8436334,10816
0.8453,9916
0.8469667,9188
0.8486333,7424
0.8503,7022
0.8519667,6236
0.8536333,5829
0.8553,5675
0.8569667,5005
0.8586333,4802
0.8603,3993
0.8619667,3611
0.8636333,3820
0.8653,3626
0.8669667,3377
0.8686333,2585
0.8703,2502
0.8719667,2780
0.8736333,2608
0.8753,2436
0.8769667,2698
0.8786333,2920
0.8803,2771
0.8819667,2784
0.8836333,2854
0.8853,2891
0.8869666,2929
0.8886333,2777
0.8903,2647
0.8919666,2752
0.8936333,2432
0.8953,2172
0.8969667,2069
0.8986334,2081
0.9003,2204
0.9019667,1976
0.9036334,2222
0.9053,2134
0.9069667,1935
0.9086334,1792
0.9103,1835
0.9119667,1879
0.9136333,1902
0.9153,1782
0.9169667,1837
0.9186333,1673
0.9203,1695
0.9219667,1717
0.9236333,1817
0.9253,1918
0.9269667,1919
0.9286333,1859
0.9303,1768
0.9319667,1735
0.9336333,1762
0.9353,1630
0.9369667,1734
0.9386333,1679
0.9403,1624
0.9419667,1680
0.9436333,1843
0.9453,1823
0.9469666,1804
0.9486333,1539
0.9503,1947
0.9519666,2012
0.9536333,2196
0.9553,2385
0.9569666,3130
0.9586333,3630
0.9603,4459
0.9619667,4965
0.9636334,5860
0.9653,7457
0.9669667,8516
0.9686334,11088
0.9703,12792
0.9719667,15360
0.9736333,18600
0.9753,21356
0.9769667,27856
0.9786333,32832
0.9803,38976
0.9819667,47040
0.9836333,56208
0.9853,64720
0.9869667,79296
0.9886333,90208
0.9903,104784
0.9919667,118288
0.9936333,136192
0.9953,150016
0.9969667,164032
0.9986333,173248
1.0003,192448
1.001967,195840
1.003633,203648
1.0053,206208
1.006967,209856
1.008633,204672
1.0103,195904
1.011967,182592
1.013633,176128
1.0153,164672
1.016967,151360
1.018633,137280
1.0203,124272
1.021967,112816
1.023633,97968
1.0253,86080
1.026967,75744
1.028633,70304
1.0303,61888
1.031967,50208
1.033633,46464
1.0353,43104
1.036967,38272
1.038633,35344
1.0403,32588
1.041967,32152
1.043633,28852
1.0453,26856
1.046967,26840
1.048633,25300
1.0503,23380
1.051967,22244
1.053633,22148
1.0553,21452
1.056967,20560
1.058633,19820
1.0603,19564
1.061967,19884
1.063633,19772
1.0653,19916
1.066967,20260
1.068633,21524
1.0703,25732
1.071967,25444
1.073633,26988
1.0753,29528
1.076967,33264
1.078633,35184
1.0803,40304
1.081967,41728
1.083633,45088
1.0853,48144
1.086967,50608
1.088633,53776
1.0903,53200
1.091967,56944
1.093633,56144
1.0953,56624
1.096967,54032
1.098633,54224
1.1003,53616
1.101967,49200
1.103633,48256
1.1053,45632
1.106967,42688
1.108633,39792
1.1103,34912
1.111967,33680
1.113633,28408
1.1153,28072
1.116967,24248
1.118633,23256
1.1203,20612
1.121967,17988
1.123633,16488
1.1253,15208
1.126967,13852
1.128633,13612
1.1303,12376
1.131967,11212
1.133633,10416
1.1353,9496
1.136967,8740
1.138633,8008
1.1403,8175
1.141967,7482
1.143633,7160
1.1453,6563
1.146967,5567
1.148633,6072
1.1503,5540
1.151967,5247
1.153633,5657
1.1553,4539
1.156967,5103
1.158633,4582
1.1603,4050
1.161967,4295
1.163633,3531
1.1653,3858
1.166967,4041
1.168633,3752
1.1703,3596
1.171967,3128
1.173633,3085
1.1753,2869
1.176967,3065
1.178633,3191
1.1803,3157
1.181967,2948
1.183633,2862
1.1853,2731
1.186967,2893
1.188633,3042
1.1903,2554
1.191967,3192
1.193633,3052
1.1953,3141
1.196967,3148
1.198633,3155
