"SampleName","standard"
"Target Mass 1",
"Column Name","IA-3 (3um, 4.6X100)"
"Channel","QDa 1: SIR Ch2"
0.00195,445
0.003616667,850
0.005283333,882
0.00695,818
0.008616666,889
0.01028333,960
0.01195,980
0.01361667,999
0.01528333,889
0.01695,1020
0.01861667,1017
0.02028333,1015
0.02195,871
0.02361667,922
0.02528333,851
0.02695,947
0.02861667,1008
0.03028333,1070
0.03195,899
0.03361667,821
0.03528333,957
0.03695,788
0.03861667,1029
0.04028333,948
0.04195,920
0.04361667,952
0.04528333,919
0.04695,886
0.04861667,892
0.05028334,899
0.05195,992
0.05361667,925
0.05528333,859
0.05695,1141
0.05861667,1070
0.06028333,1121
0.06195,1092
0.06361666,1017
0.06528334,951
0.06695,867
0.06861667,1039
0.07028333,1010
0.07195,1031
0.07361667,1041
0.07528333,1029
0.07695,914
0.07861666,1021
0.08028334,1128
0.08195,1066
0.08361667,1082
0.08528333,998
0.08695,975
0.08861667,1062
0.09028333,1068
0.09195,1042
0.09361666,921
0.09528334,977
0.09695,1068
0.09861667,1152
0.1002833,1096
0.10195,925
0.1036167,875
0.1052833,951
0.10695,1226
0.1086167,1328
0.1102833,973
0.11195,1273
0.1136167,1021
0.1152833,1079
0.11695,1259
0.1186167,1111
0.1202833,1217
0.12195,1098
0.1236167,1290
0.1252833,877
0.12695,1154
0.1286167,1061
0.1302833,1027
0.13195,1088
0.1336167,1065
0.1352833,1115
0.13695,1152
0.1386167,1022
0.1402833,1026
0.14195,1029
0.1436167,1225
0.1452833,1196
0.14695,1092
0.1486167,906
0.1502833,1078
0.15195,992
0.1536167,1074
0.1552833,1064
0.15695,1054
0.1586167,1103
0.1602833,1117
0.16195,958
0.1636167,932
0.1652833,1045
0.16695,836
0.1686167,1090
0.1702833,1145
0.17195,970
0.1736167,1163
0.1752833,958
0.17695,1083
0.1786167,1070
0.1802833,931
0.18195,1154
0.1836167,1015
0.1852833,1022
0.18695,1097
0.1886167,1055
0.1902833,1014
0.19195,995
0.1936167,1067
0.1952833,943
0.19695,821
0.1986167,1120
0.2002833,1121
0.20195,933
0.2036167,1014
0.2052833,1147
0.20695,881
0.2086167,811
0.2102833,1026
0.21195,1155
0.2136167,1273
0.2152833,988
0.21695,1014
0.2186167,893
0.2202833,840
0.22195,987
0.2236167,886
0.2252833,1139
0.22695,1070
0.2286167,949
0.2302833,886
0.23195,1077
0.2336167,889
0.2352833,950
0.23695,1117
0.2386167,1092
0.2402833,1115
0.24195,901
0.2436167,1089
0.2453,939
0.24695,1148
0.2486167,1127
0.2502833,1106
0.25195,1000
0.2536167,975
0.2552833,1115
0.25695,1102
0.2586167,1130
0.2602833,1036
0.26195,992
0.2636333,1167
0.2652833,1092
0.26695,900
0.2686167,973
0.2702833,936
0.27195,1060
0.2736167,1133
0.2752833,1078
0.27695,1114
0.2786167,1151
0.2803,1001
0.28195,983
0.2836167,996
0.2852833,1108
0.2869667,1270
0.2886167,1329
0.2902833,1132
0.29195,1080
0.2936167,1045
0.2952833,1133
0.29695,1109
0.2986333,1085
0.3002833,1117
0.30195,1149
0.3036333,1060
0.3052833,1002
0.30695,1151
0.3086167,1139
0.3102833,1121
0.31195,1103
0.3136167,1118
0.3153,1182
0.3169667,905
0.3186167,974
0.3203,1043
0.3219667,1199
0.3236167,1313
0.3252833,1342
0.32695,1340
0.3286333,1300
0.3302833,1218
0.33195,1176
0.3336333,1133
0.3353,1295
0.3369667,1282
0.3386167,1354
0.3402833,1371
0.34195,1389
0.3436167,1437
0.3453,1322
0.34695,1206
0.3486167,1209
0.3503,1254
0.3519667,1248
0.3536333,1176
0.3552833,1171
0.3569667,1247
0.3586167,1164
0.3602833,1357
0.3619667,1373
0.3636333,1411
0.3652833,1359
0.3669667,1200
0.3686333,1249
0.3703,1139
0.3719667,1189
0.3736333,1138
0.3752833,1118
0.3769667,1099
0.3786333,1113
0.3803,1127
0.38195,1290
0.3836333,1251
0.3853,1164
0.3869667,1233
0.3886333,1302
0.3903,1268
0.3919667,1292
0.3936333,1226
0.3953,1309
0.3969667,1257
0.3986333,1349
0.4003,1343
0.4019667,1234
0.4036333,1358
0.4053,1215
0.4069667,1292
0.4086333,1100
0.4103,1158
0.4119667,1185
0.4136333,1248
0.4153,1263
0.4169667,1281
0.4186333,979
0.4203,1314
0.4219667,917
0.4236333,1211
0.4253,1369
0.4269667,1232
0.4286333,1275
0.4303,1344
0.4319667,1160
0.4336333,1297
0.4353,1337
0.4369667,1191
0.4386333,856
0.4403,1214
0.4419667,1173
0.4436333,1175
0.4453,1049
0.4469667,1201
0.4486333,1133
0.4503,1092
0.4519667,1053
0.4536333,878
0.4553,1114
0.4569667,1139
0.4586333,1070
0.4603,1333
0.4619667,1275
0.4636333,1318
0.4653,1191
0.4669667,947
0.4686333,1200
0.4703,1226
0.4719667,1096
0.4736333,1151
0.4753,1159
0.4769667,1090
0.4786333,1031
0.4803,1012
0.4819667,994
0.4836333,1187
0.4853,1163
0.4869667,976
0.4886333,1069
0.4903,1162
0.4919667,1162
0.4936333,987
0.4953,1120
0.4969667,1133
0.4986333,1146
0.5003,1013
0.5019667,879
0.5036333,1066
0.5053,1333
0.5069667,1278
0.5086333,1051
0.5103,1039
0.5119666,1137
0.5136333,1062
0.5153,987
0.5169666,961
0.5186333,936
0.5203,1184
0.5219667,1160
0.5236334,1046
0.5253,1113
0.5269667,1018
0.5286334,1318
0.5303,1262
0.5319667,1279
0.5336334,1402
0.5353,1055
0.5369667,921
0.5386333,1275
0.5403,1272
0.5419667,1261
0.5436333,1126
0.5453,1176
0.5469667,1265
0.5486333,1077
0.5503,928
0.5519667,1114
0.5536333,1124
0.5553,1165
0.5569667,1214
0.5586333,979
0.5603,1181
0.5619667,1205
0.5636333,1015
0.5653,1030
0.5669667,1223
0.5686333,1333
0.5703,1233
0.5719666,1210
0.5736333,1014
0.5753,1183
0.5769666,1235
0.5786333,1147
0.5803,1237
0.5819666,1068
0.5836333,1082
0.5853,978
0.5869667,1096
0.5886334,1186
0.5903,1240
0.5919667,1142
0.5936334,1023
0.5953,944
0.5969667,986
0.5986333,1287
0.6003,1361
0.6019667,900
0.6036333,1212
0.6053,1066
0.6069667,1271
0.6086333,1276
0.6103,901
0.6119667,1267
0.6136333,1133
0.6153,1013
0.6169667,1058
0.6186333,1093
0.6203,1075
0.6219667,1057
0.6236333,1022
0.6253,1308
0.6269667,1369
0.6286333,1147
0.6303,1049
0.6319667,1015
0.6336333,1059
0.6353,1078
0.6369666,1047
0.6386333,1010
0.6403,987
0.6419666,998
0.6436333,1009
0.6453,1150
0.6469667,1152
0.6486334,1048
0.6503,1123
0.6519667,1097
0.6536334,1072
0.6553,1147
0.6569667,1230
0.6586334,1273
0.6603,941
0.6619667,1060
0.6636333,1189
0.6653,973
0.6669667,1079
0.6686333,1101
0.6703,1144
0.6719667,1076
0.6736333,1183
0.6753,1169
0.6769667,1114
0.6786333,987
0.6803,1056
0.6819667,1250
0.6836333,1158
0.6853,1066
0.6869667,1193
0.6886333,1162
0.6903,1130
0.6919667,993
0.6936333,996
0.6953,1106
0.6969666,1061
0.6986333,891
0.7003,1035
0.7019666,1217
0.7036333,1282
0.7053,1302
0.7069666,1107
0.7086333,1143
0.7103,794
0.7119667,909
0.7136334,885
0.7153,1038
0.7169667,1054
0.7186334,956
0.7203,857
0.7219667,1142
0.7236333,1116
0.7253,1033
0.7269667,919
0.7286333,1101
0.7303,1064
0.7319667,1198
0.7336333,1113
0.7353,1103
0.7369667,1000
0.7386333,1069
0.7403,922
0.7419667,967
0.7436333,991
0.7453,978
0.7469667,911
0.7486333,1013
0.7503,903
0.7519667,1158
0.7536333,1151
0.7553,1121
0.7569667,1000
0.7586333,945
0.7603,911
0.7619666,1056
0.7636333,1166
0.7653,1225
0.7669666,1089
0.7686333,921
0.7703,1054
0.7719667,992
0.7736334,887
0.7753,995
0.7769667,1042
0.7786334,1183
0.7803,1630
0.7819667,1827
0.7836334,2467
0.7853,3384
0.7869667,5023
0.7886333,7882
0.7903,10508
0.7919667,17064
0.7936333,24832
0.7953,36960
0.7969667,52832
0.7986333,72656
0.8003,97504
0.8019667,124048
0.8036333,154304
0.8053,187840
0.8069667,219904
0.8086333,248384
0.8103,283392
0.8119667,310272
0.8136333,330496
0.8153,347968
0.8169667,352256
0.8186333,356544
0.8203,336192
0.8219666,321344
0.8236333,305792
0.8253,277824
0.8269666,251776
0.8286333,220544
0.8303,194816
0.8319666,169216
0.8336333,145728
0.8353,126480
0.8369667,109920
0.8386334,93648
0.8403,81568
0.8419667,71648
0.8436334,61680
0.8453,55088
0.8469667,49344
0.8486333,42880
0.8503,40496
0.8519667,36544
0.8536333,33616
0.8553,30612
0.8569667,27740
0.8586333,25132
0.8603,22236
0.8619667,20772
0.8636333,19888
0.8653,17968
0.8669667,16832
0.8686333,14820
0.8703,14480
0.8719667,13216
0.8736333,11944
0.8753,11740
0.8769667,9920
0.8786333,9704
0.8803,8924
0.8819667,7670
0.8836333,8412
0.8853,8130
0.8869666,7443
0.8886333,5679
0.8903,5908
0.8919666,6544
0.8936333,5877
0.8953,5178
0.8969667,4825
0.8986334,4532
0.9003,4722
0.9019667,4351
0.9036334,3722
0.9053,3807
0.9069667,3497
0.9086334,3491
0.9103,3874
0.9119667,3580
0.9136333,3363
0.9153,3473
0.9169667,3123
0.9186333,3056
0.9203,2801
0.9219667,3012
0.9236333,2755
0.9253,2750
0.9269667,2868
0.9286333,2602
0.9303,2559
0.9319667,2422
0.9336333,2555
0.9353,2515
0.9369667,2366
0.9386333,2181
0.9403,2337
0.9419667,2490
0.9436333,2667
0.9453,2065
0.9469666,2041
0.9486333,2495
0.9503,2170
0.9519666,1858
0.9536333,1971
0.9553,2003
0.9569666,1997
0.9586333,1991
0.9603,2419
0.9619667,2977
0.9636334,3214
0.9653,3964
0.9669667,5198
0.9686334,6198
0.9703,8232
0.9719667,10840
0.9736333,14084
0.9753,21828
0.9769667,28444
0.9786333,37424
0.9803,49152
0.9819667,64560
0.9836333,79088
0.9853,100288
0.9869667,119440
0.9886333,143168
0.9903,165376
0.9919667,184960
0.9936333,207744
0.9953,230336
0.9969667,250944
0.9986333,269120
1.0003,278400
1.001967,288704
1.003633,290240
1.0053,282752
1.006967,283968
1.008633,275584
1.0103,262656
1.011967,244224
1.013633,232064
1.0153,210880
1.016967,189888
1.018633,174784
1.0203,153152
1.021967,137152
1.023633,122448
1.0253,104784
1.026967,95424
1.028633,84096
1.0303,71440
1.031967,65456
1.033633,58400
1.0353,53152
1.036967,44848
1.038633,41760
1.0403,37056
1.041967,35104
1.043633,32196
1.0453,29684
1.046967,27216
1.048633,24992
1.0503,24376
1.051967,21992
1.053633,19312
1.0553,18948
1.056967,17780
1.058633,16780
1.0603,14972
1.061967,13792
1.063633,13088
1.0653,12928
1.066967,11340
1.068633,10748
1.0703,10108
1.071967,9776
1.073633,9536
1.0753,8528
1.076967,7784
1.078633,7583
1.0803,6739
1.081967,7294
1.083633,6537
1.0853,6552
1.086967,6129
1.088633,5601
1.0903,5255
1.091967,4818
1.093633,4606
1.0953,4635
1.096967,4182
1.098633,4390
1.1003,3932
1.101967,3669
1.103633,3845
1.1053,3780
1.106967,3398
1.108633,3901
1.1103,3286
1.111967,3262
1.113633,3242
1.1153,3640
1.116967,3553
1.118633,2738
1.1203,2896
1.121967,2776
1.123633,2593
1.1253,2648
1.126967,2365
1.128633,2657
1.1303,2332
1.131967,2393
1.133633,2176
1.1353,2193
1.136967,2076
1.138633,2179
1.1403,2124
1.141967,1909
1.143633,2176
1.1453,2186
1.146967,2032
1.148633,2126
1.1503,1765
1.151967,2242
1.153633,1650
1.1553,2053
1.156967,2036
1.158633,1761
1.1603,1840
1.161967,1824
1.163633,1628
1.1653,1706
1.166967,1683
1.168633,1731
1.1703,1779
1.171967,1867
1.173633,1817
1.1753,1767
1.176967,1782
1.178633,1838
1.1803,1965
1.181967,1595
1.183633,1590
1.1853,1521
1.186967,1460
1.188633,1748
1.1903,1723
1.191967,1643
1.193633,1634
1.1953,1519
1.196967,1411
1.198633,1322
