"SampleName","A2Rd2_01-86"
"Target Mass 1",
"Column Name","IA-3 (3um, 4.6X100)"
"Channel","QDa 1: SIR Ch1"
0.00195,333
0.003616667,606
0.005283333,635
0.00695,522
0.008616666,441
0.01028333,398
0.01195,452
0.01361667,485
0.01528333,519
0.01695,510
0.01861667,433
0.02028333,520
0.02195,471
0.02361667,421
0.02528333,588
0.02695,551
0.02861667,511
0.03028333,638
0.03195,611
0.03361667,662
0.03528333,589
0.03695,569
0.03861667,408
0.04028333,577
0.04195,465
0.04361667,418
0.04528333,484
0.04695,490
0.04861667,497
0.05028334,429
0.05195,530
0.05361667,411
0.05528333,539
0.05695,543
0.05861667,498
0.06028333,554
0.06195,554
0.06361666,488
0.06528334,515
0.06695,543
0.06861667,425
0.07028333,497
0.07195,620
0.07361667,246
0.07528333,486
0.07695,533
0.07861666,517
0.08028334,443
0.08195,550
0.08361667,524
0.08528333,498
0.08695,485
0.08861667,472
0.09028333,534
0.09195,559
0.09361666,585
0.09528334,430
0.09695,571
0.09861667,461
0.1002833,562
0.10195,460
0.1036167,495
0.1052833,548
0.10695,453
0.1086167,647
0.1102833,591
0.11195,572
0.1136167,599
0.1152833,527
0.11695,603
0.1186167,540
0.1202833,564
0.12195,517
0.1236167,659
0.1252833,686
0.12695,405
0.1286167,550
0.1302833,630
0.13195,515
0.1336167,475
0.1352833,531
0.13695,391
0.1386167,421
0.1402833,590
0.14195,518
0.1436167,533
0.1452833,566
0.14695,468
0.1486167,473
0.1502833,479
0.15195,537
0.1536167,477
0.1552833,416
0.15695,578
0.1586167,441
0.1602833,399
0.16195,512
0.1636167,484
0.1652833,456
0.16695,451
0.1686167,496
0.1702833,522
0.17195,519
0.1736167,347
0.1752833,467
0.17695,534
0.1786167,372
0.1802833,554
0.18195,582
0.1836167,538
0.1852833,471
0.18695,552
0.1886167,535
0.1902833,517
0.19195,554
0.1936167,456
0.1952833,504
0.19695,494
0.1986167,534
0.2002833,607
0.20195,379
0.2036167,485
0.2052833,551
0.20695,561
0.2086167,505
0.2102833,481
0.21195,533
0.2136167,555
0.2152833,549
0.21695,631
0.2186167,608
0.2202833,369
0.22195,421
0.2236167,401
0.2252833,444
0.22695,427
0.2286167,427
0.2302833,442
0.23195,440
0.2336167,439
0.2352833,414
0.23695,385
0.2386167,393
0.2403,436
0.24195,479
0.2436167,665
0.2453,692
0.24695,602
0.2486167,598
0.2502833,371
0.25195,627
0.2536167,589
0.2552833,502
0.25695,434
0.2586167,467
0.2602833,444
0.26195,422
0.2636333,504
0.2652833,524
0.26695,367
0.2686167,592
0.2702833,494
0.27195,539
0.2736167,592
0.2752833,386
0.27695,594
0.2786167,481
0.2803,614
0.28195,524
0.2836167,632
0.2852833,575
0.28695,549
0.2886167,375
0.2902833,429
0.29195,465
0.2936167,462
0.2952833,460
0.29695,450
0.2986333,578
0.3002833,623
0.30195,667
0.3036333,595
0.3052833,522
0.30695,676
0.3086167,633
0.3102833,521
0.3119667,537
0.3136167,592
0.3153,494
0.31695,534
0.3186167,606
0.3203,437
0.3219667,422
0.3236333,480
0.3252833,538
0.32695,515
0.3286333,559
0.3302833,489
0.33195,529
0.3336333,487
0.3352833,532
0.3369667,486
0.3386333,441
0.3403,542
0.34195,559
0.3436333,592
0.3453,515
0.34695,557
0.3486167,600
0.3503,532
0.35195,492
0.3536333,649
0.3553,436
0.3569667,396
0.3586167,538
0.3603,662
0.3619667,604
0.3636333,905
0.3652833,1490
0.36695,2216
0.3686333,3319
0.3703,4444
0.3719667,5834
0.3736333,6287
0.3753,7151
0.3769667,7001
0.3786333,7325
0.3802833,6021
0.3819667,5724
0.3836167,4807
0.3853,4057
0.3869667,3260
0.3886333,3339
0.3903,3059
0.3919667,2136
0.3936333,1676
0.3953,1433
0.3969667,1289
0.3986333,1328
0.4003,1133
0.4019667,1058
0.4036333,1246
0.4053,1476
0.4069667,1435
0.4086333,1163
0.4103,1557
0.4119667,1689
0.4136333,1854
0.4153,1591
0.4169667,1557
0.4186333,1905
0.4203,1763
0.4219667,1522
0.4236333,1689
0.4253,1591
0.4269667,1524
0.4286333,1690
0.4303,1683
0.4319667,1861
0.4336333,2004
0.4353,3014
0.4369667,4491
0.4386333,6785
0.4403,10796
0.4419667,15244
0.4436333,22360
0.4453,31976
0.4469667,44144
0.4486333,58208
0.4503,75776
0.4519667,91792
0.4536333,105792
0.4553,123584
0.4569667,144960
0.4586333,155264
0.4603,176384
0.4619667,192384
0.4636333,206336
0.4653,218816
0.4669667,239040
0.4686333,262080
0.4703,287680
0.4719667,296192
0.4736333,315008
0.4753,322176
0.4769667,324224
0.4786333,313152
0.4803,298752
0.4819667,274752
0.4836333,251392
0.4853,217856
0.4869667,188288
0.4886333,161216
0.4903,133824
0.4919667,107664
0.4936333,89040
0.4953,67616
0.4969667,54864
0.4986333,42000
0.5003,33152
0.5019667,25796
0.5036333,20256
0.5053,17148
0.5069667,13588
0.5086333,11248
0.5103,10224
0.5119666,8608
0.5136333,6971
0.5153,6743
0.5169666,6042
0.5186333,5415
0.5203,5192
0.5219667,4511
0.5236334,4297
0.5253,4504
0.5269667,3917
0.5286334,3824
0.5303,3550
0.5319667,3465
0.5336334,3333
0.5353,3245
0.5369667,3282
0.5386333,3020
0.5403,3094
0.5419667,2926
0.5436333,2627
0.5453,2461
0.5469667,2574
0.5486333,2305
0.5503,2105
0.5519667,2417
0.5536333,2553
0.5553,2064
0.5569667,2362
0.5586333,1885
0.5603,1704
0.5619667,1718
0.5636333,1741
0.5653,1763
0.5669667,1778
0.5686333,1794
0.5703,1489
0.5719666,1642
0.5736333,1598
0.5753,1693
0.5769666,1656
0.5786333,1358
0.5803,1485
0.5819666,1578
0.5836333,1603
0.5853,1634
0.5869667,1681
0.5886334,1388
0.5903,1515
0.5919667,1496
0.5936334,1456
0.5953,1483
0.5969667,1492
0.5986333,1502
0.6003,1435
0.6019667,1455
0.6036333,1296
0.6053,1339
0.6069667,1301
0.6086333,1513
0.6103,1495
0.6119667,1509
0.6136333,1406
0.6153,1449
0.6169667,1287
0.6186333,1176
0.6203,1217
0.6219667,1227
0.6236333,1045
0.6253,1237
0.6269667,1247
0.6286333,1407
0.6303,1303
0.6319667,1011
0.6336333,1137
0.6353,1030
0.6369666,976
0.6386333,922
0.6403,1080
0.6419666,1092
0.6436333,1065
0.6453,1055
0.6469667,1020
0.6486334,898
0.6503,952
0.6519667,933
0.6536334,982
0.6553,770
0.6569667,959
0.6586334,776
0.6603,861
0.6619667,1014
0.6636333,997
0.6653,980
0.6669667,1121
0.6686333,803
0.6703,1034
0.6719667,836
0.6736333,905
0.6753,917
0.6769667,849
0.6786333,782
0.6803,908
0.6819667,941
0.6836333,916
0.6853,1062
0.6869667,744
0.6886333,817
0.6903,874
0.6919667,852
0.6936333,804
0.6953,808
0.6969666,858
0.6986333,839
0.7003,682
0.7019666,704
0.7036333,757
0.7053,685
0.7069666,699
0.7086333,713
0.7103,720
0.7119667,726
0.7136334,621
0.7153,871
0.7169667,794
0.7186334,747
0.7203,685
0.7219667,700
0.7236333,810
0.7253,803
0.7269667,578
0.7286333,705
0.7303,797
0.7319667,632
0.7336333,665
0.7353,684
0.7369667,758
0.7386333,832
0.7403,864
0.7419667,702
0.7436333,834
0.7453,666
0.7469667,814
0.7486333,891
0.7503,586
0.7519667,871
0.7536333,801
0.7553,888
0.7569667,685
0.7586333,801
0.7603,701
0.7619666,723
0.7636333,828
0.7653,709
0.7669666,773
0.7686333,760
0.7703,760
0.7719667,721
0.7736334,848
0.7753,846
0.7769667,833
0.7786334,741
0.7803,705
0.7819667,723
0.7836334,684
0.7853,657
0.7869667,631
0.7886333,639
0.7903,647
0.7919667,768
0.7936333,817
0.7953,713
0.7969667,737
0.7986333,761
0.8003,658
0.8019667,757
0.8036333,809
0.8053,720
0.8069667,679
0.8086333,549
0.8103,729
0.8119667,642
0.8136333,726
0.8153,702
0.8169667,621
0.8186333,750
0.8203,783
0.8219666,755
0.8236333,799
0.8253,680
0.8269666,787
0.8286333,695
0.8303,688
0.8319666,665
0.8336333,796
0.8353,787
0.8369667,824
0.8386334,724
0.8403,589
0.8419667,844
0.8436334,732
0.8453,646
0.8469667,796
0.8486333,933
0.8503,858
0.8519667,776
0.8536333,610
0.8553,942
0.8569667,621
0.8586333,600
0.8603,742
0.8619667,820
0.8636333,788
0.8653,623
0.8669667,613
0.8686333,563
0.8703,598
0.8719667,591
0.8736333,611
0.8753,631
0.8769667,691
0.8786333,881
0.8803,1140
0.8819667,1526
0.8836333,1917
0.8853,2142
0.8869666,2270
0.8886333,2918
0.8903,2765
0.8919666,2748
0.8936333,2601
0.8953,2781
0.8969667,2981
0.8986334,2959
0.9003,3088
0.9019667,2837
0.9036334,3086
0.9053,3362
0.9069667,3406
0.9086334,3164
0.9103,3190
0.9119667,3223
0.9136333,3155
0.9153,3022
0.9169667,3322
0.9186333,3159
0.9203,3055
0.9219667,3279
0.9236333,2948
0.9253,2929
0.9269667,3305
0.9286333,3202
0.9303,2909
0.9319667,3181
0.9336333,2668
0.9353,3045
0.9369667,2852
0.9386333,2555
0.9403,2548
0.9419667,2624
0.9436333,2448
0.9453,2254
0.9469666,2435
0.9486333,2177
0.9503,2275
0.9519666,2198
0.9536333,2017
0.9553,2030
0.9569666,1916
0.9586333,1914
0.9603,1498
0.9619667,1361
0.9636334,1288
0.9653,1296
0.9669667,1304
0.9686334,1294
0.9703,1284
0.9719667,1167
0.9736333,1106
0.9753,1086
0.9769667,827
0.9786333,1184
0.9803,933
0.9819667,866
0.9836333,706
0.9853,649
0.9869667,743
0.9886333,703
0.9903,663
0.9919667,692
0.9936333,550
0.9953,560
0.9969667,555
0.9986333,441
1.0003,441
1.001967,488
1.003633,644
1.0053,658
1.006967,619
1.008633,731
1.0103,531
1.011967,634
1.013633,575
1.0153,599
1.016967,623
1.018633,455
1.0203,538
1.021967,459
1.023633,524
1.0253,590
1.026967,650
1.028633,662
1.0303,674
1.031967,653
1.033633,636
1.0353,689
1.036967,630
1.038633,620
1.0403,639
1.041967,658
1.043633,601
1.0453,493
1.046967,714
1.048633,546
1.0503,572
1.051967,562
1.053633,583
1.0553,604
1.056967,596
1.058633,589
1.0603,512
1.061967,603
1.063633,589
1.0653,542
1.066967,630
1.068633,546
1.0703,597
1.071967,643
1.073633,699
1.0753,676
1.076967,543
1.078633,563
1.0803,664
1.081967,503
1.083633,706
1.0853,740
1.086967,693
1.088633,726
1.0903,683
1.091967,526
1.093633,591
1.0953,656
1.096967,477
1.098633,782
1.1003,672
1.101967,695
1.103633,573
1.1053,622
1.106967,612
1.108633,651
1.1103,573
1.111967,494
1.113633,660
1.1153,596
1.116967,668
1.118633,677
1.1203,619
1.121967,627
1.123633,518
1.1253,426
1.126967,515
1.128633,604
1.1303,698
1.131967,591
1.133633,448
1.1353,493
1.136967,538
1.138633,690
1.1403,644
1.141967,618
1.143633,593
1.1453,534
1.146967,507
1.148633,689
1.1503,741
1.151967,598
1.153633,654
1.1553,779
1.156967,591
1.158633,467
1.1603,739
1.161967,523
1.163633,659
1.1653,625
1.166967,592
1.168633,633
1.1703,587
1.171967,643
1.173633,681
1.1753,624
1.176967,566
1.178633,604
1.1803,520
1.181967,565
1.183633,610
1.1853,597
1.186967,584
1.188633,633
1.1903,610
1.191967,588
1.193633,598
1.1953,609
1.196967,652
1.198633,712
