"SampleName","A2Rd2_01-17"
"Target Mass 1",
"Column Name","IA-3 (3um, 4.6X100)"
"Channel","QDa 1: SIR Ch2"
0.00195,526
0.003616667,656
0.005283333,867
0.00695,1010
0.008616666,944
0.01028333,941
0.01195,880
0.01361667,964
0.01528333,1048
0.01695,1172
0.01861667,1116
0.02028333,1033
0.02195,921
0.02361667,1104
0.02528333,1173
0.02695,1067
0.02861667,1215
0.03028333,1032
0.03195,978
0.03361667,1064
0.03528333,1089
0.03695,1182
0.03861667,1270
0.04028333,955
0.04195,917
0.04361667,971
0.04528333,911
0.04695,968
0.04861667,1026
0.05028334,1079
0.05195,1060
0.05361667,1116
0.05528333,1087
0.05695,961
0.05861667,901
0.06028333,1103
0.06195,983
0.06361666,939
0.06528334,1133
0.06695,1056
0.06861667,888
0.07028333,972
0.07195,992
0.07361667,1007
0.07528333,791
0.07695,1018
0.07861666,699
0.08028334,974
0.08195,855
0.08361667,971
0.08528333,940
0.08695,984
0.08861667,995
0.09028333,960
0.09195,896
0.09361666,1020
0.09528334,1000
0.09695,1163
0.09861667,1111
0.1002833,984
0.10195,874
0.1036167,872
0.1052833,849
0.10695,809
0.1086167,823
0.1102833,837
0.11195,846
0.1136167,854
0.1152833,850
0.11695,847
0.1186167,980
0.1202833,1130
0.12195,1153
0.1236167,968
0.1252833,827
0.12695,1134
0.1286167,894
0.1302833,1136
0.13195,852
0.1336167,1016
0.1352833,1092
0.13695,1056
0.1386167,1087
0.1402833,955
0.14195,1027
0.1436167,1130
0.1452833,1094
0.14695,965
0.1486167,872
0.1502833,874
0.15195,948
0.1536167,882
0.1552833,933
0.15695,933
0.1586167,932
0.1602833,930
0.16195,946
0.1636167,939
0.1652833,931
0.16695,993
0.1686167,990
0.1702833,941
0.17195,948
0.1736167,1094
0.1752833,1070
0.17695,887
0.1786167,860
0.1802833,1072
0.18195,945
0.1836167,841
0.1852833,864
0.18695,978
0.1886167,1067
0.1902833,695
0.19195,896
0.1936167,1122
0.1952833,968
0.19695,897
0.1986167,849
0.2002833,886
0.20195,985
0.2036167,983
0.2052833,963
0.20695,944
0.2086167,957
0.2102833,897
0.21195,907
0.2136167,879
0.2152833,1045
0.21695,1023
0.2186167,1068
0.2202833,1019
0.22195,1006
0.2236167,993
0.2252833,991
0.22695,983
0.2286167,975
0.2302833,1020
0.23195,1065
0.2336167,1096
0.2352833,1128
0.23695,1102
0.2386167,1076
0.2402833,1109
0.24195,1143
0.2436167,1231
0.2452833,1245
0.24695,1276
0.2486167,1255
0.2502833,1186
0.25195,1201
0.2536167,1077
0.2552833,1064
0.25695,1050
0.2586167,1154
0.2602833,1151
0.26195,1041
0.2636167,1183
0.2652833,1068
0.26695,1185
0.2686167,1031
0.2702833,1258
0.27195,1148
0.2736167,999
0.2752833,1254
0.27695,1015
0.2786167,1075
0.2803,1187
0.28195,1226
0.2836167,1014
0.2852833,1051
0.28695,1135
0.2886167,1219
0.2902833,1246
0.29195,1301
0.2936167,1214
0.2952833,1476
0.29695,1607
0.2986333,1539
0.3003,1574
0.30195,1610
0.3036333,1546
0.3052833,1474
0.30695,1360
0.3086167,1534
0.3102833,1449
0.31195,1514
0.3136167,1578
0.3153,1731
0.31695,1261
0.3186333,1308
0.3202833,1602
0.3219667,1578
0.3236167,1435
0.3252833,1569
0.3269667,1620
0.3286167,1637
0.3302833,1512
0.33195,1604
0.3336333,1586
0.3353,1954
0.3369667,1892
0.3386333,1382
0.3402833,1744
0.3419667,1534
0.3436167,1441
0.3453,1603
0.34695,1505
0.3486167,1407
0.3503,1386
0.35195,1394
0.3536333,1415
0.3553,1399
0.3569667,1384
0.3586333,1623
0.3602833,1788
0.3619667,3314
0.3636167,5181
0.3652833,5738
0.36695,5827
0.3686333,5076
0.3703,4139
0.3719667,3412
0.3736167,2973
0.3753,2223
0.3769667,1753
0.3786333,1255
0.3802833,1195
0.38195,883
0.3836167,923
0.3853,851
0.3869667,821
0.3886333,660
0.3903,701
0.3919667,751
0.3936167,691
0.3953,674
0.39695,703
0.3986333,733
0.4002833,862
0.4019667,992
0.4036333,1178
0.4053,1096
0.4069667,1184
0.4086333,1163
0.4102833,1148
0.4119667,889
0.4136167,805
0.4153,1096
0.41695,993
0.4186333,787
0.4203,925
0.4219667,819
0.4236333,947
0.4253,1010
0.4269667,1073
0.4286333,976
0.4303,1071
0.4319667,1156
0.4336167,1093
0.4353,1426
0.4369667,1417
0.4386333,1247
0.4403,1268
0.4419667,1351
0.4436333,1219
0.4453,1343
0.4469667,1499
0.4486333,1467
0.4503,1435
0.4519667,1363
0.4536333,1423
0.4553,1589
0.4569667,1615
0.4586333,1675
0.4603,1735
0.4619667,1702
0.4636333,1669
0.4653,1854
0.4669667,1825
0.4686333,1534
0.4703,1238
0.4719667,1814
0.4736333,1568
0.4753,1537
0.4769667,1575
0.4786333,1233
0.4803,1457
0.4819667,1167
0.4836333,1513
0.4853,1516
0.4869667,1390
0.4886333,1190
0.4903,1300
0.4919667,1227
0.4936333,1213
0.4953,1200
0.4969667,1222
0.4986333,1255
0.5003,1064
0.5019667,1219
0.5036333,1050
0.5053,1067
0.5069667,1119
0.5086333,1078
0.5103,1037
0.5119666,962
0.5136333,992
0.5153,973
0.5169666,955
0.5186333,908
0.5203,861
0.5219667,1189
0.5236334,1123
0.5253,960
0.5269667,1204
0.5286334,1395
0.5303,1276
0.5319667,1307
0.5336334,1008
0.5353,1489
0.5369667,1278
0.5386333,1403
0.5403,1454
0.5419667,1142
0.5436333,1243
0.5453,1291
0.5469667,1313
0.5486333,1252
0.5503,1211
0.5519667,954
0.5536333,1172
0.5553,952
0.5569667,935
0.5586333,1182
0.5603,1020
0.5619667,864
0.5636333,1103
0.5653,1079
0.5669667,1088
0.5686333,956
0.5703,1045
0.5719666,887
0.5736333,1046
0.5753,1036
0.5769666,943
0.5786333,991
0.5803,1039
0.5819666,1133
0.5836333,1204
0.5853,1224
0.5869667,1000
0.5886334,967
0.5903,989
0.5919667,1000
0.5936334,1011
0.5953,994
0.5969667,976
0.5986333,1018
0.6003,943
0.6019667,1003
0.6036333,1063
0.6053,1003
0.6069667,944
0.6086333,925
0.6103,906
0.6119667,1026
0.6136333,961
0.6153,897
0.6169667,933
0.6186333,968
0.6203,1154
0.6219667,1129
0.6236333,1094
0.6253,1060
0.6269667,1257
0.6286333,1282
0.6303,1030
0.6319667,1246
0.6336333,1294
0.6353,1133
0.6369666,1069
0.6386333,1006
0.6403,1018
0.6419666,1029
0.6436333,1082
0.6453,1136
0.6469667,1164
0.6486334,1081
0.6503,999
0.6519667,908
0.6536334,1090
0.6553,1170
0.6569667,1171
0.6586334,1029
0.6603,1111
0.6619667,1066
0.6636333,1020
0.6653,914
0.6669667,1150
0.6686333,1141
0.6703,935
0.6719667,1023
0.6736333,958
0.6753,952
0.6769667,1013
0.6786333,1086
0.6803,1086
0.6819667,1062
0.6836333,939
0.6853,1080
0.6869667,1072
0.6886333,1064
0.6903,1376
0.6919667,1362
0.6936333,1626
0.6953,1487
0.6969666,1446
0.6986333,2160
0.7003,2337
0.7019666,2500
0.7036333,2657
0.7053,2834
0.7069666,3218
0.7086333,3957
0.7103,3687
0.7119667,3860
0.7136334,4075
0.7153,3450
0.7169667,3811
0.7186334,3612
0.7203,3590
0.7219667,2942
0.7236333,2784
0.7253,2806
0.7269667,2384
0.7286333,1968
0.7303,2256
0.7319667,1842
0.7336333,1637
0.7353,1793
0.7369667,1665
0.7386333,1351
0.7403,1395
0.7419667,1211
0.7436333,1451
0.7453,1429
0.7469667,1428
0.7486333,1236
0.7503,1048
0.7519667,1143
0.7536333,1049
0.7553,1037
0.7569667,1182
0.7586333,978
0.7603,1163
0.7619666,892
0.7636333,1109
0.7653,1128
0.7669666,1110
0.7686333,938
0.7703,1224
0.7719667,640
0.7736334,898
0.7753,818
0.7769667,1029
0.7786334,952
0.7803,1073
0.7819667,1161
0.7836334,1152
0.7853,1073
0.7869667,1304
0.7886333,1443
0.7903,1311
0.7919667,1392
0.7936333,1414
0.7953,1784
0.7969667,1805
0.7986333,2232
0.8003,2335
0.8019667,2314
0.8036333,3127
0.8053,3519
0.8069667,4664
0.8086333,4618
0.8103,5242
0.8119667,6192
0.8136333,6486
0.8153,5967
0.8169667,6336
0.8186333,6409
0.8203,6413
0.8219666,6260
0.8236333,5863
0.8253,5995
0.8269666,4939
0.8286333,4840
0.8303,3615
0.8319666,3418
0.8336333,3025
0.8353,2833
0.8369667,2403
0.8386334,2138
0.8403,2053
0.8419667,1815
0.8436334,1971
0.8453,1658
0.8469667,1781
0.8486333,1316
0.8503,1304
0.8519667,1297
0.8536333,1335
0.8553,1249
0.8569667,1311
0.8586333,1373
0.8603,1412
0.8619667,1413
0.8636333,1206
0.8653,1863
0.8669667,1858
0.8686333,1947
0.8703,2155
0.8719667,2242
0.8736333,2330
0.8753,2038
0.8769667,2126
0.8786333,2409
0.8803,2357
0.8819667,2127
0.8836333,2234
0.8853,2008
0.8869666,2155
0.8886333,2009
0.8903,1915
0.8919666,2001
0.8936333,1901
0.8953,1929
0.8969667,1957
0.8986334,2137
0.9003,2102
0.9019667,1805
0.9036334,2311
0.9053,2188
0.9069667,2080
0.9086334,1989
0.9103,1777
0.9119667,1762
0.9136333,1980
0.9153,1844
0.9169667,1708
0.9186333,2106
0.9203,1976
0.9219667,2280
0.9236333,1814
0.9253,1909
0.9269667,1676
0.9286333,1745
0.9303,1814
0.9319667,1931
0.9336333,1995
0.9353,1807
0.9369667,1768
0.9386333,1593
0.9403,1844
0.9419667,1792
0.9436333,1916
0.9453,1783
0.9469666,1621
0.9486333,1437
0.9503,1877
0.9519666,1627
0.9536333,1500
0.9553,1461
0.9569666,1218
0.9586333,1347
0.9603,1225
0.9619667,1340
0.9636334,1348
0.9653,1355
0.9669667,1364
0.9686334,1460
0.9703,1782
0.9719667,1680
0.9736333,1480
0.9753,2008
0.9769667,1842
0.9786333,2636
0.9803,2605
0.9819667,3206
0.9836333,3439
0.9853,4234
0.9869667,4642
0.9886333,5291
0.9903,6303
0.9919667,7181
0.9936333,7187
0.9953,8492
0.9969667,8804
0.9986333,9892
1.0003,10164
1.001967,10912
1.003633,11036
1.0053,10400
1.006967,10600
1.008633,10796
1.0103,10004
1.011967,9544
1.013633,9656
1.0153,8880
1.016967,8022
1.018633,7338
1.0203,6489
1.021967,5975
1.023633,5109
1.0253,4812
1.026967,4254
1.028633,3968
1.0303,3402
1.031967,3415
1.033633,3045
1.0353,2399
1.036967,2785
1.038633,2295
1.0403,2148
1.041967,2093
1.043633,2341
1.0453,2226
1.046967,2171
1.048633,2197
1.0503,2274
1.051967,2111
1.053633,2112
1.0553,1966
1.056967,1776
1.058633,1860
1.0603,2012
1.061967,1807
1.063633,1862
1.0653,1660
1.066967,1592
1.068633,1794
1.0703,1711
1.071967,1698
1.073633,1604
1.0753,1641
1.076967,1754
1.078633,1765
1.0803,1809
1.081967,1790
1.083633,1707
1.0853,2074
1.086967,2220
1.088633,2296
1.0903,2277
1.091967,2326
1.093633,2437
1.0953,2514
1.096967,2442
1.098633,2758
1.1003,2828
1.101967,2814
1.103633,2666
1.1053,2518
1.106967,2876
1.108633,2727
1.1103,2579
1.111967,2815
1.113633,2477
1.1153,2148
1.116967,2126
1.118633,2341
1.1203,2128
1.121967,1830
1.123633,1787
1.1253,1753
1.126967,1677
1.128633,1570
1.1303,1735
1.131967,1316
1.133633,1622
1.1353,1681
1.136967,1125
1.138633,1170
1.1403,1360
1.141967,1259
1.143633,1074
1.1453,1252
1.146967,852
1.148633,1055
1.1503,981
1.151967,959
1.153633,1234
1.1553,1268
1.156967,1070
1.158633,1168
1.1603,1036
1.161967,906
1.163633,1185
1.1653,1079
1.166967,966
1.168633,1201
1.1703,1181
1.171967,961
1.173633,1159
1.1753,1032
1.176967,999
1.178633,846
1.1803,939
1.181967,983
1.183633,1028
1.1853,1006
1.186967,860
1.188633,915
1.1903,971
1.191967,1004
1.193633,1080
1.1953,1049
1.196967,978
1.198633,967
