"SampleName","A2Rd2_01-90"
"Target Mass 1",
"Column Name","IA-3 (3um, 4.6X100)"
"Channel","QDa 1: SIR Ch1"
0.00195,332
0.003616667,416
0.005283333,566
0.00695,503
0.008616666,479
0.01028333,558
0.01195,609
0.01361667,565
0.01528333,515
0.01695,571
0.01861667,569
0.02028333,482
0.02195,503
0.02361667,524
0.02528333,485
0.02695,517
0.02861667,490
0.03028333,464
0.03195,427
0.03361667,549
0.03528333,538
0.03695,521
0.03861667,583
0.04028333,574
0.04195,674
0.04361667,703
0.04528333,455
0.04695,552
0.04861667,468
0.05028334,497
0.05195,521
0.05361667,545
0.05528333,368
0.05695,500
0.05861667,542
0.06028333,493
0.06195,522
0.06361666,548
0.06528334,574
0.06695,474
0.06861667,618
0.07028333,488
0.07195,501
0.07361667,430
0.07528333,557
0.07695,569
0.07861666,478
0.08028334,474
0.08195,345
0.08361667,548
0.08528333,618
0.08695,434
0.08861667,663
0.09028333,446
0.09195,630
0.09361666,532
0.09528334,471
0.09695,471
0.09861667,532
0.1002833,532
0.10195,485
0.1036167,395
0.1052833,519
0.10695,552
0.1086167,550
0.1102833,541
0.11195,532
0.1136167,536
0.1152833,540
0.11695,570
0.1186167,572
0.1202833,574
0.12195,526
0.1236167,393
0.1252833,462
0.12695,552
0.1286167,408
0.1302833,426
0.13195,443
0.1336167,484
0.1352833,524
0.13695,504
0.1386167,513
0.1403,522
0.14195,341
0.1436167,560
0.1452833,535
0.14695,386
0.1486167,573
0.1502833,616
0.15195,389
0.1536167,672
0.1552833,421
0.15695,413
0.1586167,443
0.1602833,452
0.16195,431
0.1636167,409
0.1652833,418
0.16695,428
0.1686167,459
0.1702833,439
0.17195,420
0.1736167,438
0.1753,404
0.17695,370
0.1786167,404
0.1802833,439
0.18195,437
0.1836167,436
0.1852833,454
0.18695,467
0.1886333,480
0.1902833,482
0.19195,355
0.1936333,408
0.1952833,568
0.19695,514
0.1986167,551
0.2002833,520
0.20195,439
0.2036167,543
0.2052833,552
0.20695,529
0.2086167,454
0.2103,555
0.21195,497
0.2136167,466
0.2152833,435
0.21695,539
0.2186167,516
0.2202833,519
0.22195,441
0.2236333,448
0.2252833,454
0.22695,461
0.2286333,419
0.2302833,456
0.23195,471
0.2336167,486
0.2352833,486
0.2369667,491
0.2386333,497
0.2402833,359
0.24195,581
0.2436167,547
0.2453,426
0.24695,490
0.2486167,421
0.2502833,490
0.2519667,504
0.2536333,518
0.2552833,491
0.25695,492
0.2586167,517
0.2602833,394
0.26195,552
0.2636333,431
0.2652833,577
0.2669667,570
0.2686333,463
0.2703,474
0.27195,405
0.2736167,494
0.2753,502
0.27695,509
0.2786167,501
0.2803,530
0.28195,532
0.2836333,534
0.2853,559
0.2869667,611
0.2886333,462
0.2902833,521
0.29195,582
0.2936167,469
0.2952833,459
0.29695,463
0.2986333,505
0.3003,548
0.3019667,525
0.3036333,503
0.3053,561
0.3069667,563
0.3086333,460
0.3103,599
0.3119667,573
0.3136333,587
0.3153,541
0.3169667,607
0.3186333,614
0.3203,637
0.3219667,701
0.3236333,487
0.3253,394
0.3269667,533
0.3286333,487
0.3303,509
0.3319667,526
0.3336333,537
0.3353,547
0.3369667,496
0.3386333,469
0.3403,442
0.3419667,522
0.3436333,488
0.3453,453
0.3469667,481
0.3486333,471
0.3503,460
0.3519667,430
0.3536333,433
0.3553,418
0.3569667,404
0.3586333,497
0.3603,614
0.3619667,736
0.3636333,973
0.3653,1448
0.3669667,1984
0.3686333,3603
0.3703,4617
0.3719667,5576
0.3736333,6067
0.3753,6181
0.3769667,7146
0.3786333,7283
0.3803,6522
0.3819667,5930
0.3836333,5448
0.3853,4380
0.3869667,4058
0.3886333,3271
0.3903,3035
0.3919667,2270
0.3936333,1952
0.3953,1557
0.3969667,1286
0.3986333,1040
0.4003,1039
0.4019667,841
0.4036333,1003
0.4053,819
0.4069667,1025
0.4086333,814
0.4103,966
0.4119667,1275
0.4136333,1228
0.4153,1244
0.4169667,1342
0.4186333,1114
0.4203,1338
0.4219667,1256
0.4236333,1133
0.4253,1257
0.4269667,1340
0.4286333,1271
0.4303,1312
0.4319667,1131
0.4336333,1793
0.4353,2346
0.4369667,4160
0.4386333,6053
0.4403,9040
0.4419667,14972
0.4436333,21812
0.4453,31024
0.4469667,45792
0.4486333,61536
0.4503,78064
0.4519667,98816
0.4536333,116320
0.4553,139648
0.4569667,156224
0.4586333,173120
0.4603,191232
0.4619667,206912
0.4636333,223872
0.4653,241600
0.4669667,261632
0.4686333,281344
0.4703,300928
0.4719667,316224
0.4736333,334528
0.4753,346048
0.4769667,348672
0.4786333,345664
0.4803,328576
0.4819667,306048
0.4836333,277312
0.4853,248832
0.4869667,219840
0.4886333,192768
0.4903,158720
0.4919667,128928
0.4936333,105728
0.4953,86736
0.4969667,67024
0.4986333,53440
0.5003,43888
0.5019667,34464
0.5036333,26144
0.5053,21380
0.5069667,17460
0.5086333,13708
0.5103,12036
0.5119666,10444
0.5136333,9952
0.5153,8200
0.5169666,7111
0.5186333,6665
0.5203,6244
0.5219667,5506
0.5236334,5329
0.5253,5330
0.5269667,4471
0.5286334,4398
0.5303,4234
0.5319667,4165
0.5336334,3526
0.5353,4063
0.5369667,3314
0.5386333,3391
0.5403,3050
0.5419667,3314
0.5436333,2982
0.5453,3077
0.5469667,3143
0.5486333,2521
0.5503,2583
0.5519667,2759
0.5536333,2700
0.5553,2640
0.5569667,2544
0.5586333,2198
0.5603,2122
0.5619667,1938
0.5636333,2204
0.5653,1831
0.5669667,1780
0.5686333,2069
0.5703,1700
0.5719666,1990
0.5736333,1830
0.5753,1686
0.5769666,1473
0.5786333,1774
0.5803,1553
0.5819666,1625
0.5836333,1491
0.5853,1624
0.5869667,1473
0.5886334,1626
0.5903,1605
0.5919667,1738
0.5936334,1444
0.5953,1668
0.5969667,1465
0.5986333,1404
0.6003,1464
0.6019667,1433
0.6036333,1476
0.6053,1452
0.6069667,1423
0.6086333,1395
0.6103,1317
0.6119667,1401
0.6136333,1202
0.6153,1403
0.6169667,1311
0.6186333,1210
0.6203,1276
0.6219667,1417
0.6236333,1378
0.6253,1176
0.6269667,1104
0.6286333,1253
0.6303,1086
0.6319667,1003
0.6336333,953
0.6353,977
0.6369666,1001
0.6386333,972
0.6403,973
0.6419666,974
0.6436333,870
0.6453,938
0.6469667,781
0.6486334,994
0.6503,1091
0.6519667,982
0.6536334,977
0.6553,895
0.6569667,1047
0.6586334,886
0.6603,904
0.6619667,793
0.6636333,977
0.6653,1038
0.6669667,818
0.6686333,859
0.6703,1067
0.6719667,1113
0.6736333,894
0.6753,955
0.6769667,1045
0.6786333,800
0.6803,827
0.6819667,1015
0.6836333,1060
0.6853,927
0.6869667,971
0.6886333,830
0.6903,968
0.6919667,627
0.6936333,772
0.6953,877
0.6969666,672
0.6986333,821
0.7003,820
0.7019666,763
0.7036333,769
0.7053,776
0.7069666,825
0.7086333,882
0.7103,856
0.7119667,681
0.7136334,897
0.7153,897
0.7169667,686
0.7186334,721
0.7203,764
0.7219667,811
0.7236333,848
0.7253,815
0.7269667,828
0.7286333,885
0.7303,676
0.7319667,629
0.7336333,791
0.7353,632
0.7369667,792
0.7386333,906
0.7403,933
0.7419667,732
0.7436333,839
0.7453,782
0.7469667,720
0.7486333,751
0.7503,689
0.7519667,561
0.7536333,840
0.7553,754
0.7569667,878
0.7586333,692
0.7603,834
0.7619666,805
0.7636333,670
0.7653,813
0.7669666,806
0.7686333,863
0.7703,942
0.7719667,672
0.7736334,947
0.7753,752
0.7769667,777
0.7786334,818
0.7803,793
0.7819667,768
0.7836334,625
0.7853,707
0.7869667,613
0.7886333,620
0.7903,698
0.7919667,815
0.7936333,839
0.7953,863
0.7969667,921
0.7986333,980
0.8003,730
0.8019667,898
0.8036333,914
0.8053,813
0.8069667,830
0.8086333,841
0.8103,822
0.8119667,802
0.8136333,801
0.8153,799
0.8169667,677
0.8186333,779
0.8203,767
0.8219666,755
0.8236333,752
0.8253,857
0.8269666,885
0.8286333,886
0.8303,842
0.8319666,874
0.8336333,906
0.8353,884
0.8369667,863
0.8386334,887
0.8403,761
0.8419667,810
0.8436334,833
0.8453,768
0.8469667,873
0.8486333,891
0.8503,995
0.8519667,955
0.8536333,1032
0.8553,831
0.8569667,841
0.8586333,901
0.8603,757
0.8619667,847
0.8636333,710
0.8653,679
0.8669667,699
0.8686333,671
0.8703,642
0.8719667,618
0.8736333,593
0.8753,593
0.8769667,1119
0.8786333,1202
0.8803,1344
0.8819667,1923
0.8836333,2258
0.8853,2658
0.8869666,2810
0.8886333,3520
0.8903,3183
0.8919666,3153
0.8936333,3487
0.8953,3219
0.8969667,3454
0.8986334,3374
0.9003,3295
0.9019667,3236
0.9036334,3176
0.9053,3302
0.9069667,3563
0.9086334,3565
0.9103,3533
0.9119667,3265
0.9136333,2996
0.9153,3673
0.9169667,3617
0.9186333,3639
0.9203,3694
0.9219667,3589
0.9236333,3140
0.9253,3400
0.9269667,3587
0.9286333,3532
0.9303,3318
0.9319667,3086
0.9336333,3145
0.9353,3162
0.9369667,3084
0.9386333,2734
0.9403,2961
0.9419667,2996
0.9436333,2872
0.9453,2778
0.9469666,2685
0.9486333,2478
0.9503,2370
0.9519666,2282
0.9536333,2176
0.9553,1999
0.9569666,2199
0.9586333,2007
0.9603,1700
0.9619667,1771
0.9636334,1419
0.9653,1421
0.9669667,1393
0.9686334,1471
0.9703,1412
0.9719667,1354
0.9736333,1471
0.9753,1192
0.9769667,1231
0.9786333,880
0.9803,1044
0.9819667,1162
0.9836333,846
0.9853,711
0.9869667,680
0.9886333,777
0.9903,650
0.9919667,594
0.9936333,694
0.9953,731
0.9969667,503
0.9986333,615
1.0003,529
1.001967,502
1.003633,474
1.0053,649
1.006967,736
1.008633,669
1.0103,563
1.011967,583
1.013633,603
1.0153,691
1.016967,689
1.018633,720
1.0203,695
1.021967,533
1.023633,568
1.0253,606
1.026967,803
1.028633,779
1.0303,879
1.031967,715
1.033633,638
1.0353,740
1.036967,608
1.038633,671
1.0403,590
1.041967,525
1.043633,542
1.0453,509
1.046967,580
1.048633,540
1.0503,499
1.051967,558
1.053633,616
1.0553,603
1.056967,602
1.058633,601
1.0603,684
1.061967,621
1.063633,558
1.0653,574
1.066967,589
1.068633,670
1.0703,661
1.071967,652
1.073633,677
1.0753,703
1.076967,688
1.078633,673
1.0803,682
1.081967,703
1.083633,724
1.0853,647
1.086967,639
1.088633,631
1.0903,735
1.091967,687
1.093633,638
1.0953,664
1.096967,642
1.098633,619
1.1003,648
1.101967,621
1.103633,735
1.1053,742
1.106967,838
1.108633,798
1.1103,858
1.111967,697
1.113633,640
1.1153,782
1.116967,713
1.118633,751
1.1203,789
1.121967,567
1.123633,454
1.1253,778
1.126967,851
1.128633,798
1.1303,662
1.131967,801
1.133633,824
1.1353,849
1.136967,738
1.138633,657
1.1403,821
1.141967,847
1.143633,802
1.1453,822
1.146967,661
1.148633,926
1.1503,832
1.151967,647
1.153633,715
1.1553,890
1.156967,729
1.158633,908
1.1603,867
1.161967,656
1.163633,749
1.1653,850
1.166967,865
1.168633,828
1.1703,857
1.171967,886
1.173633,737
1.1753,918
1.176967,956
1.178633,850
1.1803,755
1.181967,782
1.183633,910
1.1853,902
1.186967,935
1.188633,774
1.1903,853
1.191967,714
1.193633,907
1.1953,791
1.196967,814
1.198633,830
