"SampleName","A2Rd2_01-26"
"Target Mass 1",
"Column Name","IA-3 (3um, 4.6X100)"
"Channel","QDa 1: SIR Ch2"
0.00195,565
0.003616667,633
0.005283333,848
0.00695,758
0.008616666,821
0.01028333,853
0.01195,800
0.01361667,866
0.01528333,932
0.01695,974
0.01861667,938
0.02028333,902
0.02195,772
0.02361667,815
0.02528333,807
0.02695,832
0.02861667,857
0.03028333,729
0.03195,974
0.03361667,999
0.03528333,956
0.03695,983
0.03861667,1078
0.04028333,868
0.04195,878
0.04361667,888
0.04528333,908
0.04695,991
0.04861667,986
0.05028334,1062
0.05195,794
0.05361667,871
0.05528333,884
0.05695,828
0.05861667,1103
0.06028333,1078
0.06195,973
0.06361666,1019
0.06528334,906
0.06695,883
0.06861667,917
0.07028333,909
0.07195,828
0.07361667,869
0.07528333,858
0.07695,795
0.07861666,732
0.08028334,949
0.08195,1075
0.08361667,974
0.08528333,905
0.08695,815
0.08861667,995
0.09028333,773
0.09195,846
0.09361666,822
0.09528334,799
0.09695,1033
0.09861667,1054
0.1002833,953
0.10195,949
0.1036167,982
0.1052833,885
0.10695,802
0.1086167,957
0.1102833,969
0.11195,897
0.1136167,938
0.1152833,951
0.11695,800
0.1186167,819
0.1202833,860
0.12195,915
0.1236167,832
0.1252833,750
0.12695,822
0.1286167,873
0.1302833,923
0.13195,845
0.1336167,751
0.1352833,812
0.13695,874
0.1386167,821
0.1402833,834
0.14195,846
0.1436167,849
0.1452833,823
0.14695,852
0.1486167,804
0.1502833,960
0.15195,964
0.1536167,984
0.1552833,1038
0.15695,771
0.1586167,964
0.1602833,870
0.16195,669
0.1636167,1031
0.1652833,875
0.16695,790
0.1686167,949
0.1702833,780
0.17195,921
0.1736167,912
0.1752833,899
0.17695,885
0.1786167,764
0.1802833,851
0.18195,906
0.1836167,896
0.1852833,914
0.18695,932
0.1886167,931
0.1902833,931
0.19195,824
0.1936167,905
0.1952833,875
0.19695,845
0.1986167,976
0.2002833,1001
0.20195,846
0.2036167,777
0.2052833,833
0.20695,888
0.2086167,971
0.2102833,936
0.21195,901
0.2136167,941
0.2152833,946
0.21695,950
0.2186167,976
0.2202833,977
0.22195,978
0.2236167,1002
0.2252833,1047
0.22695,1046
0.2286167,1044
0.2302833,973
0.23195,1117
0.2336167,1085
0.2352833,1013
0.23695,1164
0.2386167,1160
0.2402833,1231
0.24195,1290
0.2436167,1037
0.2452833,1100
0.24695,1145
0.2486167,1002
0.2502833,1112
0.25195,1108
0.2536167,1104
0.2552833,1073
0.25695,1236
0.2586167,1153
0.2602833,1070
0.26195,1037
0.2636167,1076
0.2652833,1054
0.26695,1031
0.2686167,1103
0.2702833,928
0.27195,1214
0.2736167,1198
0.2752833,1191
0.27695,1122
0.2786167,890
0.2802833,1032
0.28195,1145
0.2836167,1065
0.2852833,1004
0.28695,1120
0.2886167,1015
0.2902833,1030
0.29195,1045
0.2936333,1223
0.2952833,1313
0.29695,1152
0.2986333,1251
0.3002833,1350
0.30195,1257
0.3036167,1102
0.3052833,1057
0.30695,1140
0.3086167,1321
0.3102833,1277
0.31195,1234
0.3136167,1190
0.3153,1023
0.31695,1267
0.3186167,1145
0.3202833,1351
0.32195,1189
0.3236167,1175
0.3252833,1161
0.32695,1211
0.3286167,1262
0.3302833,1543
0.33195,1495
0.3336333,1562
0.3353,1338
0.33695,1467
0.3386167,1354
0.3402833,1555
0.3419667,1507
0.3436333,1462
0.3452833,1324
0.34695,1529
0.3486167,1402
0.3503,1525
0.3519667,1432
0.3536167,1536
0.3553,1336
0.35695,1599
0.3586167,1831
0.3602833,1703
0.3619667,1873
0.3636333,3726
0.3653,5245
0.3669667,6196
0.3686333,5347
0.3703,5563
0.3719667,4945
0.3736167,4243
0.3753,3036
0.3769667,2687
0.3786333,1686
0.3802833,1481
0.38195,1099
0.3836167,1048
0.3853,842
0.38695,688
0.3886333,756
0.3902833,614
0.3919667,603
0.3936333,757
0.3953,613
0.39695,800
0.3986333,853
0.4002833,1101
0.4019667,991
0.4036333,1086
0.4053,1301
0.4069667,1219
0.4086333,1313
0.4103,1152
0.4119667,1294
0.4136167,862
0.4153,1005
0.41695,1001
0.4186333,1044
0.4203,995
0.4219667,1065
0.4236333,1075
0.4253,1085
0.4269667,1059
0.4286333,1034
0.4303,1178
0.4319667,1208
0.4336333,1257
0.4353,1241
0.4369667,1226
0.4386333,1354
0.4403,1366
0.4419667,1351
0.4436333,1547
0.4453,1589
0.4469667,1675
0.4486333,1812
0.4503,2093
0.4519667,2030
0.4536333,1993
0.4553,2124
0.4569667,2118
0.4586333,1999
0.4603,2175
0.4619667,2352
0.4636333,2548
0.4653,2596
0.4669667,2483
0.4686333,2610
0.4703,2629
0.4719667,2164
0.4736333,2152
0.4753,1980
0.4769667,1715
0.4786333,1967
0.4803,1709
0.4819667,1455
0.4836333,1654
0.4853,1648
0.4869667,1505
0.4886333,1395
0.4903,1751
0.4919667,1733
0.4936333,1472
0.4953,1374
0.4969667,1590
0.4986333,1450
0.5003,1471
0.5019667,1245
0.5036333,1269
0.5053,1272
0.5069667,1244
0.5086333,1367
0.5103,1436
0.5119666,1066
0.5136333,1139
0.5153,1181
0.5169666,1166
0.5186333,1216
0.5203,1196
0.5219667,1175
0.5236334,1333
0.5253,1038
0.5269667,1282
0.5286334,1060
0.5303,1307
0.5319667,1258
0.5336334,1251
0.5353,1309
0.5369667,1169
0.5386333,1264
0.5403,1331
0.5419667,1460
0.5436333,1406
0.5453,1140
0.5469667,1190
0.5486333,1131
0.5503,1200
0.5519667,1093
0.5536333,1161
0.5553,1229
0.5569667,1121
0.5586333,1012
0.5603,1153
0.5619667,1003
0.5636333,986
0.5653,1019
0.5669667,1051
0.5686333,1069
0.5703,1087
0.5719666,1113
0.5736333,1113
0.5753,1114
0.5769666,1034
0.5786333,954
0.5803,1328
0.5819666,1260
0.5836333,1391
0.5853,1092
0.5869667,1250
0.5886334,1195
0.5903,1170
0.5919667,1191
0.5936334,1292
0.5953,1001
0.5969667,1196
0.5986333,1040
0.6003,1110
0.6019667,1181
0.6036333,1246
0.6053,1218
0.6069667,974
0.6086333,857
0.6103,1338
0.6119667,1120
0.6136333,1217
0.6153,945
0.6169667,931
0.6186333,1024
0.6203,998
0.6219667,972
0.6236333,1064
0.6253,1156
0.6269667,1113
0.6286333,1043
0.6303,1117
0.6319667,1192
0.6336333,1226
0.6353,1067
0.6369666,1076
0.6386333,1109
0.6403,1078
0.6419666,1046
0.6436333,1039
0.6453,1139
0.6469667,1124
0.6486334,974
0.6503,691
0.6519667,946
0.6536334,940
0.6553,946
0.6569667,939
0.6586334,997
0.6603,1053
0.6619667,1127
0.6636333,1110
0.6653,873
0.6669667,1150
0.6686333,1175
0.6703,956
0.6719667,1199
0.6736333,633
0.6753,1047
0.6769667,932
0.6786333,1089
0.6803,842
0.6819667,1004
0.6836333,978
0.6853,898
0.6869667,925
0.6886333,1012
0.6903,1014
0.6919667,1015
0.6936333,915
0.6953,952
0.6969666,989
0.6986333,974
0.7003,901
0.7019666,827
0.7036333,1001
0.7053,1018
0.7069666,917
0.7086333,962
0.7103,1065
0.7119667,1111
0.7136334,1068
0.7153,915
0.7169667,1179
0.7186334,1175
0.7203,1137
0.7219667,1068
0.7236333,1093
0.7253,953
0.7269667,970
0.7286333,987
0.7303,849
0.7319667,900
0.7336333,951
0.7353,989
0.7369667,751
0.7386333,947
0.7403,1063
0.7419667,1112
0.7436333,875
0.7453,939
0.7469667,1017
0.7486333,1023
0.7503,1056
0.7519667,746
0.7536333,1052
0.7553,892
0.7569667,1049
0.7586333,1075
0.7603,1102
0.7619666,914
0.7636333,992
0.7653,1128
0.7669666,841
0.7686333,1274
0.7703,1156
0.7719667,841
0.7736334,947
0.7753,882
0.7769667,850
0.7786334,911
0.7803,971
0.7819667,941
0.7836334,927
0.7853,1064
0.7869667,1041
0.7886333,918
0.7903,977
0.7919667,833
0.7936333,868
0.7953,903
0.7969667,895
0.7986333,862
0.8003,1106
0.8019667,1085
0.8036333,1092
0.8053,870
0.8069667,854
0.8086333,1007
0.8103,963
0.8119667,1039
0.8136333,920
0.8153,984
0.8169667,1077
0.8186333,849
0.8203,1114
0.8219666,797
0.8236333,834
0.8253,1099
0.8269666,906
0.8286333,999
0.8303,955
0.8319666,900
0.8336333,891
0.8353,883
0.8369667,867
0.8386334,897
0.8403,862
0.8419667,796
0.8436334,845
0.8453,893
0.8469667,907
0.8486333,921
0.8503,837
0.8519667,936
0.8536333,971
0.8553,828
0.8569667,857
0.8586333,870
0.8603,885
0.8619667,1080
0.8636333,1029
0.8653,1076
0.8669667,1267
0.8686333,1399
0.8703,1595
0.8719667,1364
0.8736333,1539
0.8753,1701
0.8769667,1395
0.8786333,1713
0.8803,1547
0.8819667,1619
0.8836333,1275
0.8853,1611
0.8869666,1184
0.8886333,1130
0.8903,1432
0.8919666,1561
0.8936333,1516
0.8953,1487
0.8969667,1235
0.8986334,1541
0.9003,1689
0.9019667,1391
0.9036334,1610
0.9053,1620
0.9069667,1524
0.9086334,1385
0.9103,1414
0.9119667,1443
0.9136333,1538
0.9153,1513
0.9169667,1488
0.9186333,1411
0.9203,1509
0.9219667,1549
0.9236333,1615
0.9253,1581
0.9269667,1516
0.9286333,1547
0.9303,1497
0.9319667,1447
0.9336333,1543
0.9353,1463
0.9369667,1451
0.9386333,1433
0.9403,1394
0.9419667,1400
0.9436333,1366
0.9453,1376
0.9469666,1209
0.9486333,1351
0.9503,1367
0.9519666,1217
0.9536333,1134
0.9553,1025
0.9569666,1150
0.9586333,1102
0.9603,1114
0.9619667,1126
0.9636334,1108
0.9653,1090
0.9669667,1041
0.9686334,1090
0.9703,1054
0.9719667,1049
0.9736333,1014
0.9753,1047
0.9769667,976
0.9786333,949
0.9803,986
0.9819667,907
0.9836333,988
0.9853,944
0.9869667,1012
0.9886333,906
0.9903,949
0.9919667,804
0.9936333,912
0.9953,1019
0.9969667,1034
0.9986333,936
1.0003,1097
1.001967,1127
1.003633,880
1.0053,829
1.006967,967
1.008633,878
1.0103,971
1.011967,1063
1.013633,996
1.0153,1008
1.016967,1021
1.018633,1034
1.0203,1071
1.021967,1100
1.023633,914
1.0253,1027
1.026967,786
1.028633,959
1.0303,878
1.031967,833
1.033633,908
1.0353,956
1.036967,966
1.038633,927
1.0403,889
1.041967,857
1.043633,900
1.0453,910
1.046967,1040
1.048633,969
1.0503,899
1.051967,893
1.053633,897
1.0553,794
1.056967,987
1.058633,1034
1.0603,1066
1.061967,935
1.063633,1013
1.0653,813
1.066967,1005
1.068633,898
1.0703,864
1.071967,734
1.073633,916
1.0753,915
1.076967,1038
1.078633,976
1.0803,956
1.081967,974
1.083633,888
1.0853,1034
1.086967,978
1.088633,1035
1.0903,1085
1.091967,837
1.093633,983
1.0953,796
1.096967,988
1.098633,805
1.1003,845
1.101967,1030
1.103633,694
1.1053,1065
1.106967,818
1.108633,955
1.1103,791
1.111967,742
1.113633,693
1.1153,792
1.116967,891
1.118633,897
1.1203,896
1.121967,803
1.123633,711
1.1253,890
1.126967,778
1.128633,883
1.1303,784
1.131967,807
1.133633,830
1.1353,798
1.136967,767
1.138633,1021
1.1403,1062
1.141967,1021
1.143633,848
1.1453,883
1.146967,894
1.148633,840
1.1503,778
1.151967,917
1.153633,857
1.1553,1018
1.156967,1002
1.158633,768
1.1603,984
1.161967,1023
1.163633,807
1.1653,896
1.166967,779
1.168633,893
1.1703,858
1.171967,824
1.173633,1001
1.1753,1047
1.176967,856
1.178633,1086
1.1803,945
1.181967,1032
1.183633,946
1.1853,878
1.186967,1030
1.188633,713
1.1903,768
1.191967,815
1.193633,867
1.1953,920
1.196967,982
1.198633,941
