"SampleName","A2Rd2_01-31"
"Target Mass 1",
"Column Name","IA-3 (3um, 4.6X100)"
"Channel","QDa 1: SIR Ch2"
0.00195,724
0.003616667,620
0.005283333,677
0.00695,773
0.008616666,864
0.01028333,913
0.01195,911
0.01361667,920
0.01528333,929
0.01695,853
0.01861667,903
0.02028333,763
0.02195,869
0.02361667,926
0.02528333,901
0.02695,876
0.02861667,1041
0.03028333,1018
0.03195,767
0.03361667,902
0.03528333,876
0.03695,899
0.03861667,852
0.04028333,805
0.04195,853
0.04361667,902
0.04528333,959
0.04695,955
0.04861667,895
0.05028334,821
0.05195,706
0.05361667,944
0.05528333,1103
0.05695,1162
0.05861667,1004
0.06028333,789
0.06195,814
0.06361666,831
0.06528334,847
0.06695,834
0.06861667,879
0.07028333,924
0.07195,775
0.07361667,889
0.07528333,945
0.07695,1002
0.07861666,840
0.08028334,944
0.08195,810
0.08361667,879
0.08528333,818
0.08695,988
0.08861667,993
0.09028333,800
0.09195,751
0.09361666,815
0.09528334,928
0.09695,936
0.09861667,944
0.1002833,789
0.10195,857
0.1036167,802
0.1052833,805
0.10695,916
0.1086167,900
0.1102833,893
0.11195,803
0.1136167,851
0.1152833,845
0.11695,804
0.1186167,807
0.1202833,802
0.12195,798
0.1236167,802
0.1252833,806
0.12695,815
0.1286167,779
0.1302833,899
0.13195,920
0.1336167,930
0.1352833,964
0.13695,764
0.1386167,833
0.1402833,881
0.14195,727
0.1436167,761
0.1452833,792
0.14695,824
0.1486167,943
0.1502833,1044
0.15195,1014
0.1536167,965
0.1552833,902
0.15695,897
0.1586167,1002
0.1602833,803
0.16195,775
0.1636167,892
0.1652833,786
0.16695,832
0.1686167,877
0.1702833,710
0.17195,778
0.1736167,846
0.1752833,1012
0.17695,924
0.1786167,743
0.1802833,755
0.18195,814
0.1836167,861
0.1852833,908
0.18695,858
0.1886167,986
0.1902833,947
0.19195,656
0.1936167,891
0.1952833,795
0.19695,877
0.1986167,878
0.2002833,793
0.20195,741
0.2036167,919
0.2052833,750
0.20695,864
0.2086167,926
0.2102833,942
0.21195,950
0.2136167,991
0.2152833,988
0.21695,986
0.2186167,1042
0.2202833,1002
0.22195,962
0.2236167,934
0.2252833,1043
0.22695,1018
0.2286167,969
0.2302833,1051
0.23195,864
0.2336167,1005
0.2352833,1072
0.23695,1041
0.2386167,1228
0.2402833,1253
0.24195,1243
0.2436167,1144
0.2452833,1228
0.24695,1072
0.2486167,1044
0.2502833,1062
0.25195,1322
0.2536167,1331
0.2553,1181
0.25695,1173
0.2586167,1148
0.2602833,1189
0.26195,978
0.2636333,1135
0.2652833,883
0.26695,986
0.2686167,913
0.2702833,1056
0.27195,1047
0.2736167,1019
0.2752833,992
0.27695,1026
0.2786167,1060
0.2803,926
0.28195,748
0.2836167,891
0.2853,989
0.2869667,917
0.2886167,790
0.2902833,1230
0.29195,1177
0.2936167,1124
0.2952833,916
0.29695,1129
0.2986333,907
0.3002833,1046
0.3019667,1068
0.3036333,1178
0.3053,1205
0.30695,1020
0.3086167,798
0.3103,1174
0.31195,1075
0.3136167,1074
0.3153,879
0.31695,917
0.3186333,955
0.3202833,1075
0.3219667,1116
0.3236167,1061
0.3252833,1170
0.3269667,916
0.3286167,1165
0.3302833,1050
0.33195,1302
0.3336333,1333
0.3353,1313
0.3369667,1184
0.3386167,1123
0.3402833,1260
0.34195,1287
0.3436333,1344
0.3452833,1054
0.34695,1385
0.3486167,1358
0.3503,1348
0.3519667,1228
0.3536333,1262
0.3553,1185
0.3569667,1336
0.3586333,1288
0.3603,1298
0.3619667,1636
0.3636167,2813
0.3653,4638
0.36695,5959
0.3686333,5836
0.3703,5059
0.3719667,4301
0.3736333,3751
0.3753,3067
0.3769667,2006
0.3786333,1788
0.3802833,1427
0.3819667,1098
0.3836167,944
0.3853,824
0.3869667,743
0.3886333,535
0.3903,806
0.3919667,601
0.3936333,674
0.3953,707
0.3969667,437
0.3986333,643
0.4003,854
0.4019667,866
0.4036333,1039
0.4053,1069
0.4069667,1081
0.4086333,1048
0.4103,966
0.4119667,883
0.4136333,893
0.4153,1056
0.4169667,1001
0.4186333,991
0.4203,951
0.4219667,1024
0.4236333,1049
0.4253,926
0.4269667,1097
0.4286333,1015
0.4303,1068
0.4319667,1090
0.4336333,1171
0.4353,1164
0.4369667,1323
0.4386333,1278
0.4403,1232
0.4419667,1276
0.4436333,1481
0.4453,1498
0.4469667,1502
0.4486333,1835
0.4503,1775
0.4519667,1735
0.4536333,2119
0.4553,2114
0.4569667,1947
0.4586333,2083
0.4603,2220
0.4619667,2215
0.4636333,2253
0.4653,2291
0.4669667,2302
0.4686333,2157
0.4703,2422
0.4719667,2034
0.4736333,1775
0.4753,2157
0.4769667,2160
0.4786333,1663
0.4803,1777
0.4819667,1795
0.4836333,1363
0.4853,1557
0.4869667,1400
0.4886333,1602
0.4903,1432
0.4919667,1301
0.4936333,1312
0.4953,1144
0.4969667,1274
0.4986333,1256
0.5003,1383
0.5019667,1374
0.5036333,1130
0.5053,1225
0.5069667,1238
0.5086333,1070
0.5103,1279
0.5119666,1151
0.5136333,974
0.5153,1221
0.5169666,914
0.5186333,1086
0.5203,784
0.5219667,937
0.5236334,1028
0.5253,1063
0.5269667,960
0.5286334,1053
0.5303,1017
0.5319667,982
0.5336334,1080
0.5353,1099
0.5369667,1118
0.5386333,1034
0.5403,1181
0.5419667,1238
0.5436333,1038
0.5453,895
0.5469667,1021
0.5486333,1197
0.5503,1234
0.5519667,999
0.5536333,1076
0.5553,1087
0.5569667,792
0.5586333,925
0.5603,892
0.5619667,855
0.5636333,960
0.5653,999
0.5669667,967
0.5686333,964
0.5703,792
0.5719666,882
0.5736333,984
0.5753,937
0.5769666,969
0.5786333,1001
0.5803,822
0.5819666,957
0.5836333,903
0.5853,928
0.5869667,967
0.5886334,1017
0.5903,1067
0.5919667,1057
0.5936334,1044
0.5953,1030
0.5969667,918
0.5986333,1075
0.6003,880
0.6019667,904
0.6036333,1009
0.6053,901
0.6069667,914
0.6086333,957
0.6103,962
0.6119667,967
0.6136333,922
0.6153,993
0.6169667,775
0.6186333,812
0.6203,967
0.6219667,933
0.6236333,900
0.6253,837
0.6269667,851
0.6286333,911
0.6303,898
0.6319667,886
0.6336333,957
0.6353,946
0.6369666,935
0.6386333,668
0.6403,1011
0.6419666,994
0.6436333,827
0.6453,997
0.6469667,950
0.6486334,981
0.6503,991
0.6519667,1002
0.6536334,855
0.6553,1058
0.6569667,801
0.6586334,917
0.6603,864
0.6619667,712
0.6636333,765
0.6653,898
0.6669667,806
0.6686333,714
0.6703,774
0.6719667,834
0.6736333,852
0.6753,765
0.6769667,914
0.6786333,849
0.6803,973
0.6819667,813
0.6836333,904
0.6853,854
0.6869667,825
0.6886333,911
0.6903,818
0.6919667,841
0.6936333,856
0.6953,871
0.6969666,883
0.6986333,895
0.7003,814
0.7019666,825
0.7036333,734
0.7053,729
0.7069666,724
0.7086333,857
0.7103,870
0.7119667,883
0.7136334,830
0.7153,833
0.7169667,837
0.7186334,846
0.7203,856
0.7219667,1053
0.7236333,1049
0.7253,882
0.7269667,915
0.7286333,845
0.7303,878
0.7319667,863
0.7336333,848
0.7353,820
0.7369667,792
0.7386333,887
0.7403,668
0.7419667,804
0.7436333,940
0.7453,896
0.7469667,728
0.7486333,1110
0.7503,1022
0.7519667,960
0.7536333,783
0.7553,770
0.7569667,706
0.7586333,941
0.7603,1023
0.7619666,898
0.7636333,903
0.7653,863
0.7669666,814
0.7686333,668
0.7703,943
0.7719667,926
0.7736334,886
0.7753,843
0.7769667,811
0.7786334,767
0.7803,797
0.7819667,833
0.7836334,870
0.7853,838
0.7869667,877
0.7886333,880
0.7903,883
0.7919667,1045
0.7936333,1038
0.7953,907
0.7969667,837
0.7986333,827
0.8003,834
0.8019667,844
0.8036333,839
0.8053,834
0.8069667,914
0.8086333,978
0.8103,955
0.8119667,928
0.8136333,901
0.8153,961
0.8169667,879
0.8186333,847
0.8203,814
0.8219666,814
0.8236333,814
0.8253,829
0.8269666,844
0.8286333,961
0.8303,996
0.8319666,850
0.8336333,925
0.8353,949
0.8369667,824
0.8386334,921
0.8403,745
0.8419667,808
0.8436334,793
0.8453,821
0.8469667,795
0.8486333,769
0.8503,791
0.8519667,832
0.8536333,873
0.8553,921
0.8569667,922
0.8586333,950
0.8603,895
0.8619667,868
0.8636333,1068
0.8653,1149
0.8669667,1230
0.8686333,1636
0.8703,1590
0.8719667,1575
0.8736333,1826
0.8753,1822
0.8769667,1683
0.8786333,1761
0.8803,1839
0.8819667,1815
0.8836333,1590
0.8853,1590
0.8869666,1736
0.8886333,1471
0.8903,1798
0.8919666,1625
0.8936333,1925
0.8953,1727
0.8969667,1776
0.8986334,1650
0.9003,1568
0.9019667,1765
0.9036334,1464
0.9053,1774
0.9069667,1743
0.9086334,1712
0.9103,1493
0.9119667,1658
0.9136333,1818
0.9153,2022
0.9169667,1946
0.9186333,1638
0.9203,1643
0.9219667,1684
0.9236333,1689
0.9253,1375
0.9269667,2122
0.9286333,1922
0.9303,1707
0.9319667,2015
0.9336333,1781
0.9353,1621
0.9369667,1712
0.9386333,1507
0.9403,1680
0.9419667,1556
0.9436333,1504
0.9453,1648
0.9469666,1712
0.9486333,1427
0.9503,1517
0.9519666,1192
0.9536333,1394
0.9553,1298
0.9569666,1438
0.9586333,1198
0.9603,1274
0.9619667,892
0.9636334,1203
0.9653,1125
0.9669667,1207
0.9686334,1072
0.9703,1202
0.9719667,997
0.9736333,1059
0.9753,892
0.9769667,881
0.9786333,872
0.9803,875
0.9819667,877
0.9836333,886
0.9853,811
0.9869667,740
0.9886333,849
0.9903,810
0.9919667,771
0.9936333,847
0.9953,778
0.9969667,709
0.9986333,978
1.0003,917
1.001967,738
1.003633,778
1.0053,906
1.006967,868
1.008633,828
1.0103,813
1.011967,818
1.013633,823
1.0153,848
1.016967,872
1.018633,876
1.0203,900
1.021967,862
1.023633,823
1.0253,838
1.026967,853
1.028633,853
1.0303,853
1.031967,850
1.033633,958
1.0353,964
1.036967,933
1.038633,811
1.0403,780
1.041967,798
1.043633,841
1.0453,840
1.046967,839
1.048633,844
1.0503,826
1.051967,809
1.053633,869
1.0553,877
1.056967,878
1.058633,876
1.0603,874
1.061967,798
1.063633,805
1.0653,850
1.066967,784
1.068633,770
1.0703,809
1.071967,848
1.073633,825
1.0753,802
1.076967,768
1.078633,733
1.0803,904
1.081967,887
1.083633,957
1.0853,762
1.086967,871
1.088633,759
1.0903,844
1.091967,680
1.093633,758
1.0953,836
1.096967,956
1.098633,908
1.1003,708
1.101967,768
1.103633,776
1.1053,816
1.106967,856
1.108633,867
1.1103,789
1.111967,827
1.113633,866
1.1153,823
1.116967,781
1.118633,866
1.1203,653
1.121967,993
1.123633,847
1.1253,887
1.126967,659
1.128633,891
1.1303,653
1.131967,794
1.133633,825
1.1353,1019
1.136967,982
1.138633,914
1.1403,861
1.141967,949
1.143633,823
1.1453,774
1.146967,866
1.148633,817
1.1503,844
1.151967,779
1.153633,817
1.1553,854
1.156967,859
1.158633,801
1.1603,742
1.161967,744
1.163633,782
1.1653,994
1.166967,952
1.168633,907
1.1703,764
1.171967,891
1.173633,770
1.1753,763
1.176967,756
1.178633,763
1.1803,769
1.181967,872
1.183633,865
1.1853,915
1.186967,810
1.188633,848
1.1903,954
1.191967,964
1.193633,754
1.1953,827
1.196967,828
1.198633,829
