"SampleName","A2Rd2_01-38"
"Target Mass 1",
"Column Name","IA-3 (3um, 4.6X100)"
"Channel","QDa 1: SIR Ch1"
0.00195,444
0.003616667,679
0.005283333,536
0.00695,623
0.008616666,710
0.01028333,540
0.01195,753
0.01361667,696
0.01528333,483
0.01695,605
0.01861667,602
0.02028333,587
0.02195,567
0.02361667,702
0.02528333,668
0.02695,610
0.02861667,552
0.03028333,608
0.03195,537
0.03361667,589
0.03528333,641
0.03695,731
0.03861667,691
0.04028333,731
0.04195,509
0.04361667,737
0.04528333,676
0.04695,675
0.04861667,631
0.05028334,639
0.05195,524
0.05361667,383
0.05528333,657
0.05695,524
0.05861667,598
0.06028333,559
0.06195,649
0.06361666,661
0.06528334,651
0.06695,642
0.06861667,625
0.07028333,608
0.07195,644
0.07361667,618
0.07528333,592
0.07695,548
0.07861666,628
0.08028334,654
0.08195,669
0.08361667,592
0.08528333,631
0.08695,522
0.08861667,633
0.09028333,620
0.09195,578
0.09361666,590
0.09528334,517
0.09695,614
0.09861667,617
0.1002833,619
0.10195,512
0.1036167,475
0.1052833,632
0.10695,408
0.1086167,537
0.1102833,660
0.11195,524
0.1136167,491
0.1152833,675
0.11695,599
0.1186167,376
0.1202833,524
0.12195,682
0.1236167,604
0.1252833,733
0.12695,461
0.1286167,632
0.1302833,500
0.13195,511
0.1336167,522
0.1352833,737
0.13695,682
0.1386167,613
0.1402833,630
0.14195,522
0.1436167,427
0.1452833,519
0.14695,524
0.1486167,529
0.1502833,470
0.15195,451
0.1536167,536
0.1552833,558
0.15695,545
0.1586167,633
0.1602833,619
0.16195,392
0.1636167,574
0.1652833,585
0.16695,539
0.1686167,510
0.1702833,575
0.17195,546
0.1736167,518
0.1752833,620
0.17695,468
0.1786167,567
0.1802833,650
0.18195,495
0.1836167,626
0.1852833,558
0.18695,477
0.1886167,470
0.1902833,471
0.19195,492
0.1936167,520
0.1952833,547
0.19695,562
0.1986167,505
0.2002833,448
0.20195,513
0.2036167,610
0.2052833,619
0.20695,471
0.2086167,618
0.2102833,586
0.21195,568
0.2136167,598
0.2152833,604
0.21695,629
0.2186167,562
0.2202833,495
0.22195,588
0.2236167,658
0.2252833,426
0.22695,564
0.2286167,486
0.2302833,558
0.23195,567
0.2336167,575
0.2352833,583
0.23695,639
0.2386167,624
0.2402833,547
0.24195,517
0.2436167,592
0.2453,846
0.24695,766
0.2486167,463
0.2502833,626
0.25195,468
0.2536167,523
0.2552833,578
0.25695,604
0.2586167,511
0.2602833,468
0.26195,641
0.2636333,566
0.2652833,427
0.26695,507
0.2686167,582
0.2702833,620
0.27195,646
0.2736167,509
0.2752833,529
0.27695,635
0.2786333,623
0.2803,538
0.28195,688
0.2836167,637
0.2852833,567
0.28695,674
0.2886167,539
0.2902833,481
0.29195,713
0.2936167,629
0.2952833,611
0.29695,679
0.2986333,719
0.3002833,682
0.30195,612
0.3036167,595
0.3052833,630
0.30695,610
0.3086167,672
0.3102833,734
0.31195,715
0.3136167,656
0.3153,597
0.31695,658
0.3186167,714
0.3202833,491
0.32195,561
0.3236167,720
0.3252833,621
0.32695,740
0.3286167,546
0.3302833,773
0.33195,556
0.3336333,530
0.3353,678
0.33695,482
0.3386167,523
0.3402833,468
0.34195,655
0.3436167,692
0.3452833,379
0.34695,466
0.3486167,574
0.3503,473
0.35195,534
0.3536333,439
0.3553,594
0.35695,574
0.3586167,791
0.3602833,868
0.3619667,826
0.3636167,1444
0.3652833,2543
0.36695,5217
0.3686333,7748
0.3703,7940
0.3719667,9652
0.3736167,8912
0.3753,6638
0.37695,5347
0.3786333,4723
0.3802833,3647
0.3819667,2811
0.3836167,2242
0.3853,1807
0.3869667,1779
0.3886333,1626
0.3902833,1319
0.3919667,1060
0.3936167,1275
0.3953,1364
0.39695,1459
0.3986333,1504
0.4002833,1346
0.4019667,1509
0.4036333,1890
0.4053,2234
0.4069667,2203
0.4086167,2312
0.4103,1977
0.4119667,2083
0.4136333,2075
0.4153,1855
0.4169667,1973
0.4186333,1955
0.4203,1665
0.4219667,1881
0.4236333,1499
0.4253,1584
0.4269667,1357
0.4286333,1658
0.4303,1772
0.4319667,2130
0.4336333,2623
0.4353,3109
0.4369667,4462
0.4386333,6221
0.4403,8480
0.4419667,10776
0.4436333,14924
0.4453,20788
0.4469667,24928
0.4486333,34048
0.4503,46576
0.4519667,59856
0.4536333,76496
0.4553,96800
0.4569667,118576
0.4586333,149888
0.4603,189760
0.4619667,226304
0.4636333,275008
0.4653,321856
0.4669667,372480
0.4686333,407168
0.4703,434432
0.4719667,438592
0.4736333,439232
0.4753,418688
0.4769667,387136
0.4786333,341632
0.4803,288064
0.4819667,242624
0.4836333,196608
0.4853,160640
0.4869667,125328
0.4886333,94800
0.4903,73744
0.4919667,58880
0.4936333,45936
0.4953,37728
0.4969667,29232
0.4986333,24664
0.5003,20540
0.5019667,17972
0.5036333,15476
0.5053,12884
0.5069667,11428
0.5086333,10248
0.5103,9800
0.5119666,8556
0.5136333,7491
0.5153,7234
0.5169666,6267
0.5186333,6069
0.5203,5521
0.5219667,5640
0.5236334,5475
0.5253,4845
0.5269667,4449
0.5286334,4509
0.5303,4470
0.5319667,4196
0.5336334,3908
0.5353,3995
0.5369667,3844
0.5386333,3595
0.5403,3687
0.5419667,3400
0.5436333,3228
0.5453,3299
0.5469667,2934
0.5486333,2892
0.5503,2797
0.5519667,2811
0.5536333,2487
0.5553,2527
0.5569667,2742
0.5586333,2520
0.5603,2376
0.5619667,2324
0.5636333,2298
0.5653,2274
0.5669667,2151
0.5686333,2133
0.5703,2118
0.5719666,2107
0.5736333,2099
0.5753,2092
0.5769666,1985
0.5786333,2045
0.5803,2105
0.5819666,2138
0.5836333,2100
0.5853,2063
0.5869667,2197
0.5886334,2174
0.5903,2152
0.5919667,2062
0.5936334,2218
0.5953,1969
0.5969667,2212
0.5986333,1931
0.6003,2005
0.6019667,1995
0.6036333,1898
0.6053,1972
0.6069667,1683
0.6086333,1713
0.6103,1886
0.6119667,2059
0.6136333,2046
0.6153,1768
0.6169667,1688
0.6186333,1810
0.6203,1534
0.6219667,1582
0.6236333,1821
0.6253,1815
0.6269667,1553
0.6286333,1490
0.6303,1488
0.6319667,1631
0.6336333,1380
0.6353,1370
0.6369666,1722
0.6386333,1452
0.6403,1465
0.6419666,1454
0.6436333,1424
0.6453,1292
0.6469667,1349
0.6486334,1407
0.6503,1160
0.6519667,1342
0.6536334,1276
0.6553,1092
0.6569667,1413
0.6586334,1258
0.6603,1171
0.6619667,1395
0.6636333,1437
0.6653,1051
0.6669667,1428
0.6686333,1228
0.6703,1238
0.6719667,1183
0.6736333,1259
0.6753,1377
0.6769667,1374
0.6786333,1393
0.6803,1392
0.6819667,1234
0.6836333,1276
0.6853,1229
0.6869667,1254
0.6886333,1322
0.6903,1270
0.6919667,1218
0.6936333,1328
0.6953,1389
0.6969666,1338
0.6986333,1218
0.7003,1039
0.7019666,1220
0.7036333,1057
0.7053,1118
0.7069666,1179
0.7086333,1187
0.7103,1200
0.7119667,1289
0.7136334,1346
0.7153,1307
0.7169667,1183
0.7186334,1266
0.7203,1242
0.7219667,1218
0.7236333,1347
0.7253,1063
0.7269667,991
0.7286333,1000
0.7303,1018
0.7319667,1036
0.7336333,1084
0.7353,1132
0.7369667,1145
0.7386333,1350
0.7403,1262
0.7419667,1173
0.7436333,1212
0.7453,1570
0.7469667,1571
0.7486333,1207
0.7503,1267
0.7519667,1234
0.7536333,1236
0.7553,1238
0.7569667,1237
0.7586333,1097
0.7603,1185
0.7619666,1260
0.7636333,1270
0.7653,1229
0.7669666,1250
0.7686333,1268
0.7703,1108
0.7719667,1337
0.7736334,1229
0.7753,1071
0.7769667,1430
0.7786334,1140
0.7803,1290
0.7819667,1201
0.7836334,1355
0.7853,1093
0.7869667,1379
0.7886333,1269
0.7903,1159
0.7919667,1199
0.7936333,1118
0.7953,1210
0.7969667,1089
0.7986333,1180
0.8003,1243
0.8019667,1180
0.8036333,1299
0.8053,1277
0.8069667,1319
0.8086333,1361
0.8103,1400
0.8119667,1393
0.8136333,1392
0.8153,1426
0.8169667,1460
0.8186333,1169
0.8203,1368
0.8219666,1564
0.8236333,1320
0.8253,1565
0.8269666,1332
0.8286333,1541
0.8303,1187
0.8319666,1234
0.8336333,1533
0.8353,1265
0.8369667,1090
0.8386334,1288
0.8403,1151
0.8419667,1190
0.8436334,1115
0.8453,1265
0.8469667,1321
0.8486333,1211
0.8503,1246
0.8519667,971
0.8536333,1133
0.8553,1356
0.8569667,961
0.8586333,1117
0.8603,1367
0.8619667,1483
0.8636333,2242
0.8653,2819
0.8669667,3570
0.8686333,3813
0.8703,4236
0.8719667,4732
0.8736333,5099
0.8753,5053
0.8769667,5160
0.8786333,4663
0.8803,4461
0.8819667,4584
0.8836333,4508
0.8853,4550
0.8869666,4662
0.8886333,4605
0.8903,4548
0.8919666,4362
0.8936333,4390
0.8953,4343
0.8969667,4170
0.8986334,3998
0.9003,4154
0.9019667,4313
0.9036334,4472
0.9053,4537
0.9069667,4674
0.9086334,4811
0.9103,4824
0.9119667,4776
0.9136333,4727
0.9153,4669
0.9169667,4845
0.9186333,4581
0.9203,4376
0.9219667,4198
0.9236333,4085
0.9253,4236
0.9269667,4243
0.9286333,4233
0.9303,4223
0.9319667,3949
0.9336333,3823
0.9353,3697
0.9369667,3599
0.9386333,3549
0.9403,3306
0.9419667,3178
0.9436333,3215
0.9453,3041
0.9469666,2799
0.9486333,2966
0.9503,2542
0.9519666,2602
0.9536333,2570
0.9553,2202
0.9569666,2495
0.9586333,1855
0.9603,1668
0.9619667,1919
0.9636334,1725
0.9653,1583
0.9669667,1662
0.9686334,1378
0.9703,1262
0.9719667,1243
0.9736333,1259
0.9753,1204
0.9769667,1223
0.9786333,1008
0.9803,1061
0.9819667,1028
0.9836333,917
0.9853,884
0.9869667,805
0.9886333,886
0.9903,859
0.9919667,833
0.9936333,836
0.9953,839
0.9969667,911
0.9986333,742
1.0003,883
1.001967,609
1.003633,914
1.0053,867
1.006967,765
1.008633,892
1.0103,754
1.011967,751
1.013633,747
1.0153,800
1.016967,791
1.018633,782
1.0203,874
1.021967,904
1.023633,875
1.0253,876
1.026967,769
1.028633,852
1.0303,757
1.031967,634
1.033633,689
1.0353,751
1.036967,818
1.038633,787
1.0403,756
1.041967,761
1.043633,765
1.0453,776
1.046967,787
1.048633,778
1.0503,748
1.051967,602
1.053633,848
1.0553,875
1.056967,902
1.058633,887
1.0603,881
1.061967,834
1.063633,805
1.0653,850
1.066967,710
1.068633,768
1.0703,987
1.071967,973
1.073633,884
1.0753,679
1.076967,755
1.078633,723
1.0803,721
1.081967,719
1.083633,749
1.0853,778
1.086967,792
1.088633,857
1.0903,843
1.091967,802
1.093633,779
1.0953,830
1.096967,818
1.098633,771
1.1003,723
1.101967,813
1.103633,760
1.1053,707
1.106967,888
1.108633,911
1.1103,889
1.111967,956
1.113633,811
1.1153,734
1.116967,792
1.118633,797
1.1203,740
1.121967,684
1.123633,889
1.1253,841
1.126967,910
1.128633,720
1.1303,876
1.131967,720
1.133633,809
1.1353,870
1.136967,688
1.138633,835
1.1403,773
1.141967,711
1.143633,852
1.1453,963
1.146967,901
1.148633,935
1.1503,904
1.151967,928
1.153633,952
1.1553,983
1.156967,963
1.158633,943
1.1603,907
1.161967,768
1.163633,862
1.1653,827
1.166967,792
1.168633,838
1.1703,884
1.171967,971
1.173633,1115
1.1753,1127
1.176967,1055
1.178633,965
1.1803,1007
1.181967,1299
1.183633,1215
1.1853,1078
1.186967,1163
1.188633,946
1.1903,1211
1.191967,964
1.193633,1167
1.1953,1090
1.196967,1061
1.198633,1050
