"SampleName","A2Rd2_01-1"
"Target Mass 1",
"Column Name","IA-3 (3um, 4.6X100)"
"Channel","QDa 1: SIR Ch2"
0.00195,501
0.003616667,808
0.005283333,806
0.00695,864
0.008616666,730
0.01028333,1050
0.01195,1077
0.01361667,1153
0.01528333,1072
0.01695,946
0.01861667,1138
0.02028333,829
0.02195,961
0.02361667,898
0.02528333,1066
0.02695,1043
0.02861667,973
0.03028333,979
0.03195,984
0.03361667,891
0.03528333,902
0.03695,966
0.03861667,1029
0.04028333,1053
0.04195,1090
0.04361667,940
0.04528333,1013
0.04695,974
0.04861667,998
0.05028334,1022
0.05195,991
0.05361667,830
0.05528333,1031
0.05695,983
0.05861667,1051
0.06028333,915
0.06195,978
0.06361666,972
0.06528334,941
0.06695,1020
0.06861667,875
0.07028333,917
0.07195,951
0.07361667,771
0.07528333,936
0.07695,840
0.07861666,937
0.08028334,899
0.08195,993
0.08361667,1069
0.08528333,1146
0.08695,1176
0.08861667,1003
0.09028333,1002
0.09195,744
0.09361666,1077
0.09528334,1045
0.09695,823
0.09861667,980
0.1002833,967
0.10195,1022
0.1036167,907
0.1052833,884
0.10695,1027
0.1086167,793
0.1102833,1096
0.11195,866
0.1136167,752
0.1152833,1134
0.11695,1087
0.1186167,964
0.1202833,1082
0.12195,976
0.1236167,1103
0.1252833,803
0.12695,855
0.1286167,1007
0.1302833,961
0.13195,1016
0.1336167,1024
0.1352833,864
0.13695,916
0.1386167,960
0.1402833,1003
0.14195,996
0.1436167,988
0.1452833,901
0.14695,814
0.1486167,1007
0.1502833,811
0.15195,897
0.1536167,749
0.1552833,868
0.15695,836
0.1586167,804
0.1602833,841
0.16195,878
0.1636167,952
0.1652833,1149
0.16695,1141
0.1686167,1009
0.1702833,1113
0.17195,1018
0.1736167,1094
0.1752833,944
0.17695,895
0.1786167,956
0.1802833,903
0.18195,883
0.1836167,863
0.1852833,817
0.18695,766
0.1886167,864
0.1902833,872
0.19195,942
0.1936167,923
0.1952833,904
0.19695,902
0.1986167,864
0.2002833,963
0.20195,1023
0.2036167,1061
0.2052833,968
0.20695,1003
0.2086167,904
0.2102833,1213
0.21195,1178
0.2136167,908
0.2152833,996
0.21695,1093
0.2186167,1091
0.2202833,1090
0.22195,1302
0.2236167,1321
0.2252833,1002
0.22695,988
0.2286167,1337
0.2302833,1114
0.23195,1076
0.2336167,1167
0.2352833,1087
0.23695,1132
0.2386167,1264
0.2402833,1232
0.24195,1223
0.2436167,1214
0.2453,1173
0.24695,1133
0.2486167,1070
0.2503,1057
0.25195,1112
0.2536167,1167
0.2552833,1172
0.25695,1160
0.2586167,1149
0.2602833,1135
0.26195,1209
0.2636333,1055
0.2652833,1212
0.26695,1109
0.2686167,1112
0.2702833,1202
0.27195,1277
0.2736167,833
0.2752833,1182
0.27695,1060
0.2786167,1178
0.2803,744
0.28195,1180
0.2836167,1109
0.2852833,1077
0.28695,1186
0.2886167,935
0.2902833,1134
0.29195,1019
0.2936167,972
0.2952833,1184
0.29695,1125
0.2986333,1111
0.3003,1057
0.30195,948
0.3036333,1056
0.3052833,1059
0.30695,1062
0.3086167,1082
0.3102833,1082
0.31195,1081
0.3136167,1017
0.3153,1165
0.31695,867
0.3186167,913
0.3203,959
0.32195,1383
0.3236167,1322
0.3252833,1458
0.32695,1151
0.3286167,1454
0.3302833,1284
0.33195,1533
0.3336333,1373
0.3352833,1470
0.33695,1309
0.3386167,1526
0.3402833,1230
0.34195,1350
0.3436167,1488
0.3452833,1261
0.34695,1297
0.3486167,1440
0.3503,1330
0.35195,1311
0.3536333,1291
0.3552833,1338
0.3569667,1385
0.3586167,1115
0.3602833,1486
0.36195,1662
0.3636333,4291
0.3653,5822
0.3669667,6588
0.3686333,5983
0.3702833,5917
0.3719667,4598
0.3736333,3669
0.3753,2531
0.3769667,1941
0.3786333,1624
0.3803,1546
0.38195,1043
0.3836333,971
0.3853,979
0.3869667,946
0.3886333,963
0.3903,980
0.3919667,868
0.3936333,905
0.3953,941
0.3969667,884
0.3986333,872
0.4003,859
0.4019667,759
0.4036333,699
0.4053,661
0.4069667,724
0.4086333,643
0.4103,730
0.4119667,716
0.4136333,708
0.4153,719
0.4169667,730
0.4186333,734
0.4203,739
0.4219667,716
0.4236333,693
0.4253,944
0.4269667,1003
0.4286333,893
0.4303,961
0.4319667,1029
0.4336333,989
0.4353,949
0.4369667,1079
0.4386333,1196
0.4403,1145
0.4419667,1094
0.4436333,1219
0.4453,1082
0.4469667,1262
0.4486333,1290
0.4503,1258
0.4519667,1272
0.4536333,1183
0.4553,1470
0.4569667,1474
0.4586333,1699
0.4603,1541
0.4619667,1998
0.4636333,1991
0.4653,1616
0.4669667,1579
0.4686333,1652
0.4703,1693
0.4719667,1781
0.4736333,1434
0.4753,1475
0.4769667,1322
0.4786333,1391
0.4803,1459
0.4819667,1433
0.4836333,1284
0.4853,1331
0.4869667,1304
0.4886333,1269
0.4903,1091
0.4919667,1234
0.4936333,1023
0.4953,1077
0.4969667,1044
0.4986333,1019
0.5003,994
0.5019667,1094
0.5036333,912
0.5053,976
0.5069667,1011
0.5086333,959
0.5103,805
0.5119666,903
0.5136333,836
0.5153,886
0.5169666,1007
0.5186333,1038
0.5203,963
0.5219667,917
0.5236334,886
0.5253,990
0.5269667,902
0.5286334,855
0.5303,1054
0.5319667,965
0.5336334,922
0.5353,943
0.5369667,808
0.5386333,899
0.5403,1167
0.5419667,1111
0.5436333,1005
0.5453,887
0.5469667,768
0.5486333,922
0.5503,886
0.5519667,940
0.5536333,817
0.5553,930
0.5569667,1171
0.5586333,589
0.5603,813
0.5619667,835
0.5636333,804
0.5653,774
0.5669667,850
0.5686333,822
0.5703,623
0.5719666,697
0.5736333,761
0.5753,736
0.5769666,711
0.5786333,833
0.5803,821
0.5819666,809
0.5836333,913
0.5853,948
0.5869667,947
0.5886334,979
0.5903,763
0.5919667,940
0.5936334,935
0.5953,861
0.5969667,838
0.5986333,1014
0.6003,963
0.6019667,811
0.6036333,721
0.6053,938
0.6069667,963
0.6086333,796
0.6103,779
0.6119667,772
0.6136333,795
0.6153,818
0.6169667,853
0.6186333,701
0.6203,1085
0.6219667,998
0.6236333,947
0.6253,798
0.6269667,1049
0.6286333,850
0.6303,754
0.6319667,836
0.6336333,754
0.6353,673
0.6369666,960
0.6386333,1019
0.6403,939
0.6419666,615
0.6436333,878
0.6453,849
0.6469667,923
0.6486334,783
0.6503,837
0.6519667,852
0.6536334,845
0.6553,849
0.6569667,852
0.6586334,865
0.6603,733
0.6619667,728
0.6636333,852
0.6653,736
0.6669667,620
0.6686333,663
0.6703,765
0.6719667,746
0.6736333,680
0.6753,744
0.6769667,747
0.6786333,706
0.6803,665
0.6819667,792
0.6836333,794
0.6853,812
0.6869667,759
0.6886333,777
0.6903,794
0.6919667,687
0.6936333,745
0.6953,633
0.6969666,685
0.6986333,738
0.7003,802
0.7019666,914
0.7036333,925
0.7053,906
0.7069666,755
0.7086333,758
0.7103,895
0.7119667,790
0.7136334,855
0.7153,897
0.7169667,914
0.7186334,854
0.7203,824
0.7219667,945
0.7236333,823
0.7253,623
0.7269667,842
0.7286333,767
0.7303,844
0.7319667,913
0.7336333,720
0.7353,756
0.7369667,636
0.7386333,757
0.7403,837
0.7419667,754
0.7436333,583
0.7453,866
0.7469667,840
0.7486333,760
0.7503,739
0.7519667,694
0.7536333,785
0.7553,703
0.7569667,723
0.7586333,746
0.7603,772
0.7619666,798
0.7636333,676
0.7653,673
0.7669666,927
0.7686333,834
0.7703,854
0.7719667,726
0.7736334,833
0.7753,812
0.7769667,828
0.7786334,753
0.7803,702
0.7819667,741
0.7836334,730
0.7853,718
0.7869667,672
0.7886333,752
0.7903,755
0.7919667,759
0.7936333,760
0.7953,838
0.7969667,835
0.7986333,831
0.8003,724
0.8019667,876
0.8036333,699
0.8053,675
0.8069667,788
0.8086333,854
0.8103,957
0.8119667,855
0.8136333,798
0.8153,863
0.8169667,841
0.8186333,820
0.8203,724
0.8219666,888
0.8236333,909
0.8253,1003
0.8269666,916
0.8286333,843
0.8303,943
0.8319666,994
0.8336333,1026
0.8353,783
0.8369667,816
0.8386334,852
0.8403,736
0.8419667,723
0.8436334,780
0.8453,802
0.8469667,823
0.8486333,811
0.8503,730
0.8519667,738
0.8536333,908
0.8553,802
0.8569667,696
0.8586333,720
0.8603,837
0.8619667,608
0.8636333,908
0.8653,811
0.8669667,796
0.8686333,626
0.8703,743
0.8719667,803
0.8736333,906
0.8753,959
0.8769667,1168
0.8786333,1261
0.8803,1098
0.8819667,1180
0.8836333,957
0.8853,1099
0.8869666,887
0.8886333,1038
0.8903,1028
0.8919666,1004
0.8936333,1005
0.8953,1007
0.8969667,1003
0.8986334,998
0.9003,1025
0.9019667,1038
0.9036334,858
0.9053,963
0.9069667,1068
0.9086334,964
0.9103,1118
0.9119667,895
0.9136333,1062
0.9153,1252
0.9169667,1228
0.9186333,1018
0.9203,953
0.9219667,979
0.9236333,832
0.9253,1138
0.9269667,1071
0.9286333,1265
0.9303,910
0.9319667,1075
0.9336333,954
0.9353,1161
0.9369667,1194
0.9386333,1042
0.9403,949
0.9419667,1092
0.9436333,1072
0.9453,952
0.9469666,1006
0.9486333,882
0.9503,979
0.9519666,991
0.9536333,1048
0.9553,834
0.9569666,812
0.9586333,1061
0.9603,932
0.9619667,909
0.9636334,774
0.9653,827
0.9669667,897
0.9686334,878
0.9703,599
0.9719667,688
0.9736333,790
0.9753,734
0.9769667,765
0.9786333,736
0.9803,727
0.9819667,676
0.9836333,731
0.9853,727
0.9869667,724
0.9886333,715
0.9903,706
0.9919667,828
0.9936333,853
0.9953,918
0.9969667,650
0.9986333,819
1.0003,968
1.001967,919
1.003633,870
1.0053,710
1.006967,1040
1.008633,944
1.0103,880
1.011967,895
1.013633,971
1.0153,1047
1.016967,1086
1.018633,1026
1.0203,1022
1.021967,917
1.023633,934
1.0253,1009
1.026967,841
1.028633,794
1.0303,1088
1.031967,1132
1.033633,851
1.0353,865
1.036967,973
1.038633,899
1.0403,935
1.041967,706
1.043633,784
1.0453,1009
1.046967,881
1.048633,830
1.0503,890
1.051967,837
1.053633,809
1.0553,815
1.056967,928
1.058633,639
1.0603,862
1.061967,974
1.063633,667
1.0653,843
1.066967,784
1.068633,776
1.0703,768
1.071967,700
1.073633,631
1.0753,871
1.076967,803
1.078633,732
1.0803,1001
1.081967,1017
1.083633,716
1.0853,966
1.086967,847
1.088633,854
1.0903,893
1.091967,945
1.093633,726
1.0953,812
1.096967,830
1.098633,888
1.1003,838
1.101967,887
1.103633,937
1.1053,763
1.106967,893
1.108633,821
1.1103,982
1.111967,685
1.113633,915
1.1153,809
1.116967,908
1.118633,739
1.1203,878
1.121967,797
1.123633,946
1.1253,858
1.126967,694
1.128633,736
1.1303,671
1.131967,694
1.133633,718
1.1353,696
1.136967,674
1.138633,647
1.1403,735
1.141967,818
1.143633,770
1.1453,824
1.146967,791
1.148633,857
1.1503,848
1.151967,742
1.153633,615
1.1553,876
1.156967,882
1.158633,813
1.1603,624
1.161967,748
1.163633,832
1.1653,740
1.166967,649
1.168633,899
1.1703,779
1.171967,710
1.173633,723
1.1753,798
1.176967,683
1.178633,836
1.1803,805
1.181967,736
1.183633,906
1.1853,915
1.186967,966
1.188633,860
1.1903,841
1.191967,897
1.193633,824
1.1953,722
1.196967,955
1.198633,748
