"SampleName","A2Rd2_01-95"
"Target Mass 1",
"Column Name","IA-3 (3um, 4.6X100)"
"Channel","QDa 1: SIR Ch2"
0.00195,612
0.003616667,764
0.005283333,639
0.00695,757
0.008616666,731
0.01028333,776
0.01195,899
0.01361667,948
0.01528333,952
0.01695,853
0.01861667,962
0.02028333,548
0.02195,1006
0.02361667,839
0.02528333,953
0.02695,993
0.02861667,976
0.03028333,979
0.03195,862
0.03361667,673
0.03528333,903
0.03695,687
0.03861667,997
0.04028333,1036
0.04195,976
0.04361667,817
0.04528333,918
0.04695,985
0.04861667,874
0.05028334,781
0.05195,854
0.05361667,778
0.05528333,750
0.05695,722
0.05861667,1065
0.06028333,1064
0.06195,887
0.06361666,979
0.06528334,770
0.06695,832
0.06861667,1001
0.07028333,820
0.07195,884
0.07361667,948
0.07528333,796
0.07695,918
0.07861666,867
0.08028334,766
0.08195,937
0.08361667,1008
0.08528333,688
0.08695,841
0.08861667,780
0.09028333,670
0.09195,911
0.09361666,976
0.09528334,1057
0.09695,964
0.09861667,846
0.1002833,954
0.10195,1041
0.1036167,758
0.1052833,956
0.10695,999
0.1086167,877
0.1102833,892
0.11195,792
0.1136167,840
0.1152833,887
0.11695,739
0.1186167,751
0.1202833,798
0.12195,782
0.1236167,774
0.1252833,705
0.12695,765
0.1286167,815
0.1302833,757
0.13195,698
0.1336167,836
0.1352833,752
0.13695,708
0.1386167,663
0.1402833,722
0.14195,781
0.1436167,666
0.1452833,550
0.14695,840
0.1486167,869
0.1502833,667
0.15195,788
0.1536167,873
0.1552833,616
0.15695,642
0.1586167,652
0.1602833,733
0.16195,813
0.1636167,952
0.1652833,887
0.16695,762
0.1686167,950
0.1702833,805
0.17195,871
0.1736167,661
0.1752833,682
0.17695,762
0.1786167,727
0.1802833,854
0.18195,895
0.1836167,933
0.1852833,842
0.18695,840
0.1886167,896
0.1902833,800
0.19195,846
0.1936167,720
0.1952833,781
0.19695,904
0.1986167,984
0.2002833,879
0.20195,949
0.2036167,772
0.2052833,917
0.20695,916
0.2086167,862
0.2102833,827
0.21195,992
0.2136167,1063
0.2152833,942
0.21695,947
0.2186167,973
0.2202833,953
0.22195,1067
0.2236167,1013
0.2252833,959
0.22695,849
0.2286167,1015
0.2302833,903
0.23195,792
0.2336167,916
0.2352833,930
0.23695,944
0.2386167,1044
0.2402833,1144
0.24195,1063
0.2436167,1130
0.2453,944
0.24695,1075
0.2486167,1069
0.2502833,1035
0.25195,786
0.2536167,988
0.2552833,1149
0.25695,1210
0.2586167,1270
0.2602833,1174
0.26195,984
0.2636167,1280
0.2652833,858
0.26695,1116
0.2686167,883
0.2702833,1145
0.27195,1183
0.2736167,954
0.2752833,1066
0.27695,1137
0.2786167,1062
0.2803,1036
0.28195,770
0.2836167,983
0.2852833,940
0.28695,966
0.2886167,962
0.2902833,959
0.29195,847
0.2936167,1027
0.2952833,972
0.29695,917
0.2986333,928
0.3002833,981
0.30195,1068
0.3036167,994
0.3052833,919
0.30695,968
0.3086167,1016
0.3102833,885
0.31195,1108
0.3136167,1119
0.3153,1068
0.31695,1085
0.3186167,1103
0.3202833,1041
0.3219667,979
0.3236167,1113
0.3252833,1248
0.32695,1254
0.3286167,1122
0.3302833,1146
0.33195,1282
0.3336333,1095
0.3352833,1359
0.33695,1208
0.3386167,1077
0.3402833,1224
0.34195,1206
0.3436167,1295
0.3453,1335
0.34695,1351
0.3486167,1293
0.3503,1307
0.35195,1238
0.3536167,1408
0.3553,1459
0.35695,1252
0.3586167,1300
0.3602833,1308
0.36195,1395
0.3636167,1749
0.3652833,2786
0.36695,3239
0.3686333,3828
0.3703,3795
0.37195,4257
0.3736167,3841
0.3753,4036
0.3769667,3783
0.3786167,3656
0.3802833,3498
0.38195,2746
0.3836167,2231
0.3853,1986
0.38695,1283
0.3886333,1219
0.3902833,922
0.3919667,924
0.3936167,612
0.3953,446
0.3969667,582
0.3986167,523
0.4002833,527
0.40195,464
0.4036333,587
0.4053,565
0.4069667,503
0.4086333,583
0.4102833,620
0.41195,507
0.4136333,765
0.4153,757
0.41695,515
0.4186333,600
0.4203,790
0.4219667,594
0.4236333,603
0.4253,612
0.4269667,767
0.4286333,729
0.4303,820
0.4319667,775
0.4336333,833
0.4353,785
0.4369667,788
0.4386333,935
0.4403,947
0.4419667,1105
0.4436333,1250
0.4453,1146
0.4469667,1150
0.4486333,1092
0.4503,1188
0.4519667,1283
0.4536333,1335
0.4553,1345
0.4569667,1324
0.4586333,1191
0.4603,1274
0.4619667,1369
0.4636333,1438
0.4653,1413
0.4669667,1317
0.4686333,1268
0.4703,1257
0.4719667,1317
0.4736333,1377
0.4753,1460
0.4769667,1514
0.4786333,1137
0.4803,1267
0.4819667,1465
0.4836333,1434
0.4853,1326
0.4869667,1189
0.4886333,1326
0.4903,1252
0.4919667,1178
0.4936333,1078
0.4953,1048
0.4969667,852
0.4986333,897
0.5003,870
0.5019667,860
0.5036333,873
0.5053,887
0.5069667,848
0.5086333,863
0.5103,878
0.5119666,913
0.5136333,880
0.5153,847
0.5169666,911
0.5186333,965
0.5203,1025
0.5219667,774
0.5236334,825
0.5253,900
0.5269667,811
0.5286334,845
0.5303,778
0.5319667,897
0.5336334,917
0.5353,1060
0.5369667,983
0.5386333,872
0.5403,891
0.5419667,910
0.5436333,902
0.5453,894
0.5469667,884
0.5486333,874
0.5503,880
0.5519667,811
0.5536333,825
0.5553,839
0.5569667,833
0.5586333,826
0.5603,799
0.5619667,871
0.5636333,942
0.5653,666
0.5669667,829
0.5686333,849
0.5703,1097
0.5719666,1097
0.5736333,1167
0.5753,933
0.5769666,1065
0.5786333,857
0.5803,1006
0.5819666,986
0.5836333,1053
0.5853,1056
0.5869667,845
0.5886334,838
0.5903,1017
0.5919667,981
0.5936334,931
0.5953,823
0.5969667,882
0.5986333,879
0.6003,761
0.6019667,760
0.6036333,947
0.6053,861
0.6069667,1046
0.6086333,960
0.6103,875
0.6119667,902
0.6136333,881
0.6153,885
0.6169667,888
0.6186333,1042
0.6203,961
0.6219667,880
0.6236333,1273
0.6253,1166
0.6269667,930
0.6286333,861
0.6303,1059
0.6319667,1146
0.6336333,1035
0.6353,1045
0.6369666,1135
0.6386333,1093
0.6403,1051
0.6419666,1109
0.6436333,1050
0.6453,929
0.6469667,1155
0.6486334,1044
0.6503,1040
0.6519667,1035
0.6536334,991
0.6553,1022
0.6569667,1054
0.6586334,935
0.6603,1108
0.6619667,930
0.6636333,1161
0.6653,1013
0.6669667,859
0.6686333,1041
0.6703,1001
0.6719667,970
0.6736333,933
0.6753,1072
0.6769667,1098
0.6786333,1087
0.6803,1161
0.6819667,1235
0.6836333,1366
0.6853,1739
0.6869667,2060
0.6886333,2347
0.6903,2556
0.6919667,2480
0.6936333,2403
0.6953,3468
0.6969666,3540
0.6986333,3859
0.7003,4003
0.7019666,3782
0.7036333,4053
0.7053,4093
0.7069666,4133
0.7086333,4128
0.7103,4123
0.7119667,4262
0.7136334,4262
0.7153,4310
0.7169667,4358
0.7186334,4194
0.7203,4030
0.7219667,4047
0.7236333,3563
0.7253,3506
0.7269667,3336
0.7286333,2939
0.7303,2802
0.7319667,2507
0.7336333,2082
0.7353,2072
0.7369667,1789
0.7386333,1775
0.7403,1443
0.7419667,1340
0.7436333,1062
0.7453,1517
0.7469667,1313
0.7486333,1488
0.7503,1046
0.7519667,1186
0.7536333,1082
0.7553,1161
0.7569667,1164
0.7586333,1080
0.7603,1023
0.7619666,1021
0.7636333,962
0.7653,956
0.7669666,1161
0.7686333,1142
0.7703,968
0.7719667,1036
0.7736334,881
0.7753,1004
0.7769667,942
0.7786334,1292
0.7803,1399
0.7819667,1545
0.7836334,1800
0.7853,1778
0.7869667,1991
0.7886333,2582
0.7903,2859
0.7919667,3674
0.7936333,3987
0.7953,4153
0.7969667,4492
0.7986333,5187
0.8003,5312
0.8019667,5969
0.8036333,6177
0.8053,6761
0.8069667,6632
0.8086333,6463
0.8103,6663
0.8119667,6863
0.8136333,7125
0.8153,6930
0.8169667,7044
0.8186333,6991
0.8203,7127
0.8219666,6884
0.8236333,6642
0.8253,7186
0.8269666,6904
0.8286333,6508
0.8303,6436
0.8319666,5246
0.8336333,5702
0.8353,4875
0.8369667,4298
0.8386334,3976
0.8403,3406
0.8419667,3722
0.8436334,2831
0.8453,2630
0.8469667,2416
0.8486333,2232
0.8503,2301
0.8519667,1824
0.8536333,1988
0.8553,1425
0.8569667,1681
0.8586333,1364
0.8603,1526
0.8619667,1309
0.8636333,1274
0.8653,1256
0.8669667,1238
0.8686333,1342
0.8703,1144
0.8719667,1130
0.8736333,1043
0.8753,1189
0.8769667,1083
0.8786333,1168
0.8803,1258
0.8819667,1230
0.8836333,1198
0.8853,1165
0.8869666,1402
0.8886333,1446
0.8903,1361
0.8919666,1338
0.8936333,1314
0.8953,1587
0.8969667,1511
0.8986334,1436
0.9003,1480
0.9019667,1484
0.9036334,1506
0.9053,1299
0.9069667,1464
0.9086334,1287
0.9103,1292
0.9119667,1240
0.9136333,1267
0.9153,1294
0.9169667,1230
0.9186333,1209
0.9203,1189
0.9219667,1380
0.9236333,1364
0.9253,1154
0.9269667,1248
0.9286333,1336
0.9303,1182
0.9319667,1468
0.9336333,1392
0.9353,1402
0.9369667,1299
0.9386333,1231
0.9403,1261
0.9419667,1279
0.9436333,1296
0.9453,1283
0.9469666,1269
0.9486333,1281
0.9503,1107
0.9519666,1150
0.9536333,1255
0.9553,1214
0.9569666,1474
0.9586333,1398
0.9603,1355
0.9619667,1725
0.9636334,1677
0.9653,1893
0.9669667,1942
0.9686334,2400
0.9703,2669
0.9719667,2450
0.9736333,2984
0.9753,3027
0.9769667,3434
0.9786333,3896
0.9803,3952
0.9819667,4598
0.9836333,4358
0.9853,5093
0.9869667,5163
0.9886333,5843
0.9903,6072
0.9919667,5845
0.9936333,5910
0.9953,6897
0.9969667,6849
0.9986333,6967
1.0003,7420
1.001967,7446
1.003633,7204
1.0053,7504
1.006967,7459
1.008633,7226
1.0103,7078
1.011967,6930
1.013633,6920
1.0153,6910
1.016967,7076
1.018633,7242
1.0203,7206
1.021967,7170
1.023633,6574
1.0253,6447
1.026967,5722
1.028633,5404
1.0303,5403
1.031967,5009
1.033633,4202
1.0353,3862
1.036967,3649
1.038633,3348
1.0403,3369
1.041967,2750
1.043633,2996
1.0453,3006
1.046967,2650
1.048633,2457
1.0503,2135
1.051967,2319
1.053633,2537
1.0553,2357
1.056967,2108
1.058633,2354
1.0603,2475
1.061967,2418
1.063633,2583
1.0653,2580
1.066967,2604
1.068633,3132
1.0703,3211
1.071967,3052
1.073633,2397
1.0753,3199
1.076967,3181
1.078633,3175
1.0803,3387
1.081967,3358
1.083633,3662
1.0853,3755
1.086967,3510
1.088633,3262
1.0903,3548
1.091967,3430
1.093633,3328
1.0953,3510
1.096967,3692
1.098633,3626
1.1003,3601
1.101967,3780
1.103633,3980
1.1053,4255
1.106967,4216
1.108633,3689
1.1103,3563
1.111967,3223
1.113633,3617
1.1153,3371
1.116967,3454
1.118633,2868
1.1203,2978
1.121967,2650
1.123633,2899
1.1253,2618
1.126967,2545
1.128633,2221
1.1303,2278
1.131967,2433
1.133633,1719
1.1353,1787
1.136967,2000
1.138633,1545
1.1403,1645
1.141967,1826
1.143633,1542
1.1453,1499
1.146967,1662
1.148633,1365
1.1503,1441
1.151967,1112
1.153633,1203
1.1553,1320
1.156967,1240
1.158633,1290
1.1603,1244
1.161967,1067
1.163633,1307
1.1653,1200
1.166967,1092
1.168633,1089
1.1703,1099
1.171967,1110
1.173633,1064
1.1753,1162
1.176967,897
1.178633,1094
1.1803,1014
1.181967,972
1.183633,920
1.1853,867
1.186967,865
1.188633,863
1.1903,892
1.191967,921
1.193633,1203
1.1953,1250
1.196967,968
1.198633,1067
