"SampleName","A2Rd2_01-75"
"Target Mass 1",
"Column Name","IA-3 (3um, 4.6X100)"
"Channel","QDa 1: SIR Ch2"
0.00195,470
0.003616667,740
0.005283333,551
0.00695,681
0.008616666,793
0.01028333,948
0.01195,1003
0.01361667,961
0.01528333,913
0.01695,1033
0.01861667,907
0.02028333,920
0.02195,881
0.02361667,878
0.02528333,843
0.02695,879
0.02861667,915
0.03028333,915
0.03195,805
0.03361667,847
0.03528333,888
0.03695,916
0.03861667,945
0.04028333,836
0.04195,892
0.04361667,948
0.04528333,959
0.04695,951
0.04861667,942
0.05028334,1009
0.05195,848
0.05361667,844
0.05528333,840
0.05695,854
0.05861667,791
0.06028333,727
0.06195,709
0.06361666,690
0.06528334,947
0.06695,926
0.06861667,868
0.07028333,821
0.07195,820
0.07361667,947
0.07528333,914
0.07695,843
0.07861666,1001
0.08028334,816
0.08195,845
0.08361667,861
0.08528333,867
0.08695,872
0.08861667,776
0.09028333,993
0.09195,922
0.09361666,829
0.09528334,757
0.09695,798
0.09861667,808
0.1002833,868
0.10195,862
0.1036167,910
0.1052833,978
0.10695,731
0.1086167,832
0.1102833,792
0.11195,837
0.1136167,882
0.1152833,856
0.11695,787
0.1186167,836
0.1202833,875
0.12195,851
0.1236167,901
0.1252833,951
0.12695,1002
0.1286167,754
0.1302833,1028
0.13195,874
0.1336167,843
0.1352833,751
0.13695,844
0.1386167,679
0.1402833,931
0.14195,573
0.1436167,837
0.1452833,831
0.14695,834
0.1486167,834
0.1502833,834
0.15195,786
0.1536167,809
0.1552833,833
0.15695,844
0.1586167,811
0.1602833,771
0.16195,813
0.1636167,854
0.1652833,841
0.16695,805
0.1686167,790
0.1702833,864
0.17195,844
0.1736167,824
0.1752833,829
0.17695,649
0.1786167,828
0.1802833,957
0.18195,868
0.1836167,925
0.1852833,1006
0.18695,942
0.1886167,799
0.1902833,958
0.19195,909
0.1936167,993
0.1952833,832
0.19695,959
0.1986167,851
0.2002833,766
0.20195,785
0.2036167,892
0.2052833,837
0.20695,782
0.2086167,796
0.2102833,810
0.21195,857
0.2136167,905
0.2152833,1010
0.21695,1080
0.2186167,1036
0.2202833,993
0.22195,967
0.2236167,833
0.2252833,891
0.22695,1009
0.2286167,1128
0.2302833,1026
0.23195,923
0.2336167,834
0.2352833,1029
0.2369667,1149
0.2386167,1044
0.2402833,939
0.24195,990
0.2436167,1163
0.2452833,1278
0.24695,1315
0.2486167,1378
0.2502833,1135
0.2519667,1035
0.2536167,1180
0.2552833,1165
0.25695,1149
0.2586167,968
0.2602833,1046
0.26195,1003
0.2636333,1074
0.2653,1041
0.26695,1007
0.2686167,1100
0.2702833,1098
0.27195,928
0.2736167,1046
0.2752833,914
0.27695,897
0.2786167,918
0.2803,949
0.28195,967
0.2836333,943
0.2852833,919
0.28695,953
0.2886167,880
0.2902833,893
0.29195,1049
0.2936167,996
0.2952833,944
0.29695,904
0.2986333,865
0.3002833,880
0.3019667,894
0.3036333,929
0.3052833,964
0.30695,933
0.3086167,903
0.3102833,976
0.31195,1049
0.3136167,1164
0.3153,1279
0.31695,1242
0.3186333,1219
0.3203,1233
0.3219667,1247
0.3236167,1155
0.3252833,1115
0.32695,1269
0.3286167,1001
0.3303,1128
0.33195,1379
0.3336333,1233
0.3353,1266
0.33695,1410
0.3386167,1130
0.3402833,1237
0.34195,1612
0.3436167,1452
0.3452833,1257
0.3469667,1245
0.3486333,1289
0.3503,1253
0.3519667,1216
0.3536333,1239
0.3552833,1283
0.3569667,1285
0.3586167,1288
0.3602833,1357
0.36195,1515
0.3636333,1572
0.3653,2607
0.36695,4075
0.3686333,4077
0.3703,4613
0.3719667,4584
0.3736333,4554
0.3752833,4308
0.37695,4062
0.3786333,3944
0.3803,3494
0.3819667,2801
0.3836333,2211
0.3853,1795
0.3869667,1581
0.3886333,1521
0.3903,1384
0.3919667,708
0.3936167,621
0.3953,452
0.3969667,488
0.3986333,582
0.4003,473
0.4019667,572
0.4036333,612
0.4053,636
0.4069667,640
0.4086333,598
0.4103,651
0.4119667,708
0.4136333,702
0.4153,749
0.4169667,735
0.4186333,721
0.4203,698
0.4219667,675
0.4236333,534
0.4253,620
0.4269667,707
0.4286333,840
0.4303,842
0.4319667,1021
0.4336333,992
0.4353,962
0.4369667,933
0.4386333,980
0.4403,765
0.4419667,1021
0.4436333,958
0.4453,1120
0.4469667,1113
0.4486333,1023
0.4503,1003
0.4519667,984
0.4536333,1140
0.4553,1296
0.4569667,1495
0.4586333,1673
0.4603,1508
0.4619667,1516
0.4636333,1513
0.4653,1539
0.4669667,1565
0.4686333,1696
0.4703,1827
0.4719667,1749
0.4736333,1712
0.4753,1834
0.4769667,1739
0.4786333,1446
0.4803,1430
0.4819667,1514
0.4836333,1335
0.4853,1317
0.4869667,1299
0.4886333,1307
0.4903,1197
0.4919667,1278
0.4936333,1161
0.4953,1140
0.4969667,1119
0.4986333,1078
0.5003,1162
0.5019667,1246
0.5036333,1333
0.5053,959
0.5069667,1009
0.5086333,1159
0.5103,1058
0.5119666,1192
0.5136333,1018
0.5153,1019
0.5169666,969
0.5186333,917
0.5203,967
0.5219667,973
0.5236334,856
0.5253,835
0.5269667,1024
0.5286334,913
0.5303,978
0.5319667,1029
0.5336334,1001
0.5353,1044
0.5369667,1037
0.5386333,1031
0.5403,1006
0.5419667,807
0.5436333,862
0.5453,885
0.5469667,856
0.5486333,827
0.5503,810
0.5519667,793
0.5536333,880
0.5553,882
0.5569667,908
0.5586333,885
0.5603,862
0.5619667,845
0.5636333,898
0.5653,952
0.5669667,901
0.5686333,850
0.5703,814
0.5719666,938
0.5736333,956
0.5753,982
0.5769666,1084
0.5786333,1093
0.5803,940
0.5819666,926
0.5836333,922
0.5853,989
0.5869667,1002
0.5886334,952
0.5903,992
0.5919667,849
0.5936334,968
0.5953,869
0.5969667,1033
0.5986333,999
0.6003,965
0.6019667,767
0.6036333,1130
0.6053,992
0.6069667,868
0.6086333,931
0.6103,1056
0.6119667,1084
0.6136333,955
0.6153,956
0.6169667,789
0.6186333,924
0.6203,1177
0.6219667,1075
0.6236333,848
0.6253,773
0.6269667,908
0.6286333,849
0.6303,886
0.6319667,875
0.6336333,898
0.6353,875
0.6369666,852
0.6386333,889
0.6403,889
0.6419666,889
0.6436333,796
0.6453,946
0.6469667,1007
0.6486334,748
0.6503,946
0.6519667,751
0.6536334,987
0.6553,921
0.6569667,648
0.6586334,734
0.6603,909
0.6619667,852
0.6636333,741
0.6653,886
0.6669667,920
0.6686333,871
0.6703,907
0.6719667,705
0.6736333,917
0.6753,871
0.6769667,891
0.6786333,904
0.6803,875
0.6819667,846
0.6836333,905
0.6853,964
0.6869667,691
0.6886333,807
0.6903,713
0.6919667,740
0.6936333,767
0.6953,962
0.6969666,855
0.6986333,749
0.7003,846
0.7019666,904
0.7036333,850
0.7053,795
0.7069666,830
0.7086333,886
0.7103,942
0.7119667,935
0.7136334,695
0.7153,840
0.7169667,839
0.7186334,866
0.7203,858
0.7219667,851
0.7236333,941
0.7253,1004
0.7269667,751
0.7286333,1011
0.7303,946
0.7319667,896
0.7336333,702
0.7353,917
0.7369667,866
0.7386333,890
0.7403,782
0.7419667,632
0.7436333,827
0.7453,881
0.7469667,762
0.7486333,784
0.7503,806
0.7519667,826
0.7536333,846
0.7553,776
0.7569667,707
0.7586333,832
0.7603,1118
0.7619666,1015
0.7636333,890
0.7653,1015
0.7669666,802
0.7686333,942
0.7703,906
0.7719667,898
0.7736334,891
0.7753,813
0.7769667,821
0.7786334,918
0.7803,782
0.7819667,756
0.7836334,906
0.7853,876
0.7869667,870
0.7886333,863
0.7903,874
0.7919667,939
0.7936333,949
0.7953,826
0.7969667,899
0.7986333,951
0.8003,888
0.8019667,842
0.8036333,797
0.8053,978
0.8069667,1049
0.8086333,916
0.8103,1043
0.8119667,855
0.8136333,903
0.8153,1105
0.8169667,819
0.8186333,876
0.8203,916
0.8219666,886
0.8236333,853
0.8253,937
0.8269666,952
0.8286333,917
0.8303,938
0.8319666,745
0.8336333,859
0.8353,961
0.8369667,906
0.8386334,958
0.8403,1020
0.8419667,710
0.8436334,694
0.8453,885
0.8469667,860
0.8486333,872
0.8503,872
0.8519667,872
0.8536333,728
0.8553,902
0.8569667,890
0.8586333,952
0.8603,909
0.8619667,790
0.8636333,875
0.8653,818
0.8669667,858
0.8686333,897
0.8703,887
0.8719667,876
0.8736333,781
0.8753,804
0.8769667,780
0.8786333,762
0.8803,744
0.8819667,731
0.8836333,1051
0.8853,1001
0.8869666,1201
0.8886333,1172
0.8903,1143
0.8919666,1169
0.8936333,1147
0.8953,1191
0.8969667,1216
0.8986334,1255
0.9003,1213
0.9019667,1110
0.9036334,1258
0.9053,1161
0.9069667,1046
0.9086334,1204
0.9103,938
0.9119667,1171
0.9136333,1117
0.9153,1049
0.9169667,1345
0.9186333,1430
0.9203,1325
0.9219667,1278
0.9236333,1231
0.9253,1090
0.9269667,1230
0.9286333,1139
0.9303,1142
0.9319667,1145
0.9336333,1280
0.9353,1308
0.9369667,1362
0.9386333,1102
0.9403,1171
0.9419667,1222
0.9436333,1233
0.9453,1287
0.9469666,1357
0.9486333,1317
0.9503,1094
0.9519666,1228
0.9536333,820
0.9553,1143
0.9569666,1026
0.9586333,1071
0.9603,1177
0.9619667,1027
0.9636334,1073
0.9653,788
0.9669667,977
0.9686334,982
0.9703,908
0.9719667,896
0.9736333,741
0.9753,767
0.9769667,792
0.9786333,930
0.9803,929
0.9819667,833
0.9836333,788
0.9853,1009
0.9869667,614
0.9886333,783
0.9903,835
0.9919667,825
0.9936333,655
0.9953,843
0.9969667,752
0.9986333,863
1.0003,896
1.001967,898
1.003633,940
1.0053,809
1.006967,831
1.008633,758
1.0103,848
1.011967,822
1.013633,790
1.0153,869
1.016967,684
1.018633,759
1.0203,1029
1.021967,1008
1.023633,1021
1.0253,922
1.026967,918
1.028633,930
1.0303,956
1.031967,839
1.033633,926
1.0353,956
1.036967,815
1.038633,997
1.0403,877
1.041967,843
1.043633,865
1.0453,862
1.046967,1044
1.048633,1122
1.0503,1013
1.051967,1028
1.053633,733
1.0553,871
1.056967,947
1.058633,883
1.0603,924
1.061967,842
1.063633,907
1.0653,797
1.066967,884
1.068633,858
1.0703,831
1.071967,838
1.073633,856
1.0753,952
1.076967,931
1.078633,875
1.0803,819
1.081967,732
1.083633,693
1.0853,747
1.086967,801
1.088633,826
1.0903,850
1.091967,830
1.093633,810
1.0953,834
1.096967,858
1.098633,824
1.1003,789
1.101967,727
1.103633,680
1.1053,719
1.106967,757
1.108633,787
1.1103,818
1.111967,932
1.113633,889
1.1153,971
1.116967,869
1.118633,783
1.1203,630
1.121967,837
1.123633,820
1.1253,804
1.126967,787
1.128633,893
1.1303,916
1.131967,677
1.133633,734
1.1353,779
1.136967,760
1.138633,777
1.1403,794
1.141967,846
1.143633,834
1.1453,889
1.146967,770
1.148633,989
1.1503,673
1.151967,1059
1.153633,957
1.1553,810
1.156967,876
1.158633,1012
1.1603,769
1.161967,937
1.163633,775
1.1653,780
1.166967,718
1.168633,737
1.1703,756
1.171967,905
1.173633,902
1.1753,742
1.176967,879
1.178633,830
1.1803,903
1.181967,830
1.183633,843
1.1853,776
1.186967,908
1.188633,918
1.1903,765
1.191967,724
1.193633,985
1.1953,885
1.196967,785
1.198633,812
