"SampleName","A2Rd2_01-65"
"Target Mass 1",
"Column Name","IA-3 (3um, 4.6X100)"
"Channel","QDa 1: SIR Ch1"
0.00195,391
0.003616667,505
0.005283333,666
0.00695,607
0.008616666,667
0.01028333,677
0.01195,687
0.01361667,593
0.01528333,661
0.01695,546
0.01861667,562
0.02028333,578
0.02195,555
0.02361667,603
0.02528333,651
0.02695,626
0.02861667,660
0.03028333,536
0.03195,520
0.03361667,524
0.03528333,529
0.03695,572
0.03861667,566
0.04028333,559
0.04195,512
0.04361667,520
0.04528333,527
0.04695,562
0.04861667,597
0.05028334,582
0.05195,567
0.05361667,456
0.05528333,636
0.05695,732
0.05861667,703
0.06028333,501
0.06195,500
0.06361666,747
0.06528334,880
0.06695,741
0.06861667,575
0.07028333,611
0.07195,706
0.07361667,603
0.07528333,493
0.07695,651
0.07861666,571
0.08028334,654
0.08195,436
0.08361667,684
0.08528333,571
0.08695,645
0.08861667,559
0.09028333,560
0.09195,560
0.09361666,537
0.09528334,564
0.09695,553
0.09861667,542
0.1002833,527
0.10195,451
0.1036167,583
0.1052833,606
0.10695,564
0.1086167,583
0.1102833,587
0.11195,590
0.1136167,524
0.1152833,458
0.11695,661
0.1186167,329
0.1202833,552
0.12195,599
0.1236167,595
0.1252833,626
0.12695,658
0.1286167,688
0.1302833,537
0.13195,601
0.1336167,581
0.1352833,552
0.13695,523
0.1386167,388
0.1402833,436
0.14195,483
0.1436167,626
0.1452833,588
0.14695,548
0.1486167,558
0.1502833,557
0.15195,556
0.1536167,557
0.1552833,635
0.15695,632
0.1586167,519
0.1602833,585
0.16195,647
0.1636167,537
0.1652833,662
0.16695,526
0.1686167,614
0.1702833,536
0.17195,433
0.1736167,553
0.1752833,591
0.17695,608
0.1786167,578
0.1802833,587
0.18195,534
0.1836167,482
0.1852833,628
0.18695,597
0.1886167,494
0.1902833,606
0.19195,564
0.1936167,540
0.1952833,472
0.19695,508
0.1986167,545
0.2003,543
0.20195,541
0.2036167,570
0.2052833,500
0.20695,530
0.2086167,551
0.2103,589
0.21195,401
0.2136167,516
0.2152833,667
0.21695,598
0.2186167,598
0.2202833,593
0.22195,572
0.2236167,552
0.2252833,500
0.2269667,563
0.2286333,585
0.2302833,567
0.23195,571
0.2336333,574
0.2352833,624
0.23695,673
0.2386167,485
0.2402833,698
0.24195,665
0.2436167,746
0.2453,568
0.24695,527
0.2486167,575
0.2503,549
0.25195,542
0.2536167,457
0.2552833,468
0.25695,463
0.2586167,499
0.2602833,566
0.26195,580
0.2636333,567
0.2652833,533
0.2669667,500
0.2686167,523
0.2702833,546
0.27195,491
0.2736167,517
0.2753,544
0.27695,602
0.2786167,607
0.2803,612
0.2819667,614
0.2836333,617
0.2852833,580
0.28695,544
0.2886167,501
0.2902833,597
0.2919667,490
0.2936167,501
0.2952833,512
0.2969667,548
0.2986333,585
0.3003,588
0.30195,589
0.3036167,590
0.3052833,664
0.3069667,645
0.3086333,698
0.3103,646
0.31195,643
0.3136167,639
0.3153,527
0.3169667,696
0.3186333,674
0.3202833,722
0.32195,592
0.3236333,609
0.3253,614
0.32695,620
0.3286167,598
0.3303,525
0.3319667,479
0.3336333,595
0.3352833,519
0.3369667,444
0.3386167,636
0.3403,689
0.3419667,664
0.3436167,450
0.3452833,603
0.34695,694
0.3486333,624
0.3503,605
0.3519667,583
0.3536333,654
0.3553,555
0.3569667,552
0.3586333,713
0.3603,764
0.3619667,737
0.3636333,773
0.3653,1387
0.3669667,2098
0.3686333,3353
0.3703,4318
0.3719667,4973
0.3736333,5486
0.3753,5328
0.3769667,5397
0.3786333,4313
0.3803,4345
0.3819667,3932
0.3836333,2973
0.3853,2661
0.3869667,2121
0.3886333,1627
0.3903,1293
0.3919667,1118
0.3936333,1034
0.3953,971
0.3969667,1069
0.3986333,1053
0.4003,707
0.4019667,1178
0.4036333,1120
0.4053,1339
0.4069667,1162
0.4086333,1374
0.4103,1535
0.4119667,1738
0.4136333,1701
0.4153,1557
0.4169667,1504
0.4186333,1559
0.4203,1562
0.4219667,1579
0.4236333,1596
0.4253,1585
0.4269667,2003
0.4286333,1937
0.4303,2307
0.4319667,3061
0.4336333,3863
0.4353,6109
0.4369667,7418
0.4386333,10552
0.4403,14260
0.4419667,19688
0.4436333,26800
0.4453,34960
0.4469667,46240
0.4486333,59792
0.4503,71664
0.4519667,87536
0.4536333,104512
0.4553,118576
0.4569667,139840
0.4586333,154112
0.4603,175872
0.4619667,197888
0.4636333,218880
0.4653,247104
0.4669667,271040
0.4686333,302080
0.4703,322240
0.4719667,337152
0.4736333,349696
0.4753,346624
0.4769667,334976
0.4786333,317056
0.4803,283392
0.4819667,246144
0.4836333,217344
0.4853,183552
0.4869667,147328
0.4886333,118672
0.4903,92320
0.4919667,71920
0.4936333,56544
0.4953,43328
0.4969667,33648
0.4986333,25628
0.5003,20780
0.5019667,16044
0.5036333,13576
0.5053,12040
0.5069667,10328
0.5086333,8744
0.5103,8146
0.5119666,7028
0.5136333,6720
0.5153,6353
0.5169666,5434
0.5186333,5104
0.5203,5044
0.5219667,4465
0.5236334,4854
0.5253,4165
0.5269667,4110
0.5286334,4215
0.5303,3874
0.5319667,3291
0.5336334,3615
0.5353,3455
0.5369667,3117
0.5386333,3268
0.5403,3330
0.5419667,2818
0.5436333,2953
0.5453,2960
0.5469667,2742
0.5486333,2616
0.5503,2519
0.5519667,2307
0.5536333,2267
0.5553,2146
0.5569667,2099
0.5586333,2319
0.5603,2277
0.5619667,1634
0.5636333,2039
0.5653,2264
0.5669667,1627
0.5686333,1955
0.5703,2002
0.5719666,1856
0.5736333,1537
0.5753,1836
0.5769666,1752
0.5786333,2038
0.5803,2047
0.5819666,1915
0.5836333,1626
0.5853,1923
0.5869667,1779
0.5886334,1821
0.5903,1917
0.5919667,1906
0.5936334,1676
0.5953,1731
0.5969667,1595
0.5986333,1579
0.6003,1563
0.6019667,1674
0.6036333,1741
0.6053,1763
0.6069667,1687
0.6086333,1783
0.6103,1530
0.6119667,1635
0.6136333,1719
0.6153,1634
0.6169667,1735
0.6186333,1512
0.6203,1310
0.6219667,1486
0.6236333,1304
0.6253,1513
0.6269667,1572
0.6286333,1581
0.6303,1341
0.6319667,1404
0.6336333,1265
0.6353,1376
0.6369666,1418
0.6386333,1348
0.6403,1230
0.6419666,1274
0.6436333,1357
0.6453,1430
0.6469667,1342
0.6486334,1345
0.6503,1146
0.6519667,1178
0.6536334,1286
0.6553,1275
0.6569667,1065
0.6586334,1150
0.6603,1267
0.6619667,1168
0.6636333,1277
0.6653,1418
0.6669667,1342
0.6686333,1266
0.6703,1296
0.6719667,1389
0.6736333,1223
0.6753,1253
0.6769667,1245
0.6786333,1168
0.6803,1164
0.6819667,1144
0.6836333,1233
0.6853,1284
0.6869667,1300
0.6886333,1012
0.6903,1244
0.6919667,1100
0.6936333,1118
0.6953,1222
0.6969666,1131
0.6986333,1147
0.7003,1249
0.7019666,1106
0.7036333,1212
0.7053,1267
0.7069666,1303
0.7086333,1323
0.7103,1266
0.7119667,1110
0.7136334,1263
0.7153,992
0.7169667,1390
0.7186334,1247
0.7203,1354
0.7219667,1128
0.7236333,1146
0.7253,1198
0.7269667,1220
0.7286333,1029
0.7303,1278
0.7319667,1210
0.7336333,1390
0.7353,1216
0.7369667,1296
0.7386333,1309
0.7403,1322
0.7419667,1216
0.7436333,1183
0.7453,1155
0.7469667,1273
0.7486333,1310
0.7503,1160
0.7519667,1203
0.7536333,1247
0.7553,1237
0.7569667,1224
0.7586333,1211
0.7603,1048
0.7619666,1248
0.7636333,1208
0.7653,1034
0.7669666,1290
0.7686333,1373
0.7703,1181
0.7719667,1254
0.7736334,1297
0.7753,1198
0.7769667,1143
0.7786334,1232
0.7803,1148
0.7819667,1124
0.7836334,1100
0.7853,1209
0.7869667,1240
0.7886333,1204
0.7903,1038
0.7919667,1200
0.7936333,1173
0.7953,1147
0.7969667,1243
0.7986333,1051
0.8003,1275
0.8019667,1199
0.8036333,1238
0.8053,980
0.8069667,1315
0.8086333,1246
0.8103,1413
0.8119667,1350
0.8136333,1200
0.8153,1005
0.8169667,1421
0.8186333,1136
0.8203,1249
0.8219666,1410
0.8236333,1420
0.8253,1203
0.8269666,1177
0.8286333,1167
0.8303,1176
0.8319666,1185
0.8336333,1219
0.8353,1220
0.8369667,1175
0.8386334,1130
0.8403,1498
0.8419667,1420
0.8436334,1136
0.8453,1293
0.8469667,1046
0.8486333,1262
0.8503,1162
0.8519667,1125
0.8536333,1231
0.8553,1212
0.8569667,1143
0.8586333,938
0.8603,1017
0.8619667,947
0.8636333,1007
0.8653,1310
0.8669667,1699
0.8686333,2188
0.8703,2689
0.8719667,3018
0.8736333,3636
0.8753,3695
0.8769667,4195
0.8786333,4590
0.8803,4498
0.8819667,4712
0.8836333,4898
0.8853,4992
0.8869666,4719
0.8886333,4392
0.8903,4744
0.8919666,4254
0.8936333,4393
0.8953,4326
0.8969667,3951
0.8986334,4294
0.9003,3789
0.9019667,4390
0.9036334,3994
0.9053,4586
0.9069667,4704
0.9086334,4007
0.9103,4477
0.9119667,4193
0.9136333,4388
0.9153,3897
0.9169667,4060
0.9186333,4100
0.9203,4051
0.9219667,4001
0.9236333,3955
0.9253,3881
0.9269667,3822
0.9286333,3718
0.9303,3709
0.9319667,3948
0.9336333,3473
0.9353,3072
0.9369667,3191
0.9386333,3178
0.9403,3217
0.9419667,3257
0.9436333,2897
0.9453,2927
0.9469666,2543
0.9486333,2561
0.9503,2238
0.9519666,2267
0.9536333,2107
0.9553,1790
0.9569666,1934
0.9586333,1839
0.9603,1794
0.9619667,1425
0.9636334,1476
0.9653,1300
0.9669667,1398
0.9686334,1449
0.9703,1301
0.9719667,1070
0.9736333,1232
0.9753,913
0.9769667,891
0.9786333,875
0.9803,883
0.9819667,891
0.9836333,766
0.9853,1016
0.9869667,946
0.9886333,981
0.9903,766
0.9919667,836
0.9936333,610
0.9953,776
0.9969667,634
0.9986333,700
1.0003,662
1.001967,595
1.003633,839
1.0053,845
1.006967,762
1.008633,750
1.0103,737
1.011967,736
1.013633,733
1.0153,730
1.016967,797
1.018633,731
1.0203,664
1.021967,747
1.023633,720
1.0253,692
1.026967,824
1.028633,876
1.0303,956
1.031967,757
1.033633,733
1.0353,899
1.036967,952
1.038633,824
1.0403,583
1.041967,883
1.043633,795
1.0453,785
1.046967,784
1.048633,783
1.0503,626
1.051967,898
1.053633,796
1.0553,792
1.056967,710
1.058633,767
1.0603,713
1.061967,572
1.063633,614
1.0653,656
1.066967,650
1.068633,644
1.0703,743
1.071967,763
1.073633,750
1.0753,749
1.076967,748
1.078633,722
1.0803,803
1.081967,796
1.083633,788
1.0853,775
1.086967,762
1.088633,809
1.0903,636
1.091967,749
1.093633,773
1.0953,762
1.096967,752
1.098633,738
1.1003,693
1.101967,774
1.103633,640
1.1053,559
1.106967,723
1.108633,654
1.1103,585
1.111967,659
1.113633,675
1.1153,691
1.116967,674
1.118633,948
1.1203,952
1.121967,976
1.123633,894
1.1253,735
1.126967,847
1.128633,881
1.1303,887
1.131967,779
1.133633,923
1.1353,846
1.136967,814
1.138633,846
1.1403,879
1.141967,776
1.143633,748
1.1453,838
1.146967,981
1.148633,1051
1.1503,720
1.151967,966
1.153633,1063
1.1553,886
1.156967,954
1.158633,727
1.1603,834
1.161967,942
1.163633,839
1.1653,877
1.166967,913
1.168633,915
1.1703,937
1.171967,959
1.173633,979
1.1753,998
1.176967,975
1.178633,951
1.1803,1009
1.181967,965
1.183633,1141
1.1853,1098
1.186967,926
1.188633,1037
1.1903,1038
1.191967,1111
1.193633,892
1.1953,1263
1.196967,1151
1.198633,849
