"SampleName","A2Rd2_01-21"
"Target Mass 1",
"Column Name","IA-3 (3um, 4.6X100)"
"Channel","QDa 1: SIR Ch2"
0.00195,455
0.003616667,727
0.005283333,761
0.00695,767
0.008616666,836
0.01028333,844
0.01195,852
0.01361667,838
0.01528333,824
0.01695,835
0.01861667,846
0.02028333,878
0.02195,904
0.02361667,986
0.02528333,1026
0.02695,1024
0.02861667,1006
0.03028333,1001
0.03195,990
0.03361667,955
0.03528333,979
0.03695,1001
0.03861667,1001
0.04028333,1002
0.04195,940
0.04361667,923
0.04528333,930
0.04695,916
0.04861667,856
0.05028334,822
0.05195,787
0.05361667,862
0.05528333,869
0.05695,876
0.05861667,890
0.06028333,987
0.06195,953
0.06361666,918
0.06528334,913
0.06695,908
0.06861667,856
0.07028333,861
0.07195,1013
0.07361667,967
0.07528333,922
0.07695,763
0.07861666,1045
0.08028334,913
0.08195,1085
0.08361667,997
0.08528333,852
0.08695,926
0.08861667,860
0.09028333,769
0.09195,873
0.09361666,950
0.09528334,993
0.09695,959
0.09861667,1057
0.1002833,1077
0.10195,989
0.1036167,966
0.1052833,785
0.10695,703
0.1086167,1023
0.1102833,887
0.11195,985
0.1136167,932
0.1152833,932
0.11695,932
0.1186167,992
0.1202833,826
0.12195,844
0.1236167,916
0.1252833,914
0.12695,937
0.1286167,798
0.1302833,793
0.13195,947
0.1336167,945
0.1352833,907
0.13695,869
0.1386167,780
0.1402833,855
0.14195,929
0.1436167,946
0.1452833,777
0.14695,847
0.1486167,916
0.1502833,883
0.15195,851
0.1536167,850
0.1552833,998
0.15695,1007
0.1586167,920
0.1602833,963
0.16195,1028
0.1636167,894
0.1652833,969
0.16695,1081
0.1686167,948
0.1702833,940
0.17195,938
0.1736167,810
0.1752833,876
0.17695,835
0.1786167,861
0.1802833,887
0.18195,844
0.1836167,897
0.1852833,849
0.18695,908
0.1886167,833
0.1902833,802
0.19195,826
0.1936167,850
0.1952833,893
0.19695,936
0.1986167,886
0.2002833,836
0.20195,1008
0.2036167,1029
0.2052833,1054
0.20695,920
0.2086167,925
0.2102833,967
0.21195,956
0.2136167,905
0.2152833,910
0.21695,985
0.2186167,975
0.2202833,966
0.22195,1030
0.2236167,1095
0.2252833,1111
0.22695,1210
0.2286167,1111
0.2302833,1013
0.23195,1360
0.2336167,1335
0.2352833,1196
0.23695,981
0.2386167,1078
0.2402833,1292
0.2419667,1309
0.2436167,1394
0.2453,1172
0.24695,1240
0.2486167,895
0.2502833,1091
0.25195,1067
0.2536167,1074
0.2552833,1080
0.25695,1116
0.2586167,1151
0.2602833,1186
0.26195,1197
0.2636333,1173
0.2652833,989
0.26695,1145
0.2686167,1053
0.2703,1120
0.27195,1080
0.2736167,1069
0.2752833,1024
0.27695,989
0.2786167,954
0.2803,885
0.28195,1142
0.2836167,1072
0.2852833,1067
0.28695,1041
0.2886167,1067
0.2902833,1093
0.2919667,1063
0.2936167,1034
0.2952833,1006
0.29695,978
0.2986333,1055
0.3002833,1055
0.30195,1222
0.3036167,1175
0.3052833,1054
0.30695,1182
0.3086167,1251
0.3103,1056
0.31195,955
0.3136167,1384
0.3153,1220
0.31695,1327
0.3186167,1126
0.3203,1034
0.3219667,1300
0.3236167,1159
0.3252833,1186
0.32695,1285
0.3286333,1300
0.3302833,1315
0.33195,1300
0.3336333,1284
0.3352833,1311
0.3369667,1339
0.3386333,1333
0.3402833,1385
0.3419667,1436
0.3436167,1465
0.3452833,1365
0.34695,1402
0.3486333,1460
0.3503,1403
0.3519667,1345
0.3536333,1452
0.3553,1289
0.3569667,1200
0.3586333,1318
0.3602833,1454
0.3619667,1622
0.3636167,2356
0.3653,4463
0.3669667,4991
0.3686333,5936
0.3703,6099
0.3719667,5554
0.3736167,5285
0.3753,4026
0.37695,2683
0.3786333,2425
0.3802833,1888
0.3819667,1480
0.3836333,1390
0.3853,1307
0.3869667,1088
0.3886333,892
0.3903,801
0.3919667,706
0.3936333,596
0.3952833,755
0.3969667,902
0.3986167,860
0.4003,761
0.4019667,894
0.4036333,907
0.4053,705
0.4069667,929
0.4086333,808
0.4103,691
0.4119667,787
0.4136333,645
0.4153,627
0.4169667,559
0.4186333,697
0.4203,713
0.4219667,764
0.4236333,815
0.4253,874
0.4269667,873
0.4286333,925
0.4303,1060
0.4319667,1042
0.4336333,885
0.4353,980
0.4369667,1027
0.4386333,1166
0.4403,1068
0.4419667,969
0.4436333,902
0.4453,1124
0.4469667,1179
0.4486333,1195
0.4503,1226
0.4519667,1164
0.4536333,1229
0.4553,1290
0.4569667,928
0.4586333,1257
0.4603,1193
0.4619667,1184
0.4636333,1180
0.4653,1165
0.4669667,1150
0.4686333,1205
0.4703,1378
0.4719667,1334
0.4736333,1290
0.4753,1059
0.4769667,1190
0.4786333,1202
0.4803,1324
0.4819667,1361
0.4836333,1238
0.4853,1013
0.4869667,1131
0.4886333,984
0.4903,1033
0.4919667,1081
0.4936333,944
0.4953,1075
0.4969667,1010
0.4986333,946
0.5003,1126
0.5019667,1105
0.5036333,961
0.5053,933
0.5069667,947
0.5086333,934
0.5103,921
0.5119666,933
0.5136333,1059
0.5153,1032
0.5169666,882
0.5186333,885
0.5203,785
0.5219667,758
0.5236334,731
0.5253,796
0.5269667,860
0.5286334,922
0.5303,936
0.5319667,1009
0.5336334,1003
0.5353,1051
0.5369667,1000
0.5386333,1039
0.5403,993
0.5419667,854
0.5436333,921
0.5453,939
0.5469667,954
0.5486333,815
0.5503,798
0.5519667,793
0.5536333,789
0.5553,787
0.5569667,786
0.5586333,780
0.5603,774
0.5619667,827
0.5636333,881
0.5653,679
0.5669667,859
0.5686333,808
0.5703,824
0.5719666,840
0.5736333,838
0.5753,837
0.5769666,713
0.5786333,927
0.5803,871
0.5819666,994
0.5836333,995
0.5853,1046
0.5869667,1038
0.5886334,873
0.5903,954
0.5919667,1035
0.5936334,888
0.5953,906
0.5969667,924
0.5986333,937
0.6003,825
0.6019667,847
0.6036333,1055
0.6053,1123
0.6069667,861
0.6086333,1022
0.6103,638
0.6119667,900
0.6136333,1103
0.6153,843
0.6169667,925
0.6186333,871
0.6203,769
0.6219667,949
0.6236333,932
0.6253,880
0.6269667,853
0.6286333,667
0.6303,793
0.6319667,680
0.6336333,766
0.6353,851
0.6369666,846
0.6386333,773
0.6403,822
0.6419666,886
0.6436333,831
0.6453,688
0.6469667,937
0.6486334,840
0.6503,791
0.6519667,929
0.6536334,970
0.6553,785
0.6569667,1015
0.6586334,1019
0.6603,850
0.6619667,814
0.6636333,818
0.6653,875
0.6669667,870
0.6686333,877
0.6703,785
0.6719667,792
0.6736333,799
0.6753,799
0.6769667,732
0.6786333,820
0.6803,908
0.6819667,896
0.6836333,879
0.6853,861
0.6869667,797
0.6886333,736
0.6903,808
0.6919667,721
0.6936333,770
0.6953,669
0.6969666,826
0.6986333,765
0.7003,1025
0.7019666,903
0.7036333,781
0.7053,818
0.7069666,868
0.7086333,791
0.7103,868
0.7119667,917
0.7136334,677
0.7153,927
0.7169667,857
0.7186334,829
0.7203,849
0.7219667,861
0.7236333,871
0.7253,880
0.7269667,718
0.7286333,943
0.7303,817
0.7319667,763
0.7336333,954
0.7353,823
0.7369667,891
0.7386333,919
0.7403,869
0.7419667,819
0.7436333,642
0.7453,653
0.7469667,898
0.7486333,833
0.7503,713
0.7519667,883
0.7536333,696
0.7553,776
0.7569667,742
0.7586333,848
0.7603,995
0.7619666,927
0.7636333,859
0.7653,830
0.7669666,769
0.7686333,731
0.7703,694
0.7719667,745
0.7736334,732
0.7753,850
0.7769667,811
0.7786334,604
0.7803,671
0.7819667,768
0.7836334,782
0.7853,694
0.7869667,822
0.7886333,725
0.7903,658
0.7919667,773
0.7936333,704
0.7953,634
0.7969667,842
0.7986333,755
0.8003,669
0.8019667,799
0.8036333,719
0.8053,903
0.8069667,938
0.8086333,965
0.8103,855
0.8119667,848
0.8136333,841
0.8153,854
0.8169667,866
0.8186333,910
0.8203,880
0.8219666,849
0.8236333,937
0.8253,968
0.8269666,949
0.8286333,875
0.8303,755
0.8319666,857
0.8336333,842
0.8353,826
0.8369667,855
0.8386334,796
0.8403,808
0.8419667,820
0.8436334,863
0.8453,906
0.8469667,752
0.8486333,835
0.8503,915
0.8519667,764
0.8536333,854
0.8553,910
0.8569667,899
0.8586333,902
0.8603,905
0.8619667,776
0.8636333,829
0.8653,871
0.8669667,913
0.8686333,739
0.8703,845
0.8719667,753
0.8736333,749
0.8753,616
0.8769667,582
0.8786333,829
0.8803,1118
0.8819667,1195
0.8836333,921
0.8853,1023
0.8869666,1054
0.8886333,1100
0.8903,1014
0.8919666,1128
0.8936333,1173
0.8953,892
0.8969667,893
0.8986334,1193
0.9003,986
0.9019667,1025
0.9036334,1079
0.9053,884
0.9069667,900
0.9086334,956
0.9103,925
0.9119667,1080
0.9136333,1039
0.9153,900
0.9169667,1052
0.9186333,1254
0.9203,1165
0.9219667,924
0.9236333,899
0.9253,1009
0.9269667,943
0.9286333,1129
0.9303,1118
0.9319667,1026
0.9336333,1092
0.9353,935
0.9369667,989
0.9386333,1034
0.9403,1124
0.9419667,1179
0.9436333,1089
0.9453,1020
0.9469666,869
0.9486333,1148
0.9503,1089
0.9519666,1043
0.9536333,770
0.9553,1046
0.9569666,970
0.9586333,837
0.9603,826
0.9619667,814
0.9636334,853
0.9653,891
0.9669667,852
0.9686334,814
0.9703,812
0.9719667,827
0.9736333,842
0.9753,931
0.9769667,665
0.9786333,980
0.9803,842
0.9819667,667
0.9836333,894
0.9853,668
0.9869667,762
0.9886333,740
0.9903,642
0.9919667,783
0.9936333,760
0.9953,789
0.9969667,818
0.9986333,864
1.0003,917
1.001967,973
1.003633,955
1.0053,999
1.006967,992
1.008633,991
1.0103,989
1.011967,949
1.013633,908
1.0153,899
1.016967,833
1.018633,858
1.0203,883
1.021967,966
1.023633,930
1.0253,811
1.026967,959
1.028633,611
1.0303,1098
1.031967,1129
1.033633,887
1.0353,714
1.036967,944
1.038633,949
1.0403,911
1.041967,903
1.043633,896
1.0453,873
1.046967,851
1.048633,758
1.0503,765
1.051967,1021
1.053633,1130
1.0553,975
1.056967,861
1.058633,902
1.0603,910
1.061967,698
1.063633,711
1.0653,772
1.066967,866
1.068633,999
1.0703,970
1.071967,757
1.073633,951
1.0753,767
1.076967,951
1.078633,1044
1.0803,903
1.081967,1065
1.083633,811
1.0853,926
1.086967,901
1.088633,1036
1.0903,974
1.091967,586
1.093633,893
1.0953,733
1.096967,722
1.098633,711
1.1003,841
1.101967,970
1.103633,1045
1.1053,734
1.106967,988
1.108633,734
1.1103,971
1.111967,965
1.113633,977
1.1153,735
1.116967,811
1.118633,812
1.1203,764
1.121967,717
1.123633,829
1.1253,848
1.126967,917
1.128633,665
1.1303,861
1.131967,875
1.133633,716
1.1353,915
1.136967,907
1.138633,931
1.1403,951
1.141967,722
1.143633,887
1.1453,810
1.146967,853
1.148633,833
1.1503,814
1.151967,889
1.153633,749
1.1553,832
1.156967,757
1.158633,771
1.1603,784
1.161967,776
1.163633,768
1.1653,685
1.166967,724
1.168633,763
1.1703,967
1.171967,899
1.173633,815
1.1753,621
1.176967,807
1.178633,913
1.1803,959
1.181967,801
1.183633,963
1.1853,735
1.186967,832
1.188633,728
1.1903,799
1.191967,808
1.193633,603
1.1953,901
1.196967,920
1.198633,750
