"SampleName","A2Rd2_01-55"
"Target Mass 1",
"Column Name","IA-3 (3um, 4.6X100)"
"Channel","QDa 1: SIR Ch1"
0.00195,447
0.003616667,466
0.005283333,536
0.00695,488
0.008616666,440
0.01028333,544
0.01195,624
0.01361667,687
0.01528333,451
0.01695,707
0.01861667,621
0.02028333,580
0.02195,480
0.02361667,567
0.02528333,630
0.02695,568
0.02861667,542
0.03028333,561
0.03195,470
0.03361667,531
0.03528333,592
0.03695,649
0.03861667,654
0.04028333,641
0.04195,611
0.04361667,581
0.04528333,522
0.04695,457
0.04861667,478
0.05028334,588
0.05195,545
0.05361667,432
0.05528333,597
0.05695,501
0.05861667,488
0.06028333,512
0.06195,537
0.06361666,529
0.06528334,521
0.06695,496
0.06861667,673
0.07028333,658
0.07195,431
0.07361667,575
0.07528333,657
0.07695,525
0.07861666,563
0.08028334,474
0.08195,587
0.08361667,511
0.08528333,483
0.08695,455
0.08861667,475
0.09028333,494
0.09195,481
0.09361666,468
0.09528334,505
0.09695,542
0.09861667,641
0.1002833,604
0.10195,554
0.1036167,592
0.1052833,546
0.10695,545
0.1086167,482
0.1102833,486
0.11195,573
0.1136167,553
0.1152833,547
0.11695,513
0.1186167,479
0.1202833,417
0.12195,617
0.1236167,556
0.1252833,600
0.12695,566
0.1286167,616
0.1302833,482
0.13195,616
0.1336167,629
0.1352833,562
0.13695,515
0.1386167,465
0.1402833,593
0.14195,523
0.1436167,479
0.1452833,455
0.14695,430
0.1486167,570
0.1502833,565
0.15195,560
0.1536167,415
0.1552833,543
0.15695,504
0.1586167,633
0.1602833,587
0.16195,641
0.1636167,493
0.1652833,386
0.16695,521
0.1686167,677
0.1702833,631
0.17195,621
0.1736167,572
0.1752833,603
0.17695,518
0.1786167,365
0.1802833,560
0.18195,625
0.1836167,583
0.1852833,541
0.18695,485
0.1886167,502
0.1902833,543
0.19195,520
0.1936167,498
0.1952833,491
0.19695,485
0.1986167,552
0.2002833,620
0.20195,589
0.2036167,482
0.2052833,627
0.20695,672
0.2086167,639
0.2102833,482
0.21195,480
0.2136167,519
0.2152833,544
0.21695,570
0.2186167,565
0.2202833,560
0.22195,550
0.2236167,564
0.2252833,516
0.22695,461
0.2286167,429
0.2302833,608
0.23195,568
0.2336167,616
0.2352833,500
0.23695,572
0.2386167,410
0.2402833,469
0.24195,527
0.2436167,563
0.2452833,474
0.24695,416
0.2486167,575
0.2502833,622
0.25195,510
0.2536167,440
0.2552833,408
0.25695,577
0.2586167,534
0.2602833,577
0.26195,518
0.2636167,471
0.2652833,586
0.26695,552
0.2686167,518
0.2702833,469
0.27195,448
0.2736167,561
0.2752833,564
0.27695,532
0.2786167,531
0.2802833,549
0.28195,567
0.2836167,635
0.2852833,632
0.28695,664
0.2886167,461
0.2902833,529
0.29195,627
0.2936167,582
0.2952833,578
0.29695,587
0.2986333,596
0.3002833,579
0.30195,561
0.3036167,494
0.3052833,502
0.30695,600
0.3086167,554
0.3102833,509
0.31195,572
0.3136167,475
0.3153,523
0.31695,543
0.3186167,665
0.3202833,691
0.32195,569
0.3236167,646
0.3252833,532
0.32695,524
0.3286167,604
0.3302833,566
0.33195,528
0.3336333,498
0.3352833,609
0.33695,574
0.3386167,592
0.3402833,504
0.34195,481
0.3436167,539
0.3452833,526
0.34695,512
0.3486167,515
0.3503,517
0.35195,530
0.3536167,543
0.3552833,533
0.35695,523
0.3586167,483
0.3602833,632
0.36195,849
0.3636167,973
0.3652833,1186
0.36695,2588
0.3686333,4076
0.3702833,5184
0.37195,5877
0.3736167,6071
0.3753,5941
0.37695,5435
0.3786167,5102
0.3802833,3906
0.38195,3458
0.3836167,2999
0.3853,2581
0.38695,1730
0.3886333,1828
0.3902833,1347
0.39195,964
0.3936333,1264
0.3952833,1028
0.39695,1017
0.3986167,998
0.4002833,1175
0.40195,1419
0.4036333,1527
0.4053,1460
0.4069667,1731
0.4086333,1831
0.4103,1815
0.41195,1921
0.4136167,1931
0.4153,1940
0.4169667,2185
0.4186333,2225
0.4203,2248
0.4219667,2288
0.4236333,2327
0.4252833,2664
0.4269667,3006
0.4286333,3032
0.4303,3330
0.4319667,3729
0.4336333,4693
0.4353,6339
0.4369667,8212
0.4386333,10456
0.4403,13616
0.4419667,18200
0.4436333,22568
0.4453,30604
0.4469667,38240
0.4486333,49344
0.4503,60992
0.4519667,74224
0.4536333,87552
0.4553,105568
0.4569667,123872
0.4586333,140864
0.4603,163456
0.4619667,190720
0.4636333,218240
0.4653,252032
0.4669667,284096
0.4686333,312320
0.4703,344256
0.4719667,369664
0.4736333,379968
0.4753,374784
0.4769667,360640
0.4786333,339456
0.4803,305152
0.4819667,271872
0.4836333,227520
0.4853,190976
0.4869667,151744
0.4886333,123248
0.4903,94640
0.4919667,74320
0.4936333,55296
0.4953,42480
0.4969667,32816
0.4986333,24788
0.5003,18992
0.5019667,16108
0.5036333,14228
0.5053,11788
0.5069667,9720
0.5086333,9048
0.5103,7978
0.5119666,7624
0.5136333,6791
0.5153,5953
0.5169666,5622
0.5186333,5199
0.5203,5053
0.5219667,5287
0.5236334,4389
0.5253,4273
0.5269667,3929
0.5286334,3983
0.5303,4232
0.5319667,4122
0.5336334,3671
0.5353,3778
0.5369667,3346
0.5386333,3660
0.5403,3570
0.5419667,3071
0.5436333,3126
0.5453,2995
0.5469667,2917
0.5486333,2564
0.5503,2625
0.5519667,2652
0.5536333,2546
0.5553,2374
0.5569667,2628
0.5586333,2532
0.5603,1983
0.5619667,2414
0.5636333,2177
0.5653,2234
0.5669667,2056
0.5686333,1896
0.5703,1875
0.5719666,2010
0.5736333,1973
0.5753,2004
0.5769666,1823
0.5786333,2011
0.5803,1864
0.5819666,1843
0.5836333,1821
0.5853,2118
0.5869667,2060
0.5886334,1863
0.5903,1865
0.5919667,1897
0.5936334,1888
0.5953,1879
0.5969667,1793
0.5986333,1857
0.6003,1921
0.6019667,1901
0.6036333,1881
0.6053,1902
0.6069667,1923
0.6086333,1733
0.6103,1846
0.6119667,1723
0.6136333,1663
0.6153,1719
0.6169667,1775
0.6186333,1782
0.6203,1635
0.6219667,1609
0.6236333,1576
0.6253,1641
0.6269667,1683
0.6286333,1457
0.6303,1525
0.6319667,1291
0.6336333,1349
0.6353,1399
0.6369666,1413
0.6386333,1364
0.6403,1316
0.6419666,1111
0.6436333,1234
0.6453,1291
0.6469667,1225
0.6486334,1078
0.6503,947
0.6519667,1279
0.6536334,1274
0.6553,1169
0.6569667,1291
0.6586334,969
0.6603,1323
0.6619667,1287
0.6636333,1309
0.6653,1152
0.6669667,1333
0.6686333,1060
0.6703,1035
0.6719667,900
0.6736333,977
0.6753,1177
0.6769667,1114
0.6786333,1126
0.6803,1157
0.6819667,975
0.6836333,844
0.6853,1149
0.6869667,977
0.6886333,984
0.6903,920
0.6919667,957
0.6936333,995
0.6953,1192
0.6969666,1162
0.6986333,979
0.7003,1214
0.7019666,1048
0.7036333,916
0.7053,955
0.7069666,1066
0.7086333,1095
0.7103,1088
0.7119667,984
0.7136334,988
0.7153,889
0.7169667,1024
0.7186334,878
0.7203,750
0.7219667,1144
0.7236333,999
0.7253,863
0.7269667,1051
0.7286333,1043
0.7303,973
0.7319667,903
0.7336333,898
0.7353,999
0.7369667,962
0.7386333,993
0.7403,950
0.7419667,907
0.7436333,896
0.7453,884
0.7469667,810
0.7486333,849
0.7503,860
0.7519667,904
0.7536333,905
0.7553,906
0.7569667,983
0.7586333,1009
0.7603,999
0.7619666,931
0.7636333,937
0.7653,1025
0.7669666,1009
0.7686333,872
0.7703,790
0.7719667,898
0.7736334,872
0.7753,695
0.7769667,772
0.7786334,806
0.7803,840
0.7819667,808
0.7836334,804
0.7853,800
0.7869667,795
0.7886333,851
0.7903,906
0.7919667,944
0.7936333,809
0.7953,857
0.7969667,904
0.7986333,926
0.8003,876
0.8019667,922
0.8036333,911
0.8053,901
0.8069667,924
0.8086333,677
0.8103,791
0.8119667,756
0.8136333,852
0.8153,796
0.8169667,739
0.8186333,795
0.8203,831
0.8219666,866
0.8236333,802
0.8253,902
0.8269666,868
0.8286333,821
0.8303,899
0.8319666,932
0.8336333,872
0.8353,891
0.8369667,698
0.8386334,903
0.8403,862
0.8419667,592
0.8436334,747
0.8453,971
0.8469667,835
0.8486333,826
0.8503,971
0.8519667,702
0.8536333,647
0.8553,675
0.8569667,727
0.8586333,681
0.8603,635
0.8619667,644
0.8636333,652
0.8653,1114
0.8669667,1128
0.8686333,1648
0.8703,1828
0.8719667,2177
0.8736333,2269
0.8753,2812
0.8769667,3046
0.8786333,3603
0.8803,3234
0.8819667,3300
0.8836333,3168
0.8853,3018
0.8869666,3258
0.8886333,3398
0.8903,2941
0.8919666,2806
0.8936333,3153
0.8953,3072
0.8969667,3072
0.8986334,3008
0.9003,2942
0.9019667,2993
0.9036334,3248
0.9053,3222
0.9069667,3003
0.9086334,2968
0.9103,3236
0.9119667,3225
0.9136333,2931
0.9153,3125
0.9169667,2905
0.9186333,2902
0.9203,2899
0.9219667,3006
0.9236333,2961
0.9253,2916
0.9269667,2865
0.9286333,2768
0.9303,2480
0.9319667,2966
0.9336333,2443
0.9353,2657
0.9369667,2783
0.9386333,2131
0.9403,2345
0.9419667,2172
0.9436333,1783
0.9453,1940
0.9469666,1970
0.9486333,2087
0.9503,1616
0.9519666,1882
0.9536333,1474
0.9553,1696
0.9569666,1297
0.9586333,1206
0.9603,1579
0.9619667,1301
0.9636334,886
0.9653,1071
0.9669667,1159
0.9686334,1043
0.9703,1011
0.9719667,1057
0.9736333,868
0.9753,844
0.9769667,725
0.9786333,843
0.9803,908
0.9819667,781
0.9836333,554
0.9853,903
0.9869667,634
0.9886333,675
0.9903,700
0.9919667,629
0.9936333,557
0.9953,594
0.9969667,605
0.9986333,688
1.0003,664
1.001967,609
1.003633,553
1.0053,614
1.006967,666
1.008633,513
1.0103,561
1.011967,698
1.013633,591
1.0153,559
1.016967,622
1.018633,662
1.0203,644
1.021967,626
1.023633,620
1.0253,593
1.026967,597
1.028633,600
1.0303,633
1.031967,547
1.033633,604
1.0353,661
1.036967,603
1.038633,709
1.0403,717
1.041967,546
1.043633,773
1.0453,598
1.046967,614
1.048633,719
1.0503,672
1.051967,487
1.053633,676
1.0553,648
1.056967,618
1.058633,589
1.0603,647
1.061967,705
1.063633,472
1.0653,606
1.066967,656
1.068633,722
1.0703,653
1.071967,584
1.073633,619
1.0753,650
1.076967,542
1.078633,640
1.0803,683
1.081967,624
1.083633,546
1.0853,550
1.086967,535
1.088633,681
1.0903,686
1.091967,692
1.093633,628
1.0953,741
1.096967,766
1.098633,606
1.1003,723
1.101967,680
1.103633,639
1.1053,659
1.106967,644
1.108633,726
1.1103,771
1.111967,730
1.113633,622
1.1153,612
1.116967,567
1.118633,618
1.1203,612
1.121967,642
1.123633,653
1.1253,664
1.126967,464
1.128633,543
1.1303,510
1.131967,617
1.133633,686
1.1353,709
1.136967,631
1.138633,685
1.1403,491
1.141967,554
1.143633,577
1.1453,686
1.146967,647
1.148633,632
1.1503,616
1.151967,654
1.153633,593
1.1553,629
1.156967,612
1.158633,595
1.1603,692
1.161967,714
1.163633,771
1.1653,685
1.166967,591
1.168633,610
1.1703,574
1.171967,554
1.173633,715
1.1753,720
1.176967,668
1.178633,648
1.1803,629
1.181967,617
1.183633,558
1.1853,498
1.186967,606
1.188633,614
1.1903,644
1.191967,622
1.193633,543
1.1953,580
1.196967,579
1.198633,407
