"SampleName","A2Rd2_01-18"
"Target Mass 1",
"Column Name","IA-3 (3um, 4.6X100)"
"Channel","QDa 1: SIR Ch1"
0.00195,316
0.003616667,454
0.005283333,638
0.00695,618
0.008616666,561
0.01028333,706
0.01195,450
0.01361667,552
0.01528333,659
0.01695,525
0.01861667,562
0.02028333,650
0.02195,616
0.02361667,768
0.02528333,712
0.02695,480
0.02861667,487
0.03028333,378
0.03195,558
0.03361667,527
0.03528333,496
0.03695,487
0.03861667,477
0.04028333,449
0.04195,420
0.04361667,462
0.04528333,506
0.04695,667
0.04861667,726
0.05028334,578
0.05195,604
0.05361667,462
0.05528333,488
0.05695,516
0.05861667,404
0.06028333,585
0.06195,538
0.06361666,450
0.06528334,482
0.06695,593
0.06861667,337
0.07028333,548
0.07195,398
0.07361667,461
0.07528333,539
0.07695,476
0.07861666,475
0.08028334,473
0.08195,508
0.08361667,476
0.08528333,443
0.08695,407
0.08861667,446
0.09028333,485
0.09195,503
0.09361666,480
0.09528334,457
0.09695,498
0.09861667,424
0.1002833,470
0.10195,521
0.1036167,587
0.1052833,563
0.10695,501
0.1086167,440
0.1102833,456
0.11195,472
0.1136167,469
0.1152833,466
0.11695,500
0.1186167,535
0.1202833,540
0.12195,451
0.1236167,420
0.1252833,495
0.12695,473
0.1286167,406
0.1302833,532
0.13195,486
0.1336167,391
0.1352833,369
0.13695,576
0.1386167,564
0.1402833,658
0.14195,517
0.1436167,428
0.1452833,552
0.14695,429
0.1486167,540
0.1502833,520
0.15195,526
0.1536167,507
0.1552833,488
0.15695,494
0.1586167,400
0.1602833,369
0.16195,338
0.1636167,417
0.1652833,466
0.16695,445
0.1686167,446
0.1702833,448
0.17195,474
0.1736167,538
0.1752833,592
0.17695,571
0.1786167,483
0.1802833,508
0.18195,537
0.1836167,423
0.1852833,438
0.18695,445
0.1886167,452
0.1902833,543
0.19195,526
0.1936167,515
0.1952833,556
0.19695,404
0.1986167,556
0.2002833,504
0.20195,567
0.2036167,530
0.2052833,511
0.20695,477
0.2086167,454
0.2102833,548
0.21195,590
0.2136167,533
0.2152833,600
0.21695,506
0.2186167,378
0.2202833,406
0.22195,433
0.2236167,371
0.2252833,422
0.22695,474
0.2286167,483
0.2302833,509
0.23195,476
0.2336167,494
0.2352833,502
0.23695,507
0.2386167,511
0.2402833,513
0.24195,652
0.2436167,620
0.2452833,519
0.24695,581
0.2486167,575
0.2502833,571
0.25195,528
0.2536167,466
0.2552833,598
0.25695,533
0.2586167,468
0.2602833,484
0.26195,464
0.2636167,478
0.2652833,399
0.26695,568
0.2686167,670
0.2703,565
0.2719667,632
0.2736333,491
0.2752833,481
0.27695,554
0.2786167,503
0.2803,501
0.28195,410
0.2836167,470
0.2852833,460
0.28695,504
0.2886167,547
0.2902833,586
0.29195,538
0.2936167,435
0.2952833,553
0.29695,414
0.2986333,472
0.3002833,530
0.30195,507
0.3036167,465
0.3052833,422
0.30695,544
0.3086167,484
0.3102833,296
0.31195,467
0.3136167,636
0.3153,556
0.31695,567
0.3186167,534
0.3203,579
0.32195,463
0.3236167,508
0.3252833,471
0.32695,513
0.3286167,554
0.3302833,543
0.33195,533
0.3336333,512
0.3352833,530
0.33695,466
0.3386167,478
0.3402833,528
0.34195,504
0.3436167,481
0.3452833,526
0.34695,495
0.3486167,465
0.3503,552
0.35195,566
0.3536167,579
0.3552833,677
0.3569667,651
0.3586167,661
0.3602833,700
0.36195,1097
0.3636167,1702
0.3653,3380
0.3669667,5248
0.3686333,6389
0.3703,5709
0.3719667,5986
0.3736167,4668
0.3752833,4301
0.37695,3959
0.3786167,3521
0.3802833,3281
0.38195,2789
0.3836333,2198
0.3853,1883
0.38695,1704
0.3886333,1518
0.3902833,1564
0.3919667,1485
0.3936167,1508
0.3953,1532
0.39695,1618
0.3986333,2359
0.4003,2238
0.4019667,2264
0.4036333,2493
0.4053,2691
0.4069667,2676
0.4086167,2151
0.4103,2785
0.4119667,2472
0.4136167,2772
0.4153,2456
0.4169667,2121
0.4186333,2323
0.4203,2176
0.4219667,2249
0.4236333,2322
0.4253,2359
0.4269667,2335
0.4286333,2014
0.4303,2503
0.4319667,1988
0.4336333,2101
0.4353,2019
0.4369667,2059
0.4386333,1978
0.4403,2128
0.4419667,2288
0.4436333,3284
0.4453,4706
0.4469667,6187
0.4486333,9168
0.4503,13536
0.4519667,20964
0.4536333,30756
0.4553,50624
0.4569667,75280
0.4586333,113504
0.4603,156544
0.4619667,213120
0.4636333,272384
0.4653,335872
0.4669667,383360
0.4686333,433984
0.4703,461312
0.4719667,460544
0.4736333,440320
0.4753,407040
0.4769667,358080
0.4786333,305664
0.4803,254336
0.4819667,199168
0.4836333,162240
0.4853,123248
0.4869667,100112
0.4886333,80208
0.4903,63440
0.4919667,49664
0.4936333,40720
0.4953,34784
0.4969667,27660
0.4986333,24156
0.5003,19556
0.5019667,17184
0.5036333,15028
0.5053,12568
0.5069667,11028
0.5086333,8916
0.5103,8428
0.5119666,7549
0.5136333,6896
0.5153,6298
0.5169666,5670
0.5186333,5188
0.5203,5039
0.5219667,5252
0.5236334,5253
0.5253,4559
0.5269667,4083
0.5286334,4377
0.5303,3811
0.5319667,3974
0.5336334,3913
0.5353,3809
0.5369667,3685
0.5386333,3468
0.5403,3222
0.5419667,3323
0.5436333,2713
0.5453,3133
0.5469667,2844
0.5486333,2731
0.5503,2669
0.5519667,2677
0.5536333,2639
0.5553,2601
0.5569667,2505
0.5586333,2213
0.5603,2234
0.5619667,2237
0.5636333,2245
0.5653,2020
0.5669667,1929
0.5686333,2080
0.5703,1910
0.5719666,1972
0.5736333,2033
0.5753,1936
0.5769666,1970
0.5786333,1921
0.5803,1991
0.5819666,1997
0.5836333,1864
0.5853,1730
0.5869667,1950
0.5886334,1839
0.5903,1728
0.5919667,1860
0.5936334,1822
0.5953,1784
0.5969667,1952
0.5986333,1917
0.6003,1733
0.6019667,1707
0.6036333,1682
0.6053,1534
0.6069667,1603
0.6086333,1671
0.6103,1711
0.6119667,1751
0.6136333,1676
0.6153,1602
0.6169667,1753
0.6186333,1480
0.6203,1792
0.6219667,1480
0.6236333,1797
0.6253,1824
0.6269667,1555
0.6286333,1593
0.6303,1500
0.6319667,1435
0.6336333,1567
0.6353,1552
0.6369666,1358
0.6386333,1132
0.6403,1280
0.6419666,1071
0.6436333,1151
0.6453,1231
0.6469667,1205
0.6486334,1178
0.6503,1126
0.6519667,1087
0.6536334,1205
0.6553,1127
0.6569667,1048
0.6586334,1130
0.6603,1084
0.6619667,1039
0.6636333,1115
0.6653,1068
0.6669667,925
0.6686333,1185
0.6703,901
0.6719667,1137
0.6736333,1171
0.6753,1006
0.6769667,1145
0.6786333,1012
0.6803,939
0.6819667,986
0.6836333,896
0.6853,965
0.6869667,951
0.6886333,936
0.6903,954
0.6919667,938
0.6936333,921
0.6953,997
0.6969666,974
0.6986333,951
0.7003,953
0.7019666,957
0.7036333,960
0.7053,987
0.7069666,1014
0.7086333,797
0.7103,941
0.7119667,1026
0.7136334,1059
0.7153,911
0.7169667,1143
0.7186334,904
0.7203,1014
0.7219667,1011
0.7236333,925
0.7253,922
0.7269667,906
0.7286333,643
0.7303,885
0.7319667,921
0.7336333,1011
0.7353,883
0.7369667,855
0.7386333,976
0.7403,990
0.7419667,1004
0.7436333,980
0.7453,1018
0.7469667,1000
0.7486333,982
0.7503,810
0.7519667,906
0.7536333,1003
0.7553,1021
0.7569667,857
0.7586333,960
0.7603,967
0.7619666,975
0.7636333,1038
0.7653,981
0.7669666,923
0.7686333,951
0.7703,946
0.7719667,942
0.7736334,865
0.7753,939
0.7769667,981
0.7786334,845
0.7803,1037
0.7819667,867
0.7836334,978
0.7853,878
0.7869667,939
0.7886333,924
0.7903,908
0.7919667,943
0.7936333,942
0.7953,941
0.7969667,883
0.7986333,801
0.8003,794
0.8019667,787
0.8036333,953
0.8053,990
0.8069667,891
0.8086333,780
0.8103,858
0.8119667,955
0.8136333,1020
0.8153,956
0.8169667,834
0.8186333,863
0.8203,857
0.8219666,909
0.8236333,872
0.8253,834
0.8269666,904
0.8286333,752
0.8303,754
0.8319666,940
0.8336333,955
0.8353,963
0.8369667,957
0.8386334,862
0.8403,955
0.8419667,941
0.8436334,758
0.8453,903
0.8469667,1004
0.8486333,833
0.8503,807
0.8519667,752
0.8536333,833
0.8553,863
0.8569667,780
0.8586333,722
0.8603,791
0.8619667,814
0.8636333,837
0.8653,1094
0.8669667,1166
0.8686333,1638
0.8703,2317
0.8719667,2352
0.8736333,3094
0.8753,3444
0.8769667,4094
0.8786333,4061
0.8803,4298
0.8819667,4194
0.8836333,3813
0.8853,3774
0.8869666,4090
0.8886333,3798
0.8903,3831
0.8919666,3797
0.8936333,3712
0.8953,3626
0.8969667,3756
0.8986334,3838
0.9003,3920
0.9019667,3802
0.9036334,3802
0.9053,3802
0.9069667,3748
0.9086334,4130
0.9103,4024
0.9119667,3918
0.9136333,3954
0.9153,3989
0.9169667,4105
0.9186333,3642
0.9203,4116
0.9219667,3605
0.9236333,3621
0.9253,3656
0.9269667,3626
0.9286333,3606
0.9303,3321
0.9319667,3512
0.9336333,3207
0.9353,3167
0.9369667,2886
0.9386333,3279
0.9403,2989
0.9419667,2812
0.9436333,2737
0.9453,2601
0.9469666,2396
0.9486333,1937
0.9503,2203
0.9519666,1981
0.9536333,2085
0.9553,1733
0.9569666,1795
0.9586333,1558
0.9603,1670
0.9619667,1495
0.9636334,1301
0.9653,1329
0.9669667,1428
0.9686334,1139
0.9703,996
0.9719667,1019
0.9736333,954
0.9753,911
0.9769667,811
0.9786333,779
0.9803,836
0.9819667,842
0.9836333,792
0.9853,827
0.9869667,793
0.9886333,759
0.9903,688
0.9919667,670
0.9936333,575
0.9953,611
0.9969667,670
0.9986333,641
1.0003,612
1.001967,622
1.003633,632
1.0053,633
1.006967,635
1.008633,617
1.0103,668
1.011967,642
1.013633,617
1.0153,717
1.016967,528
1.018633,711
1.0203,758
1.021967,696
1.023633,584
1.0253,824
1.026967,662
1.028633,779
1.0303,779
1.031967,449
1.033633,745
1.0353,512
1.036967,745
1.038633,696
1.0403,853
1.041967,553
1.043633,638
1.0453,686
1.046967,710
1.048633,651
1.0503,593
1.051967,670
1.053633,664
1.0553,659
1.056967,625
1.058633,630
1.0603,581
1.061967,657
1.063633,665
1.0653,673
1.066967,651
1.068633,630
1.0703,614
1.071967,598
1.073633,589
1.0753,587
1.076967,751
1.078633,732
1.0803,725
1.081967,700
1.083633,706
1.0853,600
1.086967,556
1.088633,720
1.0903,715
1.091967,798
1.093633,607
1.0953,802
1.096967,650
1.098633,755
1.1003,644
1.101967,755
1.103633,643
1.1053,654
1.106967,674
1.108633,664
1.1103,654
1.111967,492
1.113633,603
1.1153,635
1.116967,710
1.118633,588
1.1203,587
1.121967,662
1.123633,663
1.1253,625
1.126967,694
1.128633,594
1.1303,555
1.131967,781
1.133633,761
1.1353,742
1.136967,594
1.138633,655
1.1403,636
1.141967,671
1.143633,706
1.1453,674
1.146967,642
1.148633,671
1.1503,727
1.151967,783
1.153633,804
1.1553,596
1.156967,608
1.158633,774
1.1603,849
1.161967,813
1.163633,884
1.1653,581
1.166967,778
1.168633,692
1.1703,679
1.171967,666
1.173633,718
1.1753,820
1.176967,795
1.178633,663
1.1803,572
1.181967,845
1.183633,885
1.1853,791
1.186967,856
1.188633,821
1.1903,796
1.191967,696
1.193633,730
1.1953,782
1.196967,739
1.198633,726
