"SampleName","A2Rd2_01-20"
"Target Mass 1",
"Column Name","IA-3 (3um, 4.6X100)"
"Channel","QDa 1: SIR Ch2"
0.00195,684
0.003616667,669
0.005283333,635
0.00695,652
0.008616666,670
0.01028333,921
0.01195,985
0.01361667,963
0.01528333,843
0.01695,849
0.01861667,1061
0.02028333,1039
0.02195,909
0.02361667,1137
0.02528333,904
0.02695,892
0.02861667,825
0.03028333,1017
0.03195,980
0.03361667,782
0.03528333,998
0.03695,893
0.03861667,787
0.04028333,963
0.04195,881
0.04361667,741
0.04528333,811
0.04695,912
0.04861667,882
0.05028334,852
0.05195,891
0.05361667,930
0.05528333,919
0.05695,742
0.05861667,1045
0.06028333,1056
0.06195,1027
0.06361666,915
0.06528334,1016
0.06695,906
0.06861667,934
0.07028333,704
0.07195,941
0.07361667,975
0.07528333,874
0.07695,867
0.07861666,820
0.08028334,923
0.08195,880
0.08361667,836
0.08528333,963
0.08695,680
0.08861667,811
0.09028333,950
0.09195,938
0.09361666,749
0.09528334,876
0.09695,905
0.09861667,593
0.1002833,1032
0.10195,792
0.1036167,952
0.1052833,786
0.10695,991
0.1086167,989
0.1102833,934
0.11195,737
0.1136167,936
0.1152833,1006
0.11695,893
0.1186167,839
0.1202833,765
0.12195,887
0.1236167,775
0.1252833,800
0.12695,830
0.1286167,822
0.1302833,814
0.13195,928
0.1336167,914
0.1352833,899
0.13695,874
0.1386167,922
0.1402833,966
0.14195,666
0.1436167,897
0.1452833,1023
0.14695,765
0.1486167,830
0.1502833,1007
0.15195,782
0.1536167,864
0.1552833,782
0.15695,854
0.1586167,840
0.1602833,849
0.16195,858
0.1636167,857
0.1652833,857
0.16695,819
0.1686167,805
0.1702833,791
0.17195,828
0.1736167,866
0.1752833,744
0.17695,907
0.1786167,898
0.1802833,853
0.18195,850
0.1836167,858
0.1852833,865
0.18695,828
0.1886167,819
0.1902833,809
0.19195,879
0.1936167,846
0.1952833,812
0.19695,862
0.1986167,840
0.2002833,818
0.20195,1040
0.2036167,1029
0.2052833,855
0.20695,906
0.2086167,1077
0.2102833,991
0.21195,822
0.2136167,927
0.2152833,793
0.21695,1073
0.2186167,1084
0.2202833,1103
0.22195,981
0.2236167,1022
0.2252833,1231
0.22695,1171
0.2286167,1096
0.2302833,1139
0.23195,1138
0.2336167,1136
0.2352833,1205
0.23695,1193
0.2386167,1182
0.2402833,1053
0.24195,1080
0.2436167,1071
0.2452833,960
0.24695,1007
0.2486167,1055
0.2502833,1087
0.25195,971
0.2536167,1085
0.2552833,1127
0.25695,1170
0.2586167,1123
0.2602833,1000
0.26195,1236
0.2636333,1133
0.2652833,950
0.26695,1126
0.2686167,1224
0.2702833,1259
0.27195,1055
0.2736167,855
0.2752833,1258
0.27695,898
0.2786167,996
0.2803,1062
0.28195,1012
0.2836167,1120
0.2852833,807
0.28695,1062
0.2886167,893
0.2902833,943
0.29195,1091
0.2936167,1059
0.2952833,1054
0.29695,1048
0.2986333,1048
0.3002833,997
0.30195,1120
0.3036167,1097
0.3053,1075
0.30695,1101
0.3086167,1065
0.3102833,1060
0.31195,955
0.3136333,1103
0.3153,1063
0.31695,1023
0.3186167,1121
0.3203,1247
0.3219667,1239
0.3236333,1081
0.3253,1041
0.32695,1300
0.3286167,1180
0.3303,1260
0.33195,1242
0.3336333,1224
0.3352833,1280
0.33695,1384
0.3386333,1076
0.3403,1197
0.3419667,1413
0.3436167,1160
0.3452833,1351
0.3469667,1470
0.3486167,1196
0.3503,1220
0.35195,1276
0.3536333,1096
0.3553,1063
0.3569667,1303
0.3586333,1349
0.3603,1372
0.36195,2145
0.3636333,3704
0.3652833,5254
0.3669667,5473
0.3686333,5312
0.3703,4661
0.3719667,3461
0.3736333,3022
0.3753,2343
0.3769667,1691
0.3786167,1297
0.3803,1320
0.38195,1119
0.3836333,824
0.3853,667
0.3869667,607
0.3886333,599
0.3903,529
0.3919667,599
0.3936333,669
0.3953,747
0.3969667,852
0.3986333,979
0.4003,1096
0.4019667,1120
0.4036333,1179
0.4053,1237
0.4069667,1240
0.4086333,1335
0.4103,987
0.4119667,1247
0.4136333,923
0.4153,1055
0.4169667,1057
0.4186333,839
0.4203,891
0.4219667,1053
0.4236333,1111
0.4253,1011
0.4269667,979
0.4286333,946
0.4303,1175
0.4319667,1127
0.4336333,1320
0.4353,1345
0.4369667,1369
0.4386333,1265
0.4403,1398
0.4419667,1411
0.4436333,1443
0.4453,1262
0.4469667,1721
0.4486333,1637
0.4503,1762
0.4519667,1686
0.4536333,1610
0.4553,1665
0.4569667,1648
0.4586333,1616
0.4603,1676
0.4619667,1737
0.4636333,1879
0.4653,1823
0.4669667,1831
0.4686333,1839
0.4703,1523
0.4719667,1730
0.4736333,1733
0.4753,1555
0.4769667,1653
0.4786333,1555
0.4803,1334
0.4819667,1563
0.4836333,1541
0.4853,1390
0.4869667,1548
0.4886333,1296
0.4903,1370
0.4919667,1459
0.4936333,1294
0.4953,1258
0.4969667,1172
0.4986333,1212
0.5003,1103
0.5019667,1236
0.5036333,1191
0.5053,1288
0.5069667,1385
0.5086333,875
0.5103,1068
0.5119666,1200
0.5136333,1024
0.5153,1013
0.5169666,988
0.5186333,1171
0.5203,1109
0.5219667,1047
0.5236334,1084
0.5253,1130
0.5269667,898
0.5286334,1196
0.5303,1065
0.5319667,1437
0.5336334,1300
0.5353,1223
0.5369667,1155
0.5386333,1177
0.5403,1199
0.5419667,1217
0.5436333,1183
0.5453,904
0.5469667,1054
0.5486333,1054
0.5503,1083
0.5519667,992
0.5536333,937
0.5553,895
0.5569667,853
0.5586333,864
0.5603,875
0.5619667,909
0.5636333,1013
0.5653,987
0.5669667,971
0.5686333,954
0.5703,937
0.5719666,951
0.5736333,941
0.5753,931
0.5769666,1062
0.5786333,1050
0.5803,1068
0.5819666,1075
0.5836333,1008
0.5853,942
0.5869667,1115
0.5886334,1182
0.5903,1103
0.5919667,1025
0.5936334,972
0.5953,1098
0.5969667,1120
0.5986333,948
0.6003,1107
0.6019667,991
0.6036333,966
0.6053,887
0.6069667,760
0.6086333,907
0.6103,857
0.6119667,806
0.6136333,841
0.6153,876
0.6169667,1117
0.6186333,1048
0.6203,1209
0.6219667,981
0.6236333,1079
0.6253,797
0.6269667,823
0.6286333,929
0.6303,943
0.6319667,809
0.6336333,1044
0.6353,1104
0.6369666,807
0.6386333,1039
0.6403,1058
0.6419666,935
0.6436333,1069
0.6453,954
0.6469667,866
0.6486334,829
0.6503,858
0.6519667,887
0.6536334,859
0.6553,879
0.6569667,756
0.6586334,715
0.6603,959
0.6619667,906
0.6636333,917
0.6653,860
0.6669667,661
0.6686333,1133
0.6703,1092
0.6719667,846
0.6736333,951
0.6753,972
0.6769667,1034
0.6786333,928
0.6803,1001
0.6819667,823
0.6836333,930
0.6853,921
0.6869667,1022
0.6886333,1005
0.6903,1013
0.6919667,719
0.6936333,864
0.6953,1028
0.6969666,925
0.6986333,934
0.7003,814
0.7019666,865
0.7036333,970
0.7053,905
0.7069666,880
0.7086333,856
0.7103,816
0.7119667,777
0.7136334,968
0.7153,967
0.7169667,965
0.7186334,1082
0.7203,732
0.7219667,1090
0.7236333,981
0.7253,1208
0.7269667,1044
0.7286333,1166
0.7303,829
0.7319667,878
0.7336333,1041
0.7353,844
0.7369667,694
0.7386333,888
0.7403,904
0.7419667,920
0.7436333,776
0.7453,717
0.7469667,963
0.7486333,742
0.7503,868
0.7519667,884
0.7536333,874
0.7553,865
0.7569667,772
0.7586333,923
0.7603,777
0.7619666,574
0.7636333,792
0.7653,781
0.7669666,770
0.7686333,708
0.7703,803
0.7719667,771
0.7736334,864
0.7753,812
0.7769667,754
0.7786334,695
0.7803,783
0.7819667,795
0.7836334,806
0.7853,944
0.7869667,905
0.7886333,823
0.7903,841
0.7919667,989
0.7936333,979
0.7953,806
0.7969667,1054
0.7986333,789
0.8003,986
0.8019667,953
0.8036333,1138
0.8053,1076
0.8069667,976
0.8086333,828
0.8103,961
0.8119667,745
0.8136333,942
0.8153,1040
0.8169667,1000
0.8186333,1019
0.8203,1039
0.8219666,1035
0.8236333,1038
0.8253,1249
0.8269666,1229
0.8286333,979
0.8303,1120
0.8319666,1103
0.8336333,798
0.8353,921
0.8369667,871
0.8386334,938
0.8403,866
0.8419667,819
0.8436334,974
0.8453,745
0.8469667,1007
0.8486333,1052
0.8503,796
0.8519667,853
0.8536333,889
0.8553,934
0.8569667,911
0.8586333,872
0.8603,845
0.8619667,848
0.8636333,971
0.8653,1013
0.8669667,1144
0.8686333,1301
0.8703,1351
0.8719667,1283
0.8736333,1214
0.8753,1564
0.8769667,1489
0.8786333,1271
0.8803,1128
0.8819667,1058
0.8836333,1347
0.8853,1346
0.8869666,1237
0.8886333,1316
0.8903,1395
0.8919666,1220
0.8936333,1240
0.8953,1256
0.8969667,1063
0.8986334,1110
0.9003,1105
0.9019667,1101
0.9036334,1180
0.9053,1260
0.9069667,1424
0.9086334,1495
0.9103,1479
0.9119667,1360
0.9136333,1390
0.9153,1357
0.9169667,1541
0.9186333,1519
0.9203,1498
0.9219667,1484
0.9236333,1415
0.9253,1383
0.9269667,1416
0.9286333,1363
0.9303,1268
0.9319667,1270
0.9336333,1412
0.9353,1215
0.9369667,1266
0.9386333,1357
0.9403,1319
0.9419667,1277
0.9436333,1235
0.9453,1297
0.9469666,1353
0.9486333,1352
0.9503,1187
0.9519666,1067
0.9536333,1176
0.9553,1185
0.9569666,981
0.9586333,1141
0.9603,1119
0.9619667,1053
0.9636334,1083
0.9653,1088
0.9669667,962
0.9686334,1003
0.9703,1030
0.9719667,1056
0.9736333,990
0.9753,1023
0.9769667,940
0.9786333,956
0.9803,878
0.9819667,980
0.9836333,834
0.9853,911
0.9869667,896
0.9886333,812
0.9903,847
0.9919667,863
0.9936333,878
0.9953,979
0.9969667,989
0.9986333,999
1.0003,1034
1.001967,1060
1.003633,1051
1.0053,1148
1.006967,1159
1.008633,1021
1.0103,1088
1.011967,1164
1.013633,887
1.0153,1052
1.016967,1235
1.018633,909
1.0203,950
1.021967,744
1.023633,1029
1.0253,1002
1.026967,932
1.028633,992
1.0303,905
1.031967,910
1.033633,916
1.0353,910
1.036967,905
1.038633,895
1.0403,886
1.041967,866
1.043633,825
1.0453,784
1.046967,898
1.048633,893
1.0503,888
1.051967,861
1.053633,835
1.0553,854
1.056967,829
1.058633,804
1.0603,826
1.061967,849
1.063633,917
1.0653,894
1.066967,948
1.068633,1090
1.0703,699
1.071967,1011
1.073633,877
1.0753,878
1.076967,1001
1.078633,778
1.0803,832
1.081967,886
1.083633,741
1.0853,831
1.086967,825
1.088633,819
1.0903,754
1.091967,899
1.093633,851
1.0953,949
1.096967,783
1.098633,973
1.1003,793
1.101967,855
1.103633,771
1.1053,866
1.106967,726
1.108633,805
1.1103,884
1.111967,766
1.113633,835
1.1153,903
1.116967,761
1.118633,917
1.1203,939
1.121967,621
1.123633,829
1.1253,747
1.126967,978
1.128633,998
1.1303,1036
1.131967,1021
1.133633,725
1.1353,846
1.136967,868
1.138633,898
1.1403,857
1.141967,869
1.143633,786
1.1453,888
1.146967,952
1.148633,638
1.1503,799
1.151967,837
1.153633,895
1.1553,685
1.156967,917
1.158633,859
1.1603,931
1.161967,1042
1.163633,731
1.1653,844
1.166967,784
1.168633,687
1.1703,835
1.171967,730
1.173633,740
1.1753,750
1.176967,776
1.178633,802
1.1803,814
1.181967,769
1.183633,758
1.1853,776
1.186967,795
1.188633,726
1.1903,667
1.191967,608
1.193633,797
1.1953,764
1.196967,877
1.198633,834
