"SampleName","A2Rd2_01-32"
"Target Mass 1",
"Column Name","IA-3 (3um, 4.6X100)"
"Channel","QDa 1: SIR Ch1"
0.00195,493
0.003616667,422
0.005283333,736
0.00695,502
0.008616666,535
0.01028333,679
0.01195,678
0.01361667,615
0.01528333,560
0.01695,593
0.01861667,687
0.02028333,601
0.02195,515
0.02361667,735
0.02528333,602
0.02695,582
0.02861667,568
0.03028333,566
0.03195,515
0.03361667,571
0.03528333,609
0.03695,584
0.03861667,559
0.04028333,667
0.04195,709
0.04361667,539
0.04528333,494
0.04695,745
0.04861667,589
0.05028334,601
0.05195,558
0.05361667,639
0.05528333,641
0.05695,497
0.05861667,560
0.06028333,545
0.06195,508
0.06361666,574
0.06528334,553
0.06695,558
0.06861667,563
0.07028333,537
0.07195,652
0.07361667,639
0.07528333,626
0.07695,672
0.07861666,569
0.08028334,514
0.08195,717
0.08361667,565
0.08528333,439
0.08695,595
0.08861667,491
0.09028333,526
0.09195,535
0.09361666,511
0.09528334,487
0.09695,709
0.09861667,685
0.1002833,528
0.10195,653
0.1036167,591
0.1052833,560
0.10695,579
0.1086167,552
0.1102833,525
0.11195,572
0.1136167,495
0.1152833,492
0.11695,459
0.1186167,653
0.1202833,632
0.12195,473
0.1236167,582
0.1252833,572
0.12695,493
0.1286167,520
0.1302833,492
0.13195,569
0.1336167,646
0.1352833,406
0.13695,444
0.1386167,608
0.1402833,605
0.14195,558
0.1436167,589
0.1452833,621
0.14695,574
0.1486167,553
0.1502833,547
0.15195,496
0.1536167,581
0.1552833,557
0.15695,588
0.1586167,576
0.1602833,565
0.16195,563
0.1636167,582
0.1652833,563
0.16695,545
0.1686167,560
0.1702833,564
0.17195,585
0.1736167,549
0.1752833,513
0.17695,581
0.1786167,616
0.1802833,657
0.18195,491
0.1836167,454
0.1852833,502
0.18695,535
0.1886167,568
0.1902833,502
0.19195,507
0.1936167,490
0.1952833,498
0.19695,507
0.1986167,480
0.2002833,453
0.20195,585
0.2036167,641
0.2052833,553
0.20695,549
0.2086167,423
0.2102833,577
0.21195,568
0.2136167,612
0.2152833,601
0.21695,447
0.2186167,558
0.2202833,535
0.22195,474
0.2236167,519
0.2252833,552
0.22695,526
0.2286167,589
0.2302833,615
0.23195,573
0.2336167,503
0.2352833,649
0.23695,558
0.2386167,536
0.2402833,513
0.24195,511
0.2436167,510
0.2452833,487
0.24695,464
0.2486167,465
0.2502833,466
0.25195,408
0.2536167,351
0.2552833,438
0.25695,508
0.2586167,594
0.2602833,501
0.26195,537
0.2636333,627
0.2652833,541
0.2669667,678
0.2686167,455
0.2702833,511
0.27195,607
0.2736167,581
0.2752833,588
0.27695,508
0.2786167,500
0.2803,616
0.28195,546
0.2836167,602
0.2852833,654
0.28695,486
0.2886167,349
0.2902833,669
0.29195,579
0.2936167,479
0.2952833,513
0.2969667,597
0.2986333,555
0.3002833,589
0.30195,696
0.3036167,583
0.3052833,469
0.30695,683
0.3086167,613
0.3102833,693
0.31195,670
0.3136167,649
0.3153,649
0.3169667,585
0.3186167,544
0.3202833,521
0.32195,544
0.3236167,566
0.3252833,650
0.32695,644
0.3286167,578
0.3303,472
0.33195,649
0.3336333,640
0.3352833,608
0.33695,667
0.3386167,508
0.3402833,544
0.34195,542
0.3436167,615
0.3452833,410
0.3469667,636
0.3486333,558
0.3503,538
0.35195,479
0.3536333,515
0.3552833,550
0.35695,460
0.3586167,524
0.3602833,790
0.36195,800
0.3636333,1181
0.3653,2272
0.3669667,4986
0.3686333,6531
0.3703,8736
0.3719667,8596
0.3736333,7532
0.3752833,6759
0.37695,5394
0.3786167,4176
0.3803,3617
0.3819667,2827
0.3836167,2137
0.3853,1636
0.38695,1672
0.3886333,1340
0.3902833,1271
0.3919667,1316
0.3936333,1142
0.3952833,1051
0.3969667,1184
0.3986333,1165
0.4003,1512
0.40195,1720
0.4036333,1639
0.4053,1906
0.4069667,2031
0.4086333,2066
0.4103,1641
0.41195,1831
0.4136333,1705
0.4153,2053
0.4169667,2020
0.4186333,1894
0.4203,1706
0.4219667,1586
0.4236333,1525
0.4253,1725
0.4269667,1672
0.4286333,1461
0.4303,1520
0.4319667,1763
0.4336333,2175
0.4353,2681
0.4369667,3425
0.4386333,4823
0.4403,5865
0.4419667,8124
0.4436333,11000
0.4453,15468
0.4469667,20460
0.4486333,27320
0.4503,34432
0.4519667,46464
0.4536333,59760
0.4553,79408
0.4569667,101584
0.4586333,130128
0.4603,163520
0.4619667,203456
0.4636333,239936
0.4653,283584
0.4669667,324032
0.4686333,361472
0.4703,379904
0.4719667,392960
0.4736333,384576
0.4753,361664
0.4769667,334720
0.4786333,294336
0.4803,246784
0.4819667,202176
0.4836333,166144
0.4853,132032
0.4869667,100944
0.4886333,78960
0.4903,62784
0.4919667,46928
0.4936333,38336
0.4953,30140
0.4969667,25212
0.4986333,19820
0.5003,17860
0.5019667,15020
0.5036333,13884
0.5053,11612
0.5069667,9444
0.5086333,9348
0.5103,8196
0.5119666,6534
0.5136333,6729
0.5153,6443
0.5169666,5943
0.5186333,5261
0.5203,5003
0.5219667,5185
0.5236334,4686
0.5253,4271
0.5269667,3925
0.5286334,4144
0.5303,3630
0.5319667,3704
0.5336334,3362
0.5353,3426
0.5369667,3344
0.5386333,3611
0.5403,3073
0.5419667,3140
0.5436333,2712
0.5453,2855
0.5469667,2707
0.5486333,2611
0.5503,2508
0.5519667,2426
0.5536333,2177
0.5553,2060
0.5569667,2302
0.5586333,2222
0.5603,2203
0.5619667,1907
0.5636333,2060
0.5653,2130
0.5669667,2172
0.5686333,2028
0.5703,1933
0.5719666,1839
0.5736333,1881
0.5753,1895
0.5769666,1910
0.5786333,1812
0.5803,1932
0.5819666,1888
0.5836333,1801
0.5853,1994
0.5869667,2003
0.5886334,1661
0.5903,2040
0.5919667,2220
0.5936334,1727
0.5953,1970
0.5969667,2115
0.5986333,1774
0.6003,1940
0.6019667,1824
0.6036333,1785
0.6053,1747
0.6069667,1805
0.6086333,1863
0.6103,1802
0.6119667,1741
0.6136333,1878
0.6153,1861
0.6169667,1661
0.6186333,1431
0.6203,1625
0.6219667,1616
0.6236333,1450
0.6253,1413
0.6269667,1518
0.6286333,1551
0.6303,1528
0.6319667,1266
0.6336333,1212
0.6353,1383
0.6369666,1258
0.6386333,1216
0.6403,1346
0.6419666,1126
0.6436333,1429
0.6453,1280
0.6469667,1358
0.6486334,1322
0.6503,1327
0.6519667,1333
0.6536334,1290
0.6553,1247
0.6569667,925
0.6586334,1240
0.6603,1082
0.6619667,1307
0.6636333,1363
0.6653,1183
0.6669667,1164
0.6686333,1175
0.6703,1090
0.6719667,1005
0.6736333,1212
0.6753,1142
0.6769667,1073
0.6786333,1104
0.6803,1118
0.6819667,1131
0.6836333,1005
0.6853,1045
0.6869667,1085
0.6886333,1302
0.6903,1406
0.6919667,1204
0.6936333,1242
0.6953,1041
0.6969666,1139
0.6986333,1237
0.7003,958
0.7019666,1272
0.7036333,1230
0.7053,1127
0.7069666,1037
0.7086333,1180
0.7103,998
0.7119667,1072
0.7136334,1147
0.7153,1075
0.7169667,1181
0.7186334,869
0.7203,1138
0.7219667,1050
0.7236333,1249
0.7253,1164
0.7269667,1252
0.7286333,1170
0.7303,1153
0.7319667,1181
0.7336333,1168
0.7353,1156
0.7369667,1199
0.7386333,1053
0.7403,1102
0.7419667,1195
0.7436333,1122
0.7453,1048
0.7469667,1121
0.7486333,1194
0.7503,1210
0.7519667,1226
0.7536333,1208
0.7553,1110
0.7569667,1196
0.7586333,1151
0.7603,1167
0.7619666,1244
0.7636333,1237
0.7653,1229
0.7669666,1019
0.7686333,1145
0.7703,1013
0.7719667,1031
0.7736334,1050
0.7753,955
0.7769667,1005
0.7786334,1054
0.7803,1242
0.7819667,1221
0.7836334,1095
0.7853,982
0.7869667,1277
0.7886333,1385
0.7903,1138
0.7919667,1058
0.7936333,1109
0.7953,1179
0.7969667,1201
0.7986333,1174
0.8003,1147
0.8019667,1047
0.8036333,1156
0.8053,1311
0.8069667,1256
0.8086333,1284
0.8103,1206
0.8119667,1245
0.8136333,1228
0.8153,1150
0.8169667,1138
0.8186333,1010
0.8203,882
0.8219666,1323
0.8236333,1268
0.8253,1354
0.8269666,1282
0.8286333,1311
0.8303,1199
0.8319666,1351
0.8336333,1314
0.8353,1236
0.8369667,1326
0.8386334,1284
0.8403,1193
0.8419667,1272
0.8436334,1137
0.8453,1105
0.8469667,1072
0.8486333,1277
0.8503,1227
0.8519667,1162
0.8536333,1250
0.8553,1137
0.8569667,1246
0.8586333,1022
0.8603,1220
0.8619667,1325
0.8636333,1613
0.8653,1948
0.8669667,2867
0.8686333,3346
0.8703,3813
0.8719667,4522
0.8736333,4852
0.8753,4978
0.8769667,4809
0.8786333,4887
0.8803,4452
0.8819667,4922
0.8836333,4527
0.8853,4786
0.8869666,4292
0.8886333,4656
0.8903,4152
0.8919666,4431
0.8936333,4481
0.8953,4258
0.8969667,4328
0.8986334,4232
0.9003,4225
0.9019667,4218
0.9036334,4498
0.9053,4627
0.9069667,4568
0.9086334,4295
0.9103,4066
0.9119667,4465
0.9136333,4675
0.9153,4610
0.9169667,4563
0.9186333,4562
0.9203,4654
0.9219667,4443
0.9236333,4234
0.9253,4318
0.9269667,4046
0.9286333,4400
0.9303,3751
0.9319667,3890
0.9336333,4001
0.9353,3511
0.9369667,3593
0.9386333,3271
0.9403,3214
0.9419667,3274
0.9436333,3376
0.9453,2748
0.9469666,2627
0.9486333,2252
0.9503,2423
0.9519666,2155
0.9536333,2256
0.9553,2356
0.9569666,2089
0.9586333,2259
0.9603,1754
0.9619667,1837
0.9636334,1523
0.9653,1740
0.9669667,1618
0.9686334,1528
0.9703,1150
0.9719667,1112
0.9736333,952
0.9753,1178
0.9769667,943
0.9786333,975
0.9803,956
0.9819667,975
0.9836333,977
0.9853,979
0.9869667,844
0.9886333,870
0.9903,868
0.9919667,814
0.9936333,824
0.9953,646
0.9969667,665
0.9986333,717
1.0003,834
1.001967,864
1.003633,928
1.0053,783
1.006967,907
1.008633,766
1.0103,639
1.011967,913
1.013633,766
1.0153,657
1.016967,929
1.018633,513
1.0203,753
1.021967,1007
1.023633,669
1.0253,921
1.026967,756
1.028633,805
1.0303,714
1.031967,755
1.033633,693
1.0353,709
1.036967,724
1.038633,744
1.0403,786
1.041967,663
1.043633,724
1.0453,608
1.046967,732
1.048633,773
1.0503,717
1.051967,661
1.053633,761
1.0553,816
1.056967,897
1.058633,833
1.0603,853
1.061967,940
1.063633,716
1.0653,830
1.066967,856
1.068633,801
1.0703,869
1.071967,767
1.073633,586
1.0753,834
1.076967,952
1.078633,791
1.0803,844
1.081967,712
1.083633,907
1.0853,803
1.086967,790
1.088633,776
1.0903,726
1.091967,733
1.093633,745
1.0953,808
1.096967,809
1.098633,897
1.1003,947
1.101967,727
1.103633,840
1.1053,907
1.106967,810
1.108633,923
1.1103,889
1.111967,670
1.113633,891
1.1153,761
1.116967,892
1.118633,848
1.1203,772
1.121967,691
1.123633,673
1.1253,721
1.126967,770
1.128633,950
1.1303,963
1.131967,847
1.133633,833
1.1353,914
1.136967,712
1.138633,719
1.1403,710
1.141967,736
1.143633,821
1.1453,906
1.146967,841
1.148633,709
1.1503,920
1.151967,767
1.153633,936
1.1553,1028
1.156967,856
1.158633,905
1.1603,954
1.161967,1013
1.163633,991
1.1653,970
1.166967,1025
1.168633,991
1.1703,957
1.171967,1063
1.173633,1108
1.1753,1139
1.176967,1005
1.178633,1070
1.1803,993
1.181967,1166
1.183633,1141
1.1853,1115
1.186967,1209
1.188633,974
1.1903,1077
1.191967,1096
1.193633,1064
1.1953,1088
1.196967,1070
1.198633,967
