"SampleName","A2Rd2_01-69"
"Target Mass 1",
"Column Name","IA-3 (3um, 4.6X100)"
"Channel","QDa 1: SIR Ch2"
0.00195,502
0.003616667,892
0.005283333,786
0.00695,605
0.008616666,830
0.01028333,1137
0.01195,1043
0.01361667,875
0.01528333,888
0.01695,931
0.01861667,762
0.02028333,890
0.02195,976
0.02361667,893
0.02528333,1009
0.02695,1008
0.02861667,957
0.03028333,1120
0.03195,1100
0.03361667,1087
0.03528333,895
0.03695,1158
0.03861667,1115
0.04028333,1022
0.04195,881
0.04361667,892
0.04528333,992
0.04695,1065
0.04861667,716
0.05028334,880
0.05195,970
0.05361667,852
0.05528333,982
0.05695,794
0.05861667,813
0.06028333,832
0.06195,822
0.06361666,812
0.06528334,864
0.06695,862
0.06861667,859
0.07028333,891
0.07195,923
0.07361667,815
0.07528333,800
0.07695,873
0.07861666,806
0.08028334,740
0.08195,754
0.08361667,772
0.08528333,744
0.08695,716
0.08861667,867
0.09028333,1117
0.09195,1070
0.09361666,868
0.09528334,923
0.09695,762
0.09861667,862
0.1002833,973
0.10195,824
0.1036167,896
0.1052833,883
0.10695,870
0.1086167,857
0.1102833,841
0.11195,909
0.1136167,760
0.1152833,895
0.11695,969
0.1186167,817
0.1202833,850
0.12195,841
0.1236167,758
0.1252833,824
0.12695,708
0.1286167,742
0.1302833,851
0.13195,779
0.1336167,782
0.1352833,785
0.13695,1064
0.1386167,1006
0.1402833,946
0.14195,1005
0.1436167,697
0.1452833,706
0.14695,809
0.1486167,904
0.1502833,934
0.15195,784
0.1536167,873
0.1552833,1029
0.15695,999
0.1586167,978
0.1602833,690
0.16195,770
0.1636167,900
0.1652833,791
0.16695,682
0.1686167,676
0.1702833,817
0.17195,847
0.1736167,876
0.1752833,731
0.17695,712
0.1786167,694
0.1802833,723
0.18195,753
0.1836167,759
0.1852833,765
0.18695,775
0.1886167,785
0.1902833,823
0.19195,950
0.1936167,937
0.1952833,924
0.19695,868
0.1986167,931
0.2002833,935
0.20195,931
0.2036167,917
0.2052833,902
0.20695,995
0.2086167,808
0.2102833,1090
0.21195,964
0.2136167,905
0.2152833,1340
0.21695,1267
0.2186167,1051
0.2202833,1038
0.22195,983
0.2236167,1134
0.2252833,1151
0.22695,1188
0.2286167,1207
0.2302833,1167
0.23195,1127
0.2336167,1124
0.2352833,1278
0.23695,1269
0.2386167,1299
0.2402833,1279
0.24195,1258
0.2436167,1231
0.2452833,1190
0.24695,1243
0.2486167,1110
0.2502833,1387
0.25195,1428
0.2536167,1247
0.2552833,1224
0.25695,1296
0.2586167,1289
0.2602833,1353
0.26195,1357
0.2636167,1265
0.2652833,1259
0.26695,1208
0.2686167,1089
0.2702833,1106
0.27195,966
0.2736167,1167
0.2752833,1126
0.27695,1116
0.2786167,1094
0.2803,937
0.28195,1139
0.2836167,1171
0.2852833,1232
0.28695,1293
0.2886167,1056
0.2902833,956
0.29195,1088
0.2936167,1021
0.2952833,955
0.29695,971
0.2986333,991
0.3002833,1011
0.30195,1090
0.3036167,1072
0.3052833,1024
0.30695,1182
0.3086167,1147
0.3102833,1208
0.31195,1206
0.3136167,1203
0.3153,1394
0.3169667,1369
0.3186167,1271
0.3202833,1273
0.32195,1105
0.3236167,1085
0.3252833,1211
0.32695,1171
0.3286167,1131
0.3302833,898
0.33195,1280
0.3336333,1390
0.3352833,1324
0.33695,1417
0.3386167,1519
0.3402833,1209
0.34195,1181
0.3436167,1152
0.3452833,1167
0.34695,1182
0.3486167,1482
0.3503,1402
0.35195,1290
0.3536167,1277
0.3553,1264
0.35695,1465
0.3586167,1560
0.3602833,1635
0.36195,1572
0.3636333,1550
0.3652833,3288
0.3669667,3698
0.3686333,4705
0.3702833,4643
0.3719667,5293
0.3736167,5187
0.3752833,4387
0.37695,4176
0.3786333,3927
0.3803,3331
0.38195,2387
0.3836167,2344
0.3853,1831
0.38695,1432
0.3886167,1368
0.3902833,1306
0.39195,955
0.3936333,831
0.3952833,685
0.3969667,657
0.3986167,598
0.4002833,529
0.4019667,652
0.4036333,475
0.4053,652
0.4069667,634
0.4086333,616
0.4103,868
0.4119667,823
0.4136333,654
0.4153,812
0.4169667,662
0.4186333,716
0.4203,712
0.4219667,680
0.4236333,750
0.4253,830
0.4269667,870
0.4286333,723
0.4303,802
0.4319667,934
0.4336333,1106
0.4353,1036
0.4369667,877
0.4386333,1095
0.4403,1178
0.4419667,1123
0.4436333,1012
0.4453,1132
0.4469667,1174
0.4486333,1170
0.4503,1167
0.4519667,1175
0.4536333,1184
0.4553,1459
0.4569667,1616
0.4586333,1438
0.4603,1402
0.4619667,1552
0.4636333,1392
0.4653,1807
0.4669667,1727
0.4686333,1947
0.4703,1630
0.4719667,1651
0.4736333,1623
0.4753,1633
0.4769667,1637
0.4786333,1640
0.4803,1532
0.4819667,1728
0.4836333,1386
0.4853,1148
0.4869667,1279
0.4886333,1303
0.4903,1313
0.4919667,1287
0.4936333,1143
0.4953,1090
0.4969667,851
0.4986333,1110
0.5003,1096
0.5019667,1197
0.5036333,1114
0.5053,965
0.5069667,954
0.5086333,1109
0.5103,1087
0.5119666,968
0.5136333,1113
0.5153,941
0.5169666,1025
0.5186333,941
0.5203,1026
0.5219667,1013
0.5236334,1000
0.5253,859
0.5269667,927
0.5286334,929
0.5303,931
0.5319667,824
0.5336334,875
0.5353,934
0.5369667,906
0.5386333,836
0.5403,811
0.5419667,786
0.5436333,871
0.5453,962
0.5469667,954
0.5486333,972
0.5503,951
0.5519667,1004
0.5536333,772
0.5553,944
0.5569667,1068
0.5586333,828
0.5603,807
0.5619667,882
0.5636333,884
0.5653,882
0.5669667,892
0.5686333,902
0.5703,784
0.5719666,747
0.5736333,750
0.5753,767
0.5769666,785
0.5786333,835
0.5803,925
0.5819666,882
0.5836333,942
0.5853,925
0.5869667,938
0.5886334,1012
0.5903,1056
0.5919667,1078
0.5936334,980
0.5953,1038
0.5969667,898
0.5986333,1009
0.6003,842
0.6019667,941
0.6036333,999
0.6053,763
0.6069667,947
0.6086333,803
0.6103,818
0.6119667,904
0.6136333,943
0.6153,907
0.6169667,936
0.6186333,964
0.6203,854
0.6219667,970
0.6236333,899
0.6253,908
0.6269667,917
0.6286333,908
0.6303,899
0.6319667,650
0.6336333,882
0.6353,924
0.6369666,812
0.6386333,806
0.6403,832
0.6419666,884
0.6436333,834
0.6453,785
0.6469667,797
0.6486334,839
0.6503,881
0.6519667,863
0.6536334,808
0.6553,998
0.6569667,1003
0.6586334,778
0.6603,767
0.6619667,1083
0.6636333,1013
0.6653,722
0.6669667,709
0.6686333,887
0.6703,732
0.6719667,888
0.6736333,720
0.6753,871
0.6769667,762
0.6786333,909
0.6803,955
0.6819667,911
0.6836333,962
0.6853,772
0.6869667,925
0.6886333,696
0.6903,653
0.6919667,775
0.6936333,766
0.6953,757
0.6969666,743
0.6986333,729
0.7003,881
0.7019666,903
0.7036333,931
0.7053,960
0.7069666,933
0.7086333,906
0.7103,767
0.7119667,738
0.7136334,740
0.7153,743
0.7169667,797
0.7186334,852
0.7203,881
0.7219667,750
0.7236333,743
0.7253,857
0.7269667,793
0.7286333,899
0.7303,863
0.7319667,876
0.7336333,737
0.7353,862
0.7369667,769
0.7386333,685
0.7403,713
0.7419667,741
0.7436333,702
0.7453,810
0.7469667,886
0.7486333,852
0.7503,905
0.7519667,806
0.7536333,907
0.7553,756
0.7569667,957
0.7586333,1018
0.7603,752
0.7619666,783
0.7636333,819
0.7653,795
0.7669666,755
0.7686333,672
0.7703,867
0.7719667,843
0.7736334,837
0.7753,871
0.7769667,737
0.7786334,817
0.7803,959
0.7819667,1026
0.7836334,877
0.7853,871
0.7869667,876
0.7886333,898
0.7903,919
0.7919667,807
0.7936333,850
0.7953,821
0.7969667,928
0.7986333,895
0.8003,833
0.8019667,771
0.8036333,770
0.8053,709
0.8069667,724
0.8086333,738
0.8103,735
0.8119667,571
0.8136333,789
0.8153,710
0.8169667,806
0.8186333,711
0.8203,742
0.8219666,754
0.8236333,766
0.8253,749
0.8269666,731
0.8286333,871
0.8303,878
0.8319666,970
0.8336333,755
0.8353,768
0.8369667,1053
0.8386334,673
0.8403,750
0.8419667,767
0.8436334,809
0.8453,850
0.8469667,789
0.8486333,727
0.8503,755
0.8519667,784
0.8536333,649
0.8553,697
0.8569667,744
0.8586333,766
0.8603,788
0.8619667,784
0.8636333,810
0.8653,806
0.8669667,802
0.8686333,908
0.8703,919
0.8719667,824
0.8736333,777
0.8753,746
0.8769667,715
0.8786333,709
0.8803,957
0.8819667,1078
0.8836333,1089
0.8853,1045
0.8869666,1216
0.8886333,1234
0.8903,1255
0.8919666,1275
0.8936333,1141
0.8953,1266
0.8969667,1107
0.8986334,1128
0.9003,1238
0.9019667,1247
0.9036334,1023
0.9053,1285
0.9069667,1134
0.9086334,1180
0.9103,1226
0.9119667,1092
0.9136333,1266
0.9153,1099
0.9169667,1182
0.9186333,1157
0.9203,1097
0.9219667,1038
0.9236333,1024
0.9253,1010
0.9269667,1306
0.9286333,1398
0.9303,1321
0.9319667,1412
0.9336333,1235
0.9353,1513
0.9369667,1175
0.9386333,1086
0.9403,1268
0.9419667,1167
0.9436333,1298
0.9453,1229
0.9469666,1159
0.9486333,1147
0.9503,1135
0.9519666,936
0.9536333,1249
0.9553,1077
0.9569666,1213
0.9586333,962
0.9603,1227
0.9619667,1106
0.9636334,1164
0.9653,967
0.9669667,962
0.9686334,984
0.9703,874
0.9719667,936
0.9736333,892
0.9753,922
0.9769667,897
0.9786333,856
0.9803,878
0.9819667,852
0.9836333,844
0.9853,1021
0.9869667,993
0.9886333,907
0.9903,865
0.9919667,695
0.9936333,753
0.9953,761
0.9969667,780
0.9986333,658
1.0003,833
1.001967,804
1.003633,775
1.0053,816
1.006967,857
1.008633,820
1.0103,783
1.011967,895
1.013633,903
1.0153,942
1.016967,967
1.018633,870
1.0203,880
1.021967,997
1.023633,873
1.0253,879
1.026967,978
1.028633,937
1.0303,975
1.031967,1013
1.033633,802
1.0353,1033
1.036967,1003
1.038633,893
1.0403,870
1.041967,887
1.043633,903
1.0453,901
1.046967,843
1.048633,772
1.0503,905
1.051967,835
1.053633,844
1.0553,854
1.056967,948
1.058633,1020
1.0603,954
1.061967,941
1.063633,897
1.0653,875
1.066967,857
1.068633,932
1.0703,930
1.071967,884
1.073633,786
1.0753,743
1.076967,826
1.078633,785
1.0803,743
1.081967,794
1.083633,771
1.0853,749
1.086967,836
1.088633,697
1.0903,851
1.091967,710
1.093633,773
1.0953,781
1.096967,1026
1.098633,1054
1.1003,743
1.101967,860
1.103633,717
1.1053,761
1.106967,1049
1.108633,965
1.1103,941
1.111967,1063
1.113633,950
1.1153,754
1.116967,743
1.118633,895
1.1203,656
1.121967,734
1.123633,757
1.1253,821
1.126967,790
1.128633,750
1.1303,732
1.131967,711
1.133633,691
1.1353,804
1.136967,785
1.138633,746
1.1403,717
1.141967,773
1.143633,829
1.1453,794
1.146967,758
1.148633,812
1.1503,802
1.151967,902
1.153633,927
1.1553,983
1.156967,813
1.158633,1043
1.1603,834
1.161967,816
1.163633,781
1.1653,739
1.166967,855
1.168633,774
1.1703,693
1.171967,790
1.173633,726
1.1753,744
1.176967,762
1.178633,705
1.1803,821
1.181967,789
1.183633,819
1.1853,849
1.186967,841
1.188633,832
1.1903,983
1.191967,1019
1.193633,820
1.1953,804
1.196967,726
1.198633,835
