"SampleName","A2Rd2_01-5"
"Target Mass 1",
"Column Name","IA-3 (3um, 4.6X100)"
"Channel","QDa 1: SIR Ch1"
0.00195,346
0.003616667,560
0.005283333,494
0.00695,634
0.008616666,605
0.01028333,617
0.01195,600
0.01361667,415
0.01528333,512
0.01695,409
0.01861667,507
0.02028333,406
0.02195,399
0.02361667,444
0.02528333,464
0.02695,484
0.02861667,396
0.03028333,460
0.03195,548
0.03361667,504
0.03528333,459
0.03695,519
0.03861667,534
0.04028333,382
0.04195,433
0.04361667,483
0.04528333,517
0.04695,452
0.04861667,547
0.05028334,542
0.05195,503
0.05361667,475
0.05528333,484
0.05695,476
0.05861667,468
0.06028333,471
0.06195,474
0.06361666,456
0.06528334,439
0.06695,451
0.06861667,422
0.07028333,427
0.07195,432
0.07361667,572
0.07528333,559
0.07695,480
0.07861666,552
0.08028334,496
0.08195,543
0.08361667,521
0.08528333,490
0.08695,383
0.08861667,475
0.09028333,538
0.09195,519
0.09361666,491
0.09528334,410
0.09695,467
0.09861667,523
0.1002833,498
0.10195,410
0.1036167,510
0.1052833,640
0.10695,622
0.1086167,427
0.1102833,452
0.11195,511
0.1136167,370
0.1152833,570
0.11695,602
0.1186167,355
0.1202833,432
0.12195,493
0.1236167,408
0.1252833,464
0.12695,523
0.1286167,333
0.1302833,560
0.13195,556
0.1336167,544
0.1352833,403
0.13695,521
0.1386167,536
0.1402833,537
0.14195,421
0.1436167,569
0.1452833,490
0.14695,523
0.1486167,474
0.1502833,546
0.15195,363
0.1536167,495
0.1552833,423
0.15695,453
0.1586167,509
0.1602833,445
0.16195,391
0.1636167,534
0.1652833,508
0.16695,482
0.1686167,520
0.1702833,490
0.17195,460
0.1736167,442
0.1752833,425
0.17695,380
0.1786167,437
0.1802833,461
0.18195,485
0.1836167,464
0.1852833,520
0.18695,512
0.1886167,593
0.1902833,575
0.19195,505
0.1936167,516
0.1952833,525
0.19695,482
0.1986167,490
0.2002833,453
0.20195,447
0.2036167,443
0.2052833,439
0.20695,428
0.2086167,312
0.2102833,437
0.21195,376
0.2136167,520
0.2152833,508
0.21695,580
0.2186167,424
0.2202833,515
0.22195,530
0.2236167,542
0.2252833,506
0.22695,486
0.2286167,517
0.2302833,532
0.23195,484
0.2336167,533
0.2352833,465
0.23695,523
0.2386167,536
0.2402833,435
0.24195,516
0.2436167,479
0.2452833,533
0.24695,541
0.2486167,425
0.2502833,454
0.25195,513
0.2536167,536
0.2552833,334
0.25695,445
0.2586167,445
0.2602833,516
0.26195,577
0.2636333,534
0.2652833,458
0.26695,401
0.2686167,422
0.2702833,451
0.27195,443
0.2736167,435
0.2752833,434
0.27695,488
0.2786167,445
0.2803,402
0.28195,536
0.2836167,556
0.2852833,518
0.28695,473
0.2886167,490
0.2902833,409
0.2919667,508
0.2936167,554
0.2952833,637
0.29695,323
0.2986333,689
0.3002833,524
0.30195,470
0.3036333,555
0.3052833,554
0.30695,554
0.3086167,582
0.3102833,570
0.3119667,559
0.3136167,569
0.3153,579
0.31695,431
0.3186167,563
0.3202833,463
0.3219667,617
0.3236167,516
0.3252833,562
0.32695,446
0.3286167,515
0.3302833,599
0.33195,456
0.3336333,474
0.3352833,492
0.3369667,611
0.3386167,687
0.3403,646
0.3419667,565
0.3436333,624
0.3453,523
0.3469667,607
0.3486333,671
0.3503,637
0.3519667,426
0.3536167,648
0.3553,564
0.3569667,592
0.3586167,684
0.3603,738
0.36195,2001
0.3636167,5027
0.3652833,8668
0.36695,9544
0.3686333,8688
0.3703,6904
0.3719667,6172
0.3736333,5383
0.3752833,4749
0.3769667,4339
0.3786167,3905
0.3802833,4082
0.38195,3055
0.3836167,2809
0.3853,2490
0.38695,2493
0.3886333,2127
0.3903,2119
0.3919667,2007
0.3936333,2106
0.3953,2036
0.3969667,1990
0.3986167,1945
0.4002833,2021
0.4019667,1955
0.4036333,1890
0.4053,2026
0.4069667,1872
0.4086333,1598
0.4103,1691
0.4119667,1819
0.4136333,1753
0.4153,1345
0.4169667,1315
0.4186333,1505
0.4203,1181
0.4219667,1116
0.4236333,1449
0.4253,1182
0.4269667,1037
0.4286333,1082
0.4303,1277
0.4319667,1183
0.4336333,948
0.4353,1066
0.4369667,1122
0.4386333,1155
0.4403,1294
0.4419667,1267
0.4436333,2183
0.4453,3723
0.4469667,6320
0.4486333,12872
0.4503,22840
0.4519667,40608
0.4536333,67168
0.4553,102752
0.4569667,148352
0.4586333,196544
0.4603,261312
0.4619667,320448
0.4636333,363072
0.4653,413824
0.4669667,450944
0.4686333,470208
0.4703,470080
0.4719667,462592
0.4736333,431168
0.4753,392576
0.4769667,345472
0.4786333,303168
0.4803,260800
0.4819667,216640
0.4836333,183040
0.4853,152896
0.4869667,127888
0.4886333,105088
0.4903,88272
0.4919667,74544
0.4936333,65216
0.4953,54608
0.4969667,45504
0.4986333,39024
0.5003,34256
0.5019667,28700
0.5036333,24536
0.5053,21992
0.5069667,17452
0.5086333,15604
0.5103,13952
0.5119666,12312
0.5136333,10244
0.5153,8972
0.5169666,8308
0.5186333,7920
0.5203,7090
0.5219667,7111
0.5236334,5638
0.5253,5665
0.5269667,5456
0.5286334,5310
0.5303,4991
0.5319667,4384
0.5336334,4153
0.5353,4897
0.5369667,4079
0.5386333,4055
0.5403,3744
0.5419667,4069
0.5436333,3801
0.5453,3440
0.5469667,3502
0.5486333,3345
0.5503,2970
0.5519667,3111
0.5536333,2658
0.5553,2703
0.5569667,2995
0.5586333,2376
0.5603,2532
0.5619667,2553
0.5636333,2338
0.5653,2144
0.5669667,2335
0.5686333,2200
0.5703,2242
0.5719666,2170
0.5736333,2208
0.5753,1734
0.5769666,1771
0.5786333,2164
0.5803,1924
0.5819666,2189
0.5836333,1904
0.5853,2037
0.5869667,2385
0.5886334,2204
0.5903,2339
0.5919667,1893
0.5936334,2035
0.5953,2054
0.5969667,1749
0.5986333,1887
0.6003,1938
0.6019667,1822
0.6036333,1708
0.6053,1772
0.6069667,1695
0.6086333,1604
0.6103,1753
0.6119667,1817
0.6136333,1808
0.6153,1656
0.6169667,1685
0.6186333,1404
0.6203,1288
0.6219667,1344
0.6236333,1232
0.6253,1106
0.6269667,1404
0.6286333,1169
0.6303,1348
0.6319667,989
0.6336333,1132
0.6353,1158
0.6369666,1185
0.6386333,1161
0.6403,1041
0.6419666,1210
0.6436333,1086
0.6453,1177
0.6469667,1117
0.6486334,1116
0.6503,1394
0.6519667,838
0.6536334,965
0.6553,992
0.6569667,1126
0.6586334,1189
0.6603,1127
0.6619667,1006
0.6636333,994
0.6653,1031
0.6669667,979
0.6686333,931
0.6703,779
0.6719667,1088
0.6736333,938
0.6753,1015
0.6769667,895
0.6786333,805
0.6803,984
0.6819667,846
0.6836333,834
0.6853,822
0.6869667,834
0.6886333,840
0.6903,872
0.6919667,859
0.6936333,847
0.6953,758
0.6969666,828
0.6986333,764
0.7003,887
0.7019666,906
0.7036333,853
0.7053,824
0.7069666,826
0.7086333,828
0.7103,723
0.7119667,692
0.7136334,662
0.7153,713
0.7169667,690
0.7186334,667
0.7203,687
0.7219667,735
0.7236333,783
0.7253,751
0.7269667,747
0.7286333,743
0.7303,734
0.7319667,639
0.7336333,722
0.7353,746
0.7369667,841
0.7386333,775
0.7403,825
0.7419667,806
0.7436333,788
0.7453,803
0.7469667,819
0.7486333,604
0.7503,699
0.7519667,991
0.7536333,971
0.7553,850
0.7569667,779
0.7586333,765
0.7603,756
0.7619666,540
0.7636333,743
0.7653,700
0.7669666,657
0.7686333,755
0.7703,737
0.7719667,718
0.7736334,682
0.7753,732
0.7769667,671
0.7786334,705
0.7803,861
0.7819667,440
0.7836334,606
0.7853,694
0.7869667,766
0.7886333,709
0.7903,690
0.7919667,840
0.7936333,797
0.7953,718
0.7969667,650
0.7986333,770
0.8003,734
0.8019667,699
0.8036333,657
0.8053,756
0.8069667,772
0.8086333,806
0.8103,783
0.8119667,761
0.8136333,848
0.8153,719
0.8169667,835
0.8186333,621
0.8203,891
0.8219666,967
0.8236333,902
0.8253,768
0.8269666,920
0.8286333,818
0.8303,876
0.8319666,913
0.8336333,719
0.8353,843
0.8369667,802
0.8386334,733
0.8403,784
0.8419667,847
0.8436334,907
0.8453,833
0.8469667,723
0.8486333,733
0.8503,644
0.8519667,641
0.8536333,639
0.8553,637
0.8569667,714
0.8586333,714
0.8603,639
0.8619667,734
0.8636333,883
0.8653,1155
0.8669667,1582
0.8686333,1890
0.8703,2418
0.8719667,2332
0.8736333,2627
0.8753,2506
0.8769667,2385
0.8786333,2301
0.8803,2361
0.8819667,2359
0.8836333,2239
0.8853,2059
0.8869666,2134
0.8886333,2221
0.8903,2198
0.8919666,2241
0.8936333,2285
0.8953,2271
0.8969667,2358
0.8986334,2065
0.9003,2144
0.9019667,2189
0.9036334,2210
0.9053,2231
0.9069667,2253
0.9086334,2242
0.9103,2400
0.9119667,2447
0.9136333,2434
0.9153,2407
0.9169667,2371
0.9186333,2495
0.9203,2230
0.9219667,2271
0.9236333,2311
0.9253,2439
0.9269667,2079
0.9286333,2305
0.9303,2309
0.9319667,2148
0.9336333,2260
0.9353,1925
0.9369667,1804
0.9386333,2015
0.9403,1751
0.9419667,1926
0.9436333,1857
0.9453,1640
0.9469666,2057
0.9486333,1580
0.9503,1514
0.9519666,1492
0.9536333,1409
0.9553,1358
0.9569666,1013
0.9586333,1197
0.9603,1078
0.9619667,1063
0.9636334,945
0.9653,834
0.9669667,865
0.9686334,777
0.9703,817
0.9719667,820
0.9736333,643
0.9753,840
0.9769667,750
0.9786333,596
0.9803,623
0.9819667,748
0.9836333,523
0.9853,581
0.9869667,371
0.9886333,534
0.9903,743
0.9919667,705
0.9936333,544
0.9953,459
0.9969667,500
0.9986333,528
1.0003,486
1.001967,432
1.003633,514
1.0053,525
1.006967,535
1.008633,468
1.0103,528
1.011967,561
1.013633,550
1.0153,503
1.016967,455
1.018633,455
1.0203,638
1.021967,600
1.023633,431
1.0253,553
1.026967,644
1.028633,615
1.0303,614
1.031967,506
1.033633,688
1.0353,510
1.036967,548
1.038633,559
1.0403,570
1.041967,435
1.043633,596
1.0453,560
1.046967,630
1.048633,474
1.0503,580
1.051967,640
1.053633,604
1.0553,567
1.056967,569
1.058633,410
1.0603,573
1.061967,391
1.063633,466
1.0653,541
1.066967,356
1.068633,607
1.0703,555
1.071967,570
1.073633,621
1.0753,481
1.076967,495
1.078633,581
1.0803,602
1.081967,579
1.083633,557
1.0853,523
1.086967,468
1.088633,511
1.0903,585
1.091967,659
1.093633,663
1.0953,631
1.096967,482
1.098633,404
1.1003,508
1.101967,530
1.103633,553
1.1053,436
1.106967,488
1.108633,452
1.1103,416
1.111967,481
1.113633,545
1.1153,506
1.116967,420
1.118633,688
1.1203,635
1.121967,601
1.123633,336
1.1253,571
1.126967,547
1.128633,523
1.1303,636
1.131967,628
1.133633,690
1.1353,479
1.136967,537
1.138633,448
1.1403,653
1.141967,655
1.143633,656
1.1453,514
1.146967,661
1.148633,724
1.1503,596
1.151967,757
1.153633,765
1.1553,745
1.156967,701
1.158633,665
1.1603,697
1.161967,728
1.163633,595
1.1653,726
1.166967,755
1.168633,800
1.1703,777
1.171967,677
1.173633,777
1.1753,753
1.176967,708
1.178633,664
1.1803,737
1.181967,717
1.183633,698
1.1853,699
1.186967,701
1.188633,703
1.1903,705
1.191967,687
1.193633,771
1.1953,712
1.196967,652
1.198633,635
