"SampleName","A2Rd2_01-7"
"Target Mass 1",
"Column Name","IA-3 (3um, 4.6X100)"
"Channel","QDa 1: SIR Ch1"
0.00195,354
0.003616667,682
0.005283333,604
0.00695,819
0.008616666,731
0.01028333,782
0.01195,697
0.01361667,654
0.01528333,666
0.01695,678
0.01861667,572
0.02028333,604
0.02195,629
0.02361667,607
0.02528333,694
0.02695,591
0.02861667,488
0.03028333,638
0.03195,649
0.03361667,696
0.03528333,711
0.03695,761
0.03861667,567
0.04028333,627
0.04195,656
0.04361667,632
0.04528333,591
0.04695,543
0.04861667,546
0.05028334,520
0.05195,532
0.05361667,544
0.05528333,581
0.05695,595
0.05861667,737
0.06028333,679
0.06195,622
0.06361666,684
0.06528334,756
0.06695,484
0.06861667,833
0.07028333,721
0.07195,618
0.07361667,744
0.07528333,683
0.07695,759
0.07861666,759
0.08028334,649
0.08195,881
0.08361667,521
0.08528333,638
0.08695,704
0.08861667,626
0.09028333,549
0.09195,744
0.09361666,608
0.09528334,619
0.09695,574
0.09861667,646
0.1002833,569
0.10195,554
0.1036167,524
0.1052833,493
0.10695,583
0.1086167,618
0.1102833,600
0.11195,648
0.1136167,646
0.1152833,643
0.11695,639
0.1186167,634
0.1202833,613
0.12195,591
0.1236167,537
0.1252833,588
0.12695,631
0.1286167,647
0.1302833,685
0.13195,530
0.1336167,619
0.1352833,672
0.13695,663
0.1386167,579
0.1402833,721
0.14195,677
0.1436167,561
0.1452833,447
0.14695,612
0.1486167,472
0.1502833,733
0.15195,702
0.1536167,481
0.1552833,615
0.15695,584
0.1586167,577
0.1602833,585
0.16195,667
0.1636167,630
0.1652833,593
0.16695,684
0.1686167,505
0.1702833,579
0.17195,710
0.1736167,597
0.1752833,608
0.17695,648
0.1786333,604
0.1802833,544
0.18195,535
0.1836167,561
0.1852833,572
0.18695,584
0.1886167,627
0.1902833,611
0.19195,595
0.1936167,510
0.1952833,635
0.19695,588
0.1986167,540
0.2002833,555
0.20195,581
0.2036167,606
0.2052833,601
0.20695,595
0.2086167,423
0.2102833,469
0.21195,765
0.2136167,730
0.2152833,543
0.21695,491
0.2186167,543
0.2202833,483
0.22195,513
0.2236167,544
0.2252833,619
0.22695,582
0.2286167,567
0.2302833,552
0.23195,521
0.2336167,576
0.2353,574
0.23695,572
0.2386167,635
0.2402833,623
0.24195,607
0.2436167,522
0.2453,566
0.24695,535
0.2486167,535
0.2502833,531
0.25195,527
0.2536167,529
0.2552833,532
0.25695,565
0.2586167,551
0.2602833,537
0.26195,654
0.2636333,687
0.2652833,621
0.26695,582
0.2686167,478
0.2702833,506
0.27195,486
0.2736167,466
0.2752833,532
0.27695,599
0.2786167,569
0.2803,447
0.28195,682
0.2836333,594
0.2852833,581
0.2869667,651
0.2886167,569
0.2902833,590
0.29195,611
0.2936167,596
0.2952833,601
0.2969667,602
0.2986333,602
0.3003,590
0.30195,578
0.3036333,680
0.3052833,644
0.30695,608
0.3086167,546
0.3102833,672
0.31195,714
0.3136167,728
0.3153,736
0.31695,719
0.3186333,646
0.3202833,573
0.3219667,700
0.3236167,639
0.3252833,477
0.32695,591
0.3286333,671
0.3302833,626
0.33195,495
0.3336333,695
0.3353,577
0.3369667,647
0.3386333,513
0.3402833,544
0.34195,575
0.3436167,565
0.3453,512
0.3469667,516
0.3486167,532
0.3503,548
0.35195,488
0.3536333,536
0.3552833,562
0.3569667,588
0.3586167,831
0.3602833,1304
0.3619667,1400
0.3636167,4975
0.3653,7970
0.36695,8272
0.3686333,7782
0.3703,6879
0.3719667,5003
0.3736333,4850
0.3753,4016
0.3769667,3794
0.3786333,2843
0.3802833,2746
0.3819667,2826
0.3836167,2702
0.3853,2229
0.3869667,2141
0.3886333,1768
0.3902833,1727
0.3919667,2129
0.3936333,2403
0.3953,2615
0.3969667,2463
0.3986333,2522
0.4002833,2557
0.4019667,2286
0.4036333,2565
0.4053,2588
0.4069667,2240
0.4086333,2424
0.4103,2604
0.4119667,2134
0.4136167,2305
0.4153,2398
0.41695,2258
0.4186333,2162
0.4203,2268
0.4219667,2170
0.4236333,2051
0.4253,2170
0.4269667,1914
0.4286333,1987
0.4303,1819
0.4319667,1652
0.4336333,1724
0.4353,1708
0.4369667,1762
0.4386333,1747
0.4403,1832
0.4419667,2139
0.4436333,2769
0.4453,4135
0.4469667,6484
0.4486333,12184
0.4503,21356
0.4519667,40992
0.4536333,72256
0.4553,115328
0.4569667,175104
0.4586333,256896
0.4603,358336
0.4619667,479104
0.4636333,620544
0.4653,764160
0.4669667,901632
0.4686333,1036800
0.4703,1134080
0.4719667,1194240
0.4736333,1200640
0.4753,1195520
0.4769667,1121536
0.4786333,1036800
0.4803,914432
0.4819667,805120
0.4836333,676096
0.4853,561152
0.4869667,467712
0.4886333,381440
0.4903,314368
0.4919667,254208
0.4936333,212224
0.4953,179200
0.4969667,151424
0.4986333,124240
0.5003,105760
0.5019667,88128
0.5036333,76224
0.5053,63952
0.5069667,55616
0.5086333,48352
0.5103,40864
0.5119666,35584
0.5136333,31464
0.5153,26796
0.5169666,24388
0.5186333,22492
0.5203,20252
0.5219667,17912
0.5236334,17340
0.5253,15772
0.5269667,14760
0.5286334,13424
0.5303,13188
0.5319667,12816
0.5336334,12932
0.5353,11592
0.5369667,10828
0.5386333,10920
0.5403,10248
0.5419667,9644
0.5436333,9612
0.5453,8704
0.5469667,8404
0.5486333,7993
0.5503,7704
0.5519667,6778
0.5536333,6845
0.5553,6779
0.5569667,6313
0.5586333,6742
0.5603,6552
0.5619667,5984
0.5636333,5136
0.5653,5207
0.5669667,5216
0.5686333,4991
0.5703,4894
0.5719666,4614
0.5736333,4790
0.5753,4323
0.5769666,4460
0.5786333,4696
0.5803,4692
0.5819666,4319
0.5836333,4435
0.5853,4172
0.5869667,3808
0.5886334,3885
0.5903,3891
0.5919667,3440
0.5936334,3532
0.5953,3438
0.5969667,3344
0.5986333,3435
0.6003,3477
0.6019667,3273
0.6036333,3081
0.6053,3189
0.6069667,3044
0.6086333,3111
0.6103,3328
0.6119667,3396
0.6136333,2699
0.6153,2798
0.6169667,3032
0.6186333,2754
0.6203,2655
0.6219667,2893
0.6236333,2845
0.6253,2518
0.6269667,2855
0.6286333,2556
0.6303,2380
0.6319667,1926
0.6336333,2474
0.6353,2626
0.6369666,1895
0.6386333,2050
0.6403,2087
0.6419666,2046
0.6436333,2020
0.6453,1994
0.6469667,1848
0.6486334,1807
0.6503,1729
0.6519667,1965
0.6536334,1901
0.6553,1614
0.6569667,1878
0.6586334,2086
0.6603,2204
0.6619667,1872
0.6636333,2062
0.6653,2064
0.6669667,2122
0.6686333,2072
0.6703,2022
0.6719667,1975
0.6736333,1685
0.6753,1861
0.6769667,1935
0.6786333,2025
0.6803,1816
0.6819667,1967
0.6836333,1723
0.6853,1475
0.6869667,1656
0.6886333,1507
0.6903,1532
0.6919667,1768
0.6936333,1786
0.6953,1679
0.6969666,1733
0.6986333,1347
0.7003,1614
0.7019666,1477
0.7036333,1585
0.7053,1416
0.7069666,1554
0.7086333,1519
0.7103,1622
0.7119667,1358
0.7136334,1508
0.7153,1485
0.7169667,1460
0.7186334,1530
0.7203,1391
0.7219667,1440
0.7236333,1506
0.7253,1436
0.7269667,1386
0.7286333,1304
0.7303,1238
0.7319667,1498
0.7336333,1454
0.7353,1518
0.7369667,1436
0.7386333,1210
0.7403,1307
0.7419667,1353
0.7436333,1361
0.7453,1369
0.7469667,1515
0.7486333,1567
0.7503,1400
0.7519667,1175
0.7536333,1297
0.7553,1177
0.7569667,1214
0.7586333,1250
0.7603,1305
0.7619666,1295
0.7636333,1286
0.7653,1225
0.7669666,1165
0.7686333,1199
0.7703,1148
0.7719667,1245
0.7736334,1231
0.7753,1231
0.7769667,1196
0.7786334,1365
0.7803,1357
0.7819667,1295
0.7836334,1110
0.7853,1295
0.7869667,1263
0.7886333,1340
0.7903,1264
0.7919667,941
0.7936333,1361
0.7953,1248
0.7969667,1457
0.7986333,1323
0.8003,1196
0.8019667,1315
0.8036333,1288
0.8053,1336
0.8069667,1204
0.8086333,1174
0.8103,1161
0.8119667,1292
0.8136333,1328
0.8153,1186
0.8169667,1276
0.8186333,1473
0.8203,1441
0.8219666,1403
0.8236333,1295
0.8253,1358
0.8269666,1242
0.8286333,1237
0.8303,1342
0.8319666,1123
0.8336333,1398
0.8353,1208
0.8369667,867
0.8386334,1314
0.8403,1353
0.8419667,1255
0.8436334,1259
0.8453,1165
0.8469667,1125
0.8486333,1296
0.8503,1176
0.8519667,1282
0.8536333,1358
0.8553,1195
0.8569667,1251
0.8586333,1064
0.8603,1101
0.8619667,1040
0.8636333,1390
0.8653,1706
0.8669667,1876
0.8686333,2571
0.8703,3161
0.8719667,3637
0.8736333,4027
0.8753,4878
0.8769667,4872
0.8786333,4636
0.8803,4869
0.8819667,4420
0.8836333,4655
0.8853,4692
0.8869666,4517
0.8886333,4111
0.8903,4147
0.8919666,4348
0.8936333,4611
0.8953,4740
0.8969667,4117
0.8986334,4406
0.9003,4603
0.9019667,4316
0.9036334,4428
0.9053,4535
0.9069667,4372
0.9086334,4585
0.9103,4478
0.9119667,4411
0.9136333,4456
0.9153,4858
0.9169667,4847
0.9186333,4557
0.9203,4482
0.9219667,4163
0.9236333,4352
0.9253,4237
0.9269667,4301
0.9286333,4364
0.9303,4088
0.9319667,3715
0.9336333,3826
0.9353,3808
0.9369667,3856
0.9386333,3237
0.9403,3143
0.9419667,3104
0.9436333,2895
0.9453,3059
0.9469666,2644
0.9486333,2420
0.9503,2693
0.9519666,2390
0.9536333,2043
0.9553,2220
0.9569666,1979
0.9586333,2083
0.9603,1567
0.9619667,1626
0.9636334,1413
0.9653,1498
0.9669667,1308
0.9686334,1270
0.9703,1234
0.9719667,1271
0.9736333,1190
0.9753,1198
0.9769667,1056
0.9786333,805
0.9803,859
0.9819667,843
0.9836333,973
0.9853,926
0.9869667,879
0.9886333,940
0.9903,1019
0.9919667,740
0.9936333,964
0.9953,894
0.9969667,735
0.9986333,961
1.0003,950
1.001967,685
1.003633,759
1.0053,825
1.006967,1017
1.008633,961
1.0103,797
1.011967,917
1.013633,976
1.0153,935
1.016967,720
1.018633,810
1.0203,743
1.021967,787
1.023633,831
1.0253,769
1.026967,978
1.028633,1008
1.0303,1039
1.031967,903
1.033633,913
1.0353,743
1.036967,776
1.038633,877
1.0403,805
1.041967,733
1.043633,866
1.0453,753
1.046967,769
1.048633,784
1.0503,813
1.051967,842
1.053633,717
1.0553,696
1.056967,997
1.058633,911
1.0603,1025
1.061967,755
1.063633,809
1.0653,789
1.066967,833
1.068633,819
1.0703,806
1.071967,935
1.073633,948
1.0753,961
1.076967,874
1.078633,990
1.0803,933
1.081967,845
1.083633,754
1.0853,800
1.086967,830
1.088633,761
1.0903,691
1.091967,859
1.093633,871
1.0953,791
1.096967,789
1.098633,876
1.1003,950
1.101967,930
1.103633,889
1.1053,904
1.106967,720
1.108633,881
1.1103,858
1.111967,878
1.113633,828
1.1153,912
1.116967,757
1.118633,849
1.1203,996
1.121967,958
1.123633,881
1.1253,884
1.126967,898
1.128633,911
1.1303,954
1.131967,997
1.133633,688
1.1353,964
1.136967,864
1.138633,665
1.1403,1010
1.141967,772
1.143633,906
1.1453,896
1.146967,811
1.148633,857
1.1503,902
1.151967,882
1.153633,862
1.1553,897
1.156967,931
1.158633,766
1.1603,1021
1.161967,907
1.163633,946
1.1653,1005
1.166967,995
1.168633,985
1.1703,952
1.171967,999
1.173633,910
1.1753,934
1.176967,959
1.178633,1027
1.1803,1004
1.181967,982
1.183633,1017
1.1853,953
1.186967,975
1.188633,997
1.1903,953
1.191967,909
1.193633,870
1.1953,1017
1.196967,1007
1.198633,1142
