"SampleName","A2Rd2_01-79"
"Target Mass 1",
"Column Name","IA-3 (3um, 4.6X100)"
"Channel","QDa 1: SIR Ch2"
0.00195,568
0.003616667,570
0.005283333,652
0.00695,717
0.008616666,831
0.01028333,888
0.01195,945
0.01361667,923
0.01528333,901
0.01695,825
0.01861667,966
0.02028333,972
0.02195,979
0.02361667,912
0.02528333,838
0.02695,1045
0.02861667,1085
0.03028333,740
0.03195,875
0.03361667,692
0.03528333,831
0.03695,955
0.03861667,788
0.04028333,988
0.04195,927
0.04361667,1018
0.04528333,817
0.04695,750
0.04861667,1068
0.05028334,1011
0.05195,940
0.05361667,1160
0.05528333,866
0.05695,862
0.05861667,749
0.06028333,911
0.06195,865
0.06361666,887
0.06528334,809
0.06695,865
0.06861667,763
0.07028333,718
0.07195,808
0.07361667,830
0.07528333,853
0.07695,729
0.07861666,783
0.08028334,779
0.08195,768
0.08361667,757
0.08528333,584
0.08695,881
0.08861667,690
0.09028333,891
0.09195,856
0.09361666,900
0.09528334,567
0.09695,936
0.09861667,722
0.1002833,945
0.10195,884
0.1036167,708
0.1052833,848
0.10695,934
0.1086167,904
0.1102833,775
0.11195,866
0.1136167,855
0.1152833,848
0.11695,698
0.1186167,692
0.1202833,905
0.12195,756
0.1236167,838
0.1252833,759
0.12695,785
0.1286167,853
0.1302833,825
0.13195,863
0.1336167,829
0.1352833,852
0.13695,822
0.1386167,766
0.1402833,710
0.14195,719
0.1436167,728
0.1452833,802
0.14695,827
0.1486167,822
0.1502833,818
0.15195,810
0.1536167,916
0.1552833,888
0.15695,861
0.1586167,905
0.1602833,792
0.16195,753
0.1636167,775
0.1652833,798
0.16695,821
0.1686167,729
0.1702833,813
0.17195,667
0.1736167,851
0.1752833,829
0.17695,839
0.1786167,864
0.1802833,863
0.18195,847
0.1836167,783
0.1852833,825
0.18695,776
0.1886167,793
0.1902833,810
0.19195,787
0.1936167,721
0.1952833,863
0.19695,691
0.1986167,803
0.2002833,757
0.20195,785
0.2036167,877
0.2052833,855
0.20695,938
0.2086167,884
0.2102833,829
0.21195,879
0.2136167,929
0.2152833,943
0.21695,924
0.2186167,999
0.2202833,1145
0.22195,1134
0.2236167,804
0.2252833,1083
0.22695,1098
0.2286167,965
0.2302833,1003
0.23195,1041
0.2336167,1069
0.2352833,996
0.23695,1035
0.2386167,1094
0.2402833,1116
0.24195,1138
0.2436167,948
0.2452833,1021
0.24695,1323
0.2486167,1169
0.2502833,1015
0.25195,1178
0.2536167,1095
0.2552833,1137
0.25695,1104
0.2586167,1092
0.2602833,1083
0.26195,1049
0.2636167,945
0.2652833,1069
0.26695,1085
0.2686167,938
0.2702833,920
0.27195,1006
0.2736167,963
0.2752833,921
0.27695,966
0.2786167,1019
0.2803,1072
0.28195,853
0.2836167,1140
0.2852833,1029
0.28695,1090
0.2886167,849
0.2902833,912
0.29195,877
0.2936167,845
0.2952833,1047
0.29695,1145
0.2986333,1139
0.3002833,912
0.30195,1083
0.3036167,1179
0.3052833,931
0.30695,1104
0.3086167,1033
0.3102833,1215
0.31195,1133
0.3136167,1129
0.3153,1193
0.31695,1156
0.3186167,1094
0.3203,1033
0.32195,1195
0.3236167,1156
0.3252833,1083
0.32695,1010
0.3286167,1130
0.3302833,1172
0.33195,1213
0.3336333,1259
0.3352833,1246
0.33695,1252
0.3386333,1258
0.3402833,1295
0.34195,1332
0.3436167,1077
0.3452833,1472
0.34695,1282
0.3486167,1283
0.3503,1458
0.35195,1179
0.3536167,1254
0.3553,1151
0.35695,1241
0.3586167,1330
0.3603,1323
0.3619667,1315
0.3636167,1838
0.3653,2430
0.36695,3698
0.3686333,4919
0.3703,4558
0.3719667,4535
0.3736333,4415
0.3753,4409
0.3769667,4233
0.3786333,3800
0.3802833,3512
0.3819667,2935
0.3836167,2388
0.3853,2293
0.38695,1581
0.3886333,1446
0.3902833,1121
0.3919667,867
0.3936333,849
0.3953,604
0.39695,620
0.3986333,521
0.4002833,577
0.4019667,529
0.4036333,481
0.4053,540
0.4069667,721
0.4086333,698
0.4103,601
0.4119667,655
0.4136333,693
0.4153,664
0.41695,618
0.4186333,643
0.4203,684
0.4219667,682
0.4236333,679
0.4253,781
0.4269667,834
0.4286333,813
0.4303,795
0.4319667,777
0.4336333,697
0.4353,828
0.4369667,777
0.4386333,995
0.4403,1099
0.4419667,1052
0.4436333,1159
0.4453,1112
0.4469667,1065
0.4486333,1018
0.4503,1107
0.4519667,1196
0.4536333,1238
0.4553,1358
0.4569667,1386
0.4586333,1411
0.4603,1435
0.4619667,1530
0.4636333,1582
0.4653,1666
0.4669667,1823
0.4686333,1947
0.4703,1901
0.4719667,1964
0.4736333,1853
0.4753,1587
0.4769667,1766
0.4786333,1586
0.4803,1500
0.4819667,1445
0.4836333,1511
0.4853,1481
0.4869667,1430
0.4886333,1573
0.4903,1304
0.4919667,1400
0.4936333,1249
0.4953,1271
0.4969667,1162
0.4986333,1109
0.5003,980
0.5019667,937
0.5036333,1104
0.5053,1147
0.5069667,1039
0.5086333,927
0.5103,1022
0.5119666,955
0.5136333,906
0.5153,994
0.5169666,897
0.5186333,1020
0.5203,872
0.5219667,990
0.5236334,836
0.5253,1060
0.5269667,983
0.5286334,908
0.5303,983
0.5319667,780
0.5336334,977
0.5353,1052
0.5369667,947
0.5386333,1001
0.5403,903
0.5419667,843
0.5436333,999
0.5453,994
0.5469667,1026
0.5486333,1009
0.5503,894
0.5519667,906
0.5536333,938
0.5553,837
0.5569667,786
0.5586333,1083
0.5603,1091
0.5619667,746
0.5636333,794
0.5653,773
0.5669667,834
0.5686333,798
0.5703,762
0.5719666,752
0.5736333,1091
0.5753,1017
0.5769666,1095
0.5786333,972
0.5803,744
0.5819666,1068
0.5836333,717
0.5853,1032
0.5869667,1026
0.5886334,955
0.5903,884
0.5919667,883
0.5936334,834
0.5953,818
0.5969667,801
0.5986333,891
0.6003,966
0.6019667,958
0.6036333,949
0.6053,742
0.6069667,807
0.6086333,894
0.6103,926
0.6119667,957
0.6136333,895
0.6153,812
0.6169667,923
0.6186333,655
0.6203,833
0.6219667,804
0.6236333,775
0.6253,747
0.6269667,883
0.6286333,874
0.6303,906
0.6319667,901
0.6336333,896
0.6353,775
0.6369666,735
0.6386333,1003
0.6403,943
0.6419666,916
0.6436333,855
0.6453,883
0.6469667,756
0.6486334,804
0.6503,852
0.6519667,870
0.6536334,846
0.6553,778
0.6569667,778
0.6586334,859
0.6603,863
0.6619667,732
0.6636333,782
0.6653,888
0.6669667,697
0.6686333,929
0.6703,718
0.6719667,876
0.6736333,739
0.6753,745
0.6769667,875
0.6786333,840
0.6803,805
0.6819667,697
0.6836333,941
0.6853,842
0.6869667,751
0.6886333,734
0.6903,740
0.6919667,747
0.6936333,748
0.6953,749
0.6969666,849
0.6986333,949
0.7003,946
0.7019666,840
0.7036333,684
0.7053,656
0.7069666,851
0.7086333,798
0.7103,736
0.7119667,863
0.7136334,836
0.7153,843
0.7169667,1010
0.7186334,633
0.7203,781
0.7219667,900
0.7236333,778
0.7253,766
0.7269667,617
0.7286333,760
0.7303,763
0.7319667,767
0.7336333,768
0.7353,768
0.7369667,723
0.7386333,794
0.7403,917
0.7419667,1002
0.7436333,907
0.7453,680
0.7469667,518
0.7486333,1033
0.7503,745
0.7519667,750
0.7536333,996
0.7553,896
0.7569667,787
0.7586333,806
0.7603,701
0.7619666,858
0.7636333,818
0.7653,876
0.7669666,761
0.7686333,701
0.7703,762
0.7719667,784
0.7736334,805
0.7753,668
0.7769667,884
0.7786334,788
0.7803,721
0.7819667,653
0.7836334,790
0.7853,814
0.7869667,838
0.7886333,865
0.7903,727
0.7919667,710
0.7936333,924
0.7953,947
0.7969667,772
0.7986333,856
0.8003,747
0.8019667,902
0.8036333,543
0.8053,791
0.8069667,872
0.8086333,934
0.8103,777
0.8119667,792
0.8136333,820
0.8153,930
0.8169667,923
0.8186333,752
0.8203,966
0.8219666,994
0.8236333,751
0.8253,1011
0.8269666,983
0.8286333,1031
0.8303,846
0.8319666,788
0.8336333,816
0.8353,843
0.8369667,795
0.8386334,814
0.8403,831
0.8419667,797
0.8436334,762
0.8453,761
0.8469667,771
0.8486333,782
0.8503,799
0.8519667,816
0.8536333,887
0.8553,908
0.8569667,922
0.8586333,631
0.8603,1002
0.8619667,757
0.8636333,919
0.8653,892
0.8669667,950
0.8686333,856
0.8703,771
0.8719667,783
0.8736333,956
0.8753,963
0.8769667,922
0.8786333,638
0.8803,804
0.8819667,847
0.8836333,994
0.8853,959
0.8869666,1085
0.8886333,1212
0.8903,1187
0.8919666,1096
0.8936333,1169
0.8953,1180
0.8969667,1035
0.8986334,1177
0.9003,1017
0.9019667,1057
0.9036334,1137
0.9053,1016
0.9069667,909
0.9086334,1026
0.9103,945
0.9119667,863
0.9136333,829
0.9153,1083
0.9169667,1196
0.9186333,1129
0.9203,1180
0.9219667,1135
0.9236333,880
0.9253,1202
0.9269667,1117
0.9286333,1031
0.9303,1033
0.9319667,1090
0.9336333,1063
0.9353,1037
0.9369667,1423
0.9386333,1391
0.9403,1226
0.9419667,1196
0.9436333,1083
0.9453,1328
0.9469666,893
0.9486333,1018
0.9503,1121
0.9519666,820
0.9536333,1047
0.9553,1029
0.9569666,1018
0.9586333,1009
0.9603,1027
0.9619667,1045
0.9636334,903
0.9653,1063
0.9669667,791
0.9686334,880
0.9703,1036
0.9719667,881
0.9736333,841
0.9753,1060
0.9769667,826
0.9786333,1036
0.9803,1016
0.9819667,722
0.9836333,861
0.9853,754
0.9869667,794
0.9886333,784
0.9903,744
0.9919667,864
0.9936333,859
0.9953,854
0.9969667,684
0.9986333,885
1.0003,793
1.001967,952
1.003633,861
1.0053,752
1.006967,803
1.008633,903
1.0103,812
1.011967,654
1.013633,901
1.0153,741
1.016967,985
1.018633,865
1.0203,1028
1.021967,1087
1.023633,792
1.0253,738
1.026967,841
1.028633,783
1.0303,825
1.031967,867
1.033633,739
1.0353,784
1.036967,828
1.038633,693
1.0403,714
1.041967,736
1.043633,630
1.0453,631
1.046967,632
1.048633,673
1.0503,714
1.051967,759
1.053633,760
1.0553,761
1.056967,780
1.058633,798
1.0603,695
1.061967,882
1.063633,867
1.0653,843
1.066967,696
1.068633,751
1.0703,846
1.071967,791
1.073633,852
1.0753,926
1.076967,724
1.078633,729
1.0803,733
1.081967,779
1.083633,778
1.0853,776
1.086967,802
1.088633,828
1.0903,990
1.091967,867
1.093633,744
1.0953,966
1.096967,955
1.098633,940
1.1003,918
1.101967,799
1.103633,756
1.1053,830
1.106967,791
1.108633,753
1.1103,803
1.111967,852
1.113633,876
1.1153,839
1.116967,818
1.118633,915
1.1203,780
1.121967,908
1.123633,915
1.1253,872
1.126967,894
1.128633,759
1.1303,846
1.131967,887
1.133633,920
1.1353,897
1.136967,874
1.138633,826
1.1403,715
1.141967,703
1.143633,666
1.1453,758
1.146967,738
1.148633,718
1.1503,748
1.151967,866
1.153633,858
1.1553,927
1.156967,968
1.158633,620
1.1603,671
1.161967,747
1.163633,706
1.1653,703
1.166967,870
1.168633,912
1.1703,908
1.171967,783
1.173633,831
1.1753,695
1.176967,864
1.178633,838
1.1803,801
1.181967,764
1.183633,822
1.1853,885
1.186967,701
1.188633,785
1.1903,931
1.191967,840
1.193633,831
1.1953,821
1.196967,613
1.198633,829
