"SampleName","A2Rd2_01-67"
"Target Mass 1",
"Column Name","IA-3 (3um, 4.6X100)"
"Channel","QDa 1: SIR Ch1"
0.00195,374
0.003616667,544
0.005283333,522
0.00695,462
0.008616666,462
0.01028333,502
0.01195,541
0.01361667,559
0.01528333,554
0.01695,574
0.01861667,499
0.02028333,552
0.02195,415
0.02361667,424
0.02528333,434
0.02695,443
0.02861667,452
0.03028333,442
0.03195,452
0.03361667,457
0.03528333,462
0.03695,384
0.03861667,547
0.04028333,540
0.04195,514
0.04361667,581
0.04528333,480
0.04695,597
0.04861667,416
0.05028334,520
0.05195,585
0.05361667,483
0.05528333,435
0.05695,478
0.05861667,486
0.06028333,470
0.06195,438
0.06361666,405
0.06528334,376
0.06695,495
0.06861667,467
0.07028333,440
0.07195,462
0.07361667,485
0.07528333,436
0.07695,386
0.07861666,525
0.08028334,547
0.08195,341
0.08361667,471
0.08528333,457
0.08695,286
0.08861667,392
0.09028333,470
0.09195,519
0.09361666,436
0.09528334,417
0.09695,397
0.09861667,558
0.1002833,546
0.10195,437
0.1036167,430
0.1052833,460
0.10695,343
0.1086167,392
0.1102833,441
0.11195,420
0.1136167,399
0.1152833,476
0.11695,459
0.1186167,501
0.1202833,391
0.12195,484
0.1236167,382
0.1252833,381
0.12695,399
0.1286167,418
0.1302833,427
0.13195,436
0.1336167,456
0.1352833,476
0.13695,466
0.1386167,456
0.1402833,518
0.14195,500
0.1436167,482
0.1452833,518
0.14695,526
0.1486167,496
0.1502833,459
0.15195,409
0.1536167,519
0.1552833,525
0.15695,530
0.1586167,599
0.1602833,602
0.16195,604
0.1636167,458
0.1652833,566
0.16695,529
0.1686167,379
0.1702833,497
0.17195,491
0.1736167,403
0.1752833,412
0.17695,511
0.1786167,538
0.1802833,459
0.18195,493
0.1836167,470
0.1852833,488
0.18695,444
0.1886167,401
0.1902833,424
0.19195,454
0.1936167,441
0.1952833,574
0.19695,565
0.1986167,399
0.2002833,450
0.20195,566
0.2036167,625
0.2052833,336
0.20695,428
0.2086167,485
0.2102833,448
0.21195,315
0.2136167,504
0.2152833,442
0.21695,435
0.2186167,485
0.2202833,448
0.22195,494
0.2236167,470
0.2252833,445
0.22695,542
0.2286167,573
0.2302833,475
0.23195,368
0.2336167,478
0.2352833,509
0.23695,480
0.2386167,451
0.2402833,453
0.24195,432
0.2436167,519
0.2452833,314
0.24695,383
0.2486167,504
0.2502833,493
0.25195,392
0.2536167,517
0.2552833,538
0.25695,526
0.2586167,558
0.2602833,476
0.26195,559
0.2636333,560
0.2652833,457
0.26695,602
0.2686167,561
0.2702833,441
0.27195,563
0.2736167,486
0.2752833,524
0.27695,522
0.2786167,521
0.2803,525
0.28195,491
0.2836167,478
0.2852833,499
0.2869667,482
0.2886167,422
0.2902833,557
0.29195,606
0.2936167,519
0.2952833,461
0.29695,639
0.2986333,437
0.3002833,588
0.30195,445
0.3036167,466
0.3052833,531
0.3069667,507
0.3086333,483
0.3102833,495
0.31195,521
0.3136167,446
0.3153,498
0.3169667,479
0.3186167,520
0.3202833,522
0.32195,523
0.3236167,546
0.3253,523
0.32695,499
0.3286167,544
0.3302833,516
0.33195,506
0.3336333,584
0.3352833,567
0.33695,523
0.3386333,566
0.3402833,462
0.3419667,517
0.3436167,502
0.3452833,495
0.34695,488
0.3486167,641
0.3503,622
0.35195,635
0.3536167,520
0.3553,517
0.3569667,536
0.3586333,473
0.3602833,511
0.3619667,693
0.3636167,833
0.3653,1186
0.3669667,2118
0.3686333,4386
0.3703,6015
0.3719667,7177
0.3736333,8157
0.3753,8356
0.37695,8006
0.3786333,8552
0.3802833,7440
0.3819667,6269
0.3836333,4390
0.3853,4443
0.38695,3920
0.3886333,3359
0.3903,3409
0.3919667,2481
0.3936167,1843
0.3953,1774
0.39695,1432
0.3986333,1228
0.4003,1071
0.40195,1069
0.4036333,1125
0.4053,1129
0.4069667,969
0.4086333,1180
0.4103,923
0.4119667,1279
0.4136333,1243
0.4153,1079
0.4169667,1322
0.4186333,1328
0.4203,1251
0.4219667,1406
0.4236333,1162
0.4253,1471
0.4269667,1113
0.4286333,1215
0.4303,1355
0.4319667,1258
0.4336333,1801
0.4353,2453
0.4369667,3434
0.4386333,4935
0.4403,7385
0.4419667,10384
0.4436333,15020
0.4453,21408
0.4469667,28788
0.4486333,38864
0.4503,49184
0.4519667,62416
0.4536333,76272
0.4553,92704
0.4569667,103616
0.4586333,116272
0.4603,133504
0.4619667,147712
0.4636333,166016
0.4653,186240
0.4669667,206912
0.4686333,224704
0.4703,247296
0.4719667,258368
0.4736333,273472
0.4753,272192
0.4769667,270976
0.4786333,252160
0.4803,230272
0.4819667,206272
0.4836333,173696
0.4853,150976
0.4869667,122880
0.4886333,98160
0.4903,77952
0.4919667,61808
0.4936333,48480
0.4953,35952
0.4969667,29264
0.4986333,21632
0.5003,17376
0.5019667,14856
0.5036333,11676
0.5053,9828
0.5069667,8115
0.5086333,7032
0.5103,5996
0.5119666,5601
0.5136333,5588
0.5153,4560
0.5169666,4582
0.5186333,3753
0.5203,3636
0.5219667,3626
0.5236334,3234
0.5253,3316
0.5269667,2721
0.5286334,3201
0.5303,3304
0.5319667,2758
0.5336334,2476
0.5353,2268
0.5369667,2689
0.5386333,2634
0.5403,2110
0.5419667,2045
0.5436333,2114
0.5453,1723
0.5469667,1924
0.5486333,2205
0.5503,1734
0.5519667,1750
0.5536333,1553
0.5553,1584
0.5569667,1614
0.5586333,1459
0.5603,1546
0.5619667,1633
0.5636333,1545
0.5653,1534
0.5669667,1413
0.5686333,1301
0.5703,1135
0.5719666,1201
0.5736333,1258
0.5753,1179
0.5769666,1100
0.5786333,1255
0.5803,1162
0.5819666,1180
0.5836333,1266
0.5853,1196
0.5869667,1200
0.5886334,1229
0.5903,1243
0.5919667,1164
0.5936334,1234
0.5953,1198
0.5969667,1163
0.5986333,1110
0.6003,1199
0.6019667,1199
0.6036333,1200
0.6053,1283
0.6069667,1298
0.6086333,1271
0.6103,1032
0.6119667,830
0.6136333,1316
0.6153,1102
0.6169667,1125
0.6186333,1037
0.6203,1109
0.6219667,968
0.6236333,1051
0.6253,1103
0.6269667,1016
0.6286333,1064
0.6303,1112
0.6319667,1057
0.6336333,645
0.6353,905
0.6369666,693
0.6386333,838
0.6403,800
0.6419666,780
0.6436333,761
0.6453,738
0.6469667,861
0.6486334,635
0.6503,754
0.6519667,814
0.6536334,716
0.6553,749
0.6569667,804
0.6586334,713
0.6603,695
0.6619667,860
0.6636333,794
0.6653,754
0.6669667,948
0.6686333,894
0.6703,653
0.6719667,764
0.6736333,778
0.6753,640
0.6769667,697
0.6786333,547
0.6803,618
0.6819667,612
0.6836333,607
0.6853,617
0.6869667,671
0.6886333,655
0.6903,640
0.6919667,599
0.6936333,591
0.6953,552
0.6969666,514
0.6986333,508
0.7003,503
0.7019666,541
0.7036333,579
0.7053,610
0.7069666,710
0.7086333,747
0.7103,610
0.7119667,640
0.7136334,679
0.7153,684
0.7169667,516
0.7186334,693
0.7203,730
0.7219667,766
0.7236333,639
0.7253,581
0.7269667,632
0.7286333,551
0.7303,632
0.7319667,616
0.7336333,600
0.7353,499
0.7369667,613
0.7386333,765
0.7403,716
0.7419667,485
0.7436333,663
0.7453,508
0.7469667,613
0.7486333,654
0.7503,612
0.7519667,570
0.7536333,572
0.7553,619
0.7569667,649
0.7586333,674
0.7603,698
0.7619666,544
0.7636333,628
0.7653,511
0.7669666,620
0.7686333,526
0.7703,594
0.7719667,672
0.7736334,655
0.7753,650
0.7769667,495
0.7786334,536
0.7803,546
0.7819667,556
0.7836334,643
0.7853,399
0.7869667,577
0.7886333,541
0.7903,510
0.7919667,592
0.7936333,517
0.7953,570
0.7969667,543
0.7986333,628
0.8003,623
0.8019667,601
0.8036333,580
0.8053,574
0.8069667,569
0.8086333,563
0.8103,524
0.8119667,517
0.8136333,515
0.8153,512
0.8169667,673
0.8186333,662
0.8203,713
0.8219666,679
0.8236333,578
0.8253,590
0.8269666,731
0.8286333,708
0.8303,726
0.8319666,677
0.8336333,645
0.8353,691
0.8369667,688
0.8386334,684
0.8403,678
0.8419667,672
0.8436334,644
0.8453,663
0.8469667,682
0.8486333,687
0.8503,692
0.8519667,611
0.8536333,619
0.8553,627
0.8569667,606
0.8586333,589
0.8603,805
0.8619667,763
0.8636333,598
0.8653,526
0.8669667,627
0.8686333,589
0.8703,659
0.8719667,563
0.8736333,550
0.8753,365
0.8769667,500
0.8786333,490
0.8803,595
0.8819667,700
0.8836333,1148
0.8853,1325
0.8869666,1752
0.8886333,2000
0.8903,2138
0.8919666,2257
0.8936333,2322
0.8953,2387
0.8969667,2297
0.8986334,2314
0.9003,2332
0.9019667,2719
0.9036334,2807
0.9053,2930
0.9069667,2716
0.9086334,2688
0.9103,2696
0.9119667,2863
0.9136333,2744
0.9153,2626
0.9169667,2593
0.9186333,2561
0.9203,2587
0.9219667,2532
0.9236333,2680
0.9253,2655
0.9269667,2629
0.9286333,2861
0.9303,2881
0.9319667,2653
0.9336333,2463
0.9353,2634
0.9369667,2344
0.9386333,2413
0.9403,2244
0.9419667,2161
0.9436333,2232
0.9453,2274
0.9469666,2315
0.9486333,2393
0.9503,1889
0.9519666,2076
0.9536333,1759
0.9553,1658
0.9569666,1650
0.9586333,1718
0.9603,1551
0.9619667,1672
0.9636334,1515
0.9653,1357
0.9669667,1144
0.9686334,1199
0.9703,1186
0.9719667,1258
0.9736333,1090
0.9753,1157
0.9769667,800
0.9786333,679
0.9803,788
0.9819667,776
0.9836333,737
0.9853,531
0.9869667,439
0.9886333,782
0.9903,603
0.9919667,535
0.9936333,673
0.9953,659
0.9969667,619
0.9986333,520
1.0003,722
1.001967,522
1.003633,558
1.0053,547
1.006967,560
1.008633,527
1.0103,555
1.011967,409
1.013633,641
1.0153,396
1.016967,419
1.018633,531
1.0203,463
1.021967,641
1.023633,613
1.0253,540
1.026967,534
1.028633,491
1.0303,416
1.031967,552
1.033633,518
1.0353,485
1.036967,589
1.038633,542
1.0403,494
1.041967,489
1.043633,540
1.0453,555
1.046967,415
1.048633,547
1.0503,651
1.051967,536
1.053633,355
1.0553,425
1.056967,548
1.058633,592
1.0603,590
1.061967,576
1.063633,598
1.0653,556
1.066967,430
1.068633,448
1.0703,551
1.071967,495
1.073633,488
1.0753,490
1.076967,507
1.078633,523
1.0803,547
1.081967,391
1.083633,601
1.0853,430
1.086967,490
1.088633,483
1.0903,477
1.091967,471
1.093633,595
1.0953,609
1.096967,647
1.098633,468
1.1003,515
1.101967,493
1.103633,546
1.1053,519
1.106967,546
1.108633,532
1.1103,461
1.111967,600
1.113633,416
1.1153,574
1.116967,484
1.118633,498
1.1203,597
1.121967,614
1.123633,584
1.1253,547
1.126967,509
1.128633,540
1.1303,568
1.131967,575
1.133633,524
1.1353,531
1.136967,539
1.138633,511
1.1403,600
1.141967,414
1.143633,527
1.1453,519
1.146967,510
1.148633,707
1.1503,696
1.151967,545
1.153633,687
1.1553,686
1.156967,707
1.158633,660
1.1603,417
1.161967,511
1.163633,735
1.1653,640
1.166967,678
1.168633,710
1.1703,706
1.171967,617
1.173633,668
1.1753,698
1.176967,730
1.178633,743
1.1803,785
1.181967,786
1.183633,687
1.1853,762
1.186967,759
1.188633,723
1.1903,687
1.191967,737
1.193633,787
1.1953,832
1.196967,630
1.198633,819
