"SampleName","A2Rd2_01-85"
"Target Mass 1",
"Column Name","IA-3 (3um, 4.6X100)"
"Channel","QDa 1: SIR Ch1"
0.00195,265
0.003616667,510
0.005283333,430
0.00695,500
0.008616666,457
0.01028333,448
0.01195,454
0.01361667,461
0.01528333,454
0.01695,487
0.01861667,561
0.02028333,559
0.02195,592
0.02361667,565
0.02528333,414
0.02695,458
0.02861667,442
0.03028333,455
0.03195,468
0.03361667,544
0.03528333,527
0.03695,500
0.03861667,522
0.04028333,468
0.04195,439
0.04361667,395
0.04528333,445
0.04695,634
0.04861667,665
0.05028334,461
0.05195,470
0.05361667,487
0.05528333,326
0.05695,435
0.05861667,560
0.06028333,486
0.06195,517
0.06361666,538
0.06528334,415
0.06695,372
0.06861667,389
0.07028333,353
0.07195,317
0.07361667,298
0.07528333,280
0.07695,469
0.07861666,440
0.08028334,448
0.08195,504
0.08361667,382
0.08528333,423
0.08695,497
0.08861667,559
0.09028333,501
0.09195,303
0.09361666,572
0.09528334,424
0.09695,409
0.09861667,367
0.1002833,479
0.10195,514
0.1036167,389
0.1052833,506
0.10695,474
0.1086167,491
0.1102833,462
0.11195,464
0.1136167,466
0.1152833,472
0.11695,453
0.1186167,457
0.1202833,529
0.12195,493
0.1236167,457
0.1252833,489
0.12695,440
0.1286167,438
0.1302833,355
0.13195,454
0.1336167,462
0.1352833,419
0.13695,376
0.1386167,467
0.1402833,505
0.14195,543
0.1436167,445
0.1452833,535
0.14695,445
0.1486167,452
0.1502833,383
0.15195,501
0.1536167,376
0.1552833,490
0.15695,523
0.1586167,554
0.1602833,471
0.16195,418
0.1636167,528
0.1652833,410
0.16695,450
0.1686167,490
0.1702833,423
0.17195,510
0.1736167,491
0.1752833,480
0.17695,545
0.1786167,555
0.1802833,526
0.18195,460
0.1836167,510
0.1852833,568
0.18695,589
0.1886167,650
0.1902833,428
0.19195,493
0.1936167,517
0.1952833,545
0.19695,464
0.1986167,464
0.2002833,434
0.20195,408
0.2036167,382
0.2052833,409
0.20695,461
0.2086167,513
0.2102833,575
0.21195,563
0.2136167,631
0.2152833,420
0.21695,526
0.2186167,547
0.2202833,293
0.22195,515
0.2236167,537
0.2252833,390
0.22695,563
0.2286333,420
0.2302833,377
0.23195,322
0.2336167,497
0.2352833,553
0.23695,461
0.2386167,266
0.2402833,448
0.24195,503
0.2436167,431
0.2453,328
0.24695,301
0.2486167,337
0.2502833,373
0.25195,368
0.2536167,398
0.2552833,360
0.25695,321
0.2586167,379
0.2602833,377
0.26195,374
0.2636333,460
0.2652833,541
0.26695,537
0.2686167,600
0.2702833,446
0.27195,524
0.2736167,573
0.2752833,564
0.27695,423
0.2786167,510
0.2803,475
0.28195,479
0.2836167,447
0.2852833,395
0.28695,490
0.2886167,315
0.2902833,584
0.29195,547
0.2936167,417
0.2952833,539
0.29695,496
0.2986333,454
0.3002833,427
0.30195,543
0.3036333,584
0.3053,594
0.3069667,542
0.3086333,378
0.3103,546
0.3119667,455
0.3136167,654
0.3153,587
0.3169667,638
0.3186167,541
0.3203,534
0.32195,507
0.3236167,398
0.3252833,570
0.32695,527
0.3286333,484
0.3302833,398
0.33195,459
0.3336333,520
0.3352833,445
0.3369667,575
0.3386167,568
0.3403,480
0.34195,499
0.3436333,482
0.3452833,487
0.3469667,492
0.3486167,515
0.3503,508
0.35195,500
0.3536333,502
0.3552833,504
0.3569667,458
0.3586167,540
0.3603,623
0.36195,792
0.3636333,770
0.3652833,1388
0.3669667,2504
0.3686333,3957
0.3703,5234
0.3719667,6346
0.3736333,6522
0.3753,7603
0.3769667,7926
0.3786333,7677
0.3803,7938
0.3819667,5874
0.3836333,4967
0.3853,4767
0.3869667,3616
0.3886333,3325
0.3903,2758
0.3919667,2062
0.3936333,1570
0.3953,1422
0.3969667,1013
0.3986333,1017
0.4003,1007
0.4019667,919
0.4036333,927
0.4053,935
0.4069667,763
0.4086333,1037
0.4103,1074
0.4119667,1153
0.4136333,973
0.4153,955
0.4169667,953
0.4186333,993
0.4203,1033
0.4219667,1010
0.4236333,986
0.4253,994
0.4269667,959
0.4286333,1217
0.4303,1273
0.4319667,1390
0.4336333,1765
0.4353,2525
0.4369667,4006
0.4386333,6099
0.4403,9296
0.4419667,14492
0.4436333,20852
0.4453,30964
0.4469667,43536
0.4486333,53984
0.4503,69680
0.4519667,84320
0.4536333,98640
0.4553,112784
0.4569667,129248
0.4586333,138496
0.4603,149568
0.4619667,162560
0.4636333,174272
0.4653,190912
0.4669667,205760
0.4686333,224128
0.4703,237440
0.4719667,256320
0.4736333,259264
0.4753,259136
0.4769667,247488
0.4786333,236032
0.4803,213888
0.4819667,189760
0.4836333,170112
0.4853,144960
0.4869667,120592
0.4886333,98448
0.4903,78704
0.4919667,62960
0.4936333,48672
0.4953,38192
0.4969667,29736
0.4986333,22852
0.5003,19704
0.5019667,13948
0.5036333,11404
0.5053,10160
0.5069667,8080
0.5086333,7418
0.5103,6845
0.5119666,5643
0.5136333,5259
0.5153,4674
0.5169666,4636
0.5186333,4333
0.5203,3675
0.5219667,3663
0.5236334,3901
0.5253,3338
0.5269667,3038
0.5286334,3059
0.5303,2864
0.5319667,2682
0.5336334,2820
0.5353,2516
0.5369667,2514
0.5386333,2316
0.5403,2185
0.5419667,2491
0.5436333,2136
0.5453,2357
0.5469667,2134
0.5486333,2155
0.5503,2037
0.5519667,1778
0.5536333,2047
0.5553,1915
0.5569667,1581
0.5586333,1635
0.5603,1580
0.5619667,1485
0.5636333,1523
0.5653,1273
0.5669667,1653
0.5686333,1467
0.5703,1332
0.5719666,1361
0.5736333,1220
0.5753,1415
0.5769666,1369
0.5786333,1470
0.5803,1488
0.5819666,1204
0.5836333,1461
0.5853,1168
0.5869667,1115
0.5886334,1396
0.5903,1396
0.5919667,1402
0.5936334,1410
0.5953,1417
0.5969667,1113
0.5986333,1221
0.6003,879
0.6019667,1120
0.6036333,1428
0.6053,1276
0.6069667,1292
0.6086333,1156
0.6103,1049
0.6119667,1178
0.6136333,1072
0.6153,1071
0.6169667,1113
0.6186333,1178
0.6203,941
0.6219667,845
0.6236333,1100
0.6253,906
0.6269667,973
0.6286333,1043
0.6303,1012
0.6319667,860
0.6336333,1013
0.6353,1018
0.6369666,821
0.6386333,643
0.6403,930
0.6419666,890
0.6436333,819
0.6453,773
0.6469667,822
0.6486334,871
0.6503,889
0.6519667,885
0.6536334,798
0.6553,765
0.6569667,820
0.6586334,721
0.6603,777
0.6619667,832
0.6636333,871
0.6653,660
0.6669667,744
0.6686333,910
0.6703,752
0.6719667,777
0.6736333,578
0.6753,834
0.6769667,567
0.6786333,817
0.6803,611
0.6819667,568
0.6836333,736
0.6853,679
0.6869667,727
0.6886333,714
0.6903,702
0.6919667,657
0.6936333,650
0.6953,703
0.6969666,720
0.6986333,632
0.7003,645
0.7019666,801
0.7036333,782
0.7053,864
0.7069666,761
0.7086333,682
0.7103,766
0.7119667,685
0.7136334,695
0.7153,778
0.7169667,835
0.7186334,808
0.7203,795
0.7219667,664
0.7236333,660
0.7253,592
0.7269667,719
0.7286333,669
0.7303,753
0.7319667,627
0.7336333,720
0.7353,698
0.7369667,767
0.7386333,836
0.7403,827
0.7419667,641
0.7436333,591
0.7453,893
0.7469667,757
0.7486333,512
0.7503,641
0.7519667,595
0.7536333,671
0.7553,710
0.7569667,840
0.7586333,795
0.7603,776
0.7619666,579
0.7636333,849
0.7653,818
0.7669666,755
0.7686333,539
0.7703,717
0.7719667,650
0.7736334,663
0.7753,705
0.7769667,686
0.7786334,600
0.7803,645
0.7819667,690
0.7836334,611
0.7853,736
0.7869667,689
0.7886333,722
0.7903,722
0.7919667,754
0.7936333,792
0.7953,831
0.7969667,632
0.7986333,675
0.8003,893
0.8019667,678
0.8036333,751
0.8053,675
0.8069667,775
0.8086333,712
0.8103,741
0.8119667,770
0.8136333,746
0.8153,661
0.8169667,739
0.8186333,751
0.8203,762
0.8219666,779
0.8236333,796
0.8253,799
0.8269666,802
0.8286333,695
0.8303,814
0.8319666,859
0.8336333,872
0.8353,885
0.8369667,923
0.8386334,771
0.8403,903
0.8419667,779
0.8436334,795
0.8453,810
0.8469667,808
0.8486333,745
0.8503,646
0.8519667,746
0.8536333,751
0.8553,755
0.8569667,775
0.8586333,741
0.8603,707
0.8619667,661
0.8636333,614
0.8653,699
0.8669667,669
0.8686333,656
0.8703,702
0.8719667,689
0.8736333,676
0.8753,702
0.8769667,1235
0.8786333,1388
0.8803,1952
0.8819667,2105
0.8836333,2369
0.8853,2689
0.8869666,3042
0.8886333,3114
0.8903,3151
0.8919666,2831
0.8936333,3336
0.8953,3269
0.8969667,3282
0.8986334,3386
0.9003,3019
0.9019667,3486
0.9036334,3172
0.9053,3158
0.9069667,3251
0.9086334,3344
0.9103,3346
0.9119667,3348
0.9136333,3153
0.9153,3517
0.9169667,3459
0.9186333,3431
0.9203,3197
0.9219667,3314
0.9236333,3431
0.9253,3154
0.9269667,3132
0.9286333,3269
0.9303,3321
0.9319667,3005
0.9336333,2945
0.9353,3036
0.9369667,2955
0.9386333,2873
0.9403,3027
0.9419667,2759
0.9436333,2701
0.9453,2383
0.9469666,2675
0.9486333,2453
0.9503,2366
0.9519666,2334
0.9536333,2096
0.9553,2047
0.9569666,2043
0.9586333,1998
0.9603,1750
0.9619667,1417
0.9636334,1906
0.9653,1498
0.9669667,1522
0.9686334,1168
0.9703,1534
0.9719667,1210
0.9736333,1075
0.9753,1168
0.9769667,960
0.9786333,935
0.9803,1010
0.9819667,976
0.9836333,940
0.9853,735
0.9869667,649
0.9886333,771
0.9903,532
0.9919667,688
0.9936333,618
0.9953,622
0.9969667,697
0.9986333,588
1.0003,488
1.001967,568
1.003633,564
1.0053,556
1.006967,576
1.008633,596
1.0103,522
1.011967,602
1.013633,536
1.0153,469
1.016967,526
1.018633,476
1.0203,426
1.021967,628
1.023633,582
1.0253,613
1.026967,632
1.028633,652
1.0303,588
1.031967,594
1.033633,537
1.0353,619
1.036967,625
1.038633,557
1.0403,562
1.041967,567
1.043633,598
1.0453,628
1.046967,664
1.048633,669
1.0503,711
1.051967,584
1.053633,610
1.0553,661
1.056967,644
1.058633,627
1.0603,516
1.061967,899
1.063633,823
1.0653,587
1.066967,666
1.068633,628
1.0703,624
1.071967,601
1.073633,579
1.0753,636
1.076967,654
1.078633,641
1.0803,627
1.081967,718
1.083633,697
1.0853,676
1.086967,658
1.088633,688
1.0903,624
1.091967,775
1.093633,756
1.0953,822
1.096967,668
1.098633,680
1.1003,795
1.101967,582
1.103633,770
1.1053,675
1.106967,763
1.108633,687
1.1103,570
1.111967,571
1.113633,732
1.1153,502
1.116967,433
1.118633,750
1.1203,772
1.121967,882
1.123633,572
1.1253,706
1.126967,599
1.128633,724
1.1303,581
1.131967,652
1.133633,733
1.1353,736
1.136967,648
1.138633,523
1.1403,689
1.141967,592
1.143633,689
1.1453,665
1.146967,658
1.148633,657
1.1503,612
1.151967,567
1.153633,631
1.1553,695
1.156967,779
1.158633,754
1.1603,698
1.161967,756
1.163633,736
1.1653,716
1.166967,720
1.168633,694
1.1703,668
1.171967,792
1.173633,850
1.1753,788
1.176967,586
1.178633,876
1.1803,637
1.181967,802
1.183633,686
1.1853,648
1.186967,700
1.188633,773
1.1903,728
1.191967,683
1.193633,769
1.1953,772
1.196967,775
1.198633,812
