"SampleName","A2Rd2_01-76"
"Target Mass 1",
"Column Name","IA-3 (3um, 4.6X100)"
"Channel","QDa 1: SIR Ch1"
0.00195,343
0.003616667,488
0.005283333,532
0.00695,599
0.008616666,577
0.01028333,392
0.01195,533
0.01361667,658
0.01528333,494
0.01695,415
0.01861667,580
0.02028333,646
0.02195,653
0.02361667,583
0.02528333,659
0.02695,512
0.02861667,578
0.03028333,589
0.03195,490
0.03361667,526
0.03528333,375
0.03695,440
0.03861667,430
0.04028333,527
0.04195,553
0.04361667,578
0.04528333,568
0.04695,550
0.04861667,531
0.05028334,543
0.05195,503
0.05361667,400
0.05528333,383
0.05695,413
0.05861667,442
0.06028333,666
0.06195,628
0.06361666,620
0.06528334,608
0.06695,612
0.06861667,604
0.07028333,463
0.07195,518
0.07361667,477
0.07528333,517
0.07695,537
0.07861666,491
0.08028334,445
0.08195,519
0.08361667,514
0.08528333,509
0.08695,526
0.08861667,544
0.09028333,552
0.09195,531
0.09361666,510
0.09528334,539
0.09695,645
0.09861667,633
0.1002833,456
0.10195,546
0.1036167,543
0.1052833,445
0.10695,604
0.1086167,481
0.1102833,500
0.11195,567
0.1136167,482
0.1152833,448
0.11695,485
0.1186167,455
0.1202833,426
0.12195,505
0.1236167,601
0.1252833,588
0.12695,525
0.1286167,387
0.1302833,508
0.13195,664
0.1336167,593
0.1352833,382
0.13695,524
0.1386167,542
0.1402833,533
0.14195,507
0.1436167,566
0.1452833,502
0.14695,437
0.1486167,612
0.1502833,443
0.15195,532
0.1536167,523
0.1552833,513
0.15695,464
0.1586167,567
0.1602833,561
0.16195,555
0.1636167,383
0.1652833,588
0.16695,394
0.1686167,497
0.1702833,657
0.17195,471
0.1736167,589
0.1752833,592
0.17695,565
0.1786167,464
0.1802833,568
0.18195,471
0.1836167,519
0.1852833,520
0.18695,591
0.1886167,555
0.1902833,462
0.19195,518
0.1936167,426
0.1952833,541
0.19695,558
0.1986167,438
0.2002833,428
0.20195,418
0.2036167,428
0.2052833,423
0.20695,419
0.2086167,523
0.2102833,523
0.21195,523
0.2136167,535
0.2152833,546
0.21695,520
0.2186167,493
0.2202833,438
0.22195,517
0.2236167,514
0.2252833,511
0.22695,480
0.2286167,450
0.2302833,562
0.23195,553
0.2336167,572
0.2352833,537
0.23695,586
0.2386167,493
0.2402833,485
0.24195,494
0.2436167,532
0.2452833,493
0.24695,453
0.2486167,554
0.2502833,478
0.25195,509
0.2536167,498
0.2552833,487
0.25695,590
0.2586167,539
0.2602833,489
0.26195,429
0.2636333,537
0.2652833,404
0.26695,562
0.2686167,430
0.2702833,388
0.27195,576
0.2736167,512
0.2752833,597
0.27695,568
0.2786167,539
0.2803,627
0.28195,476
0.2836167,472
0.2852833,499
0.28695,504
0.2886167,511
0.2902833,545
0.29195,449
0.2936167,497
0.2952833,621
0.2969667,564
0.2986333,432
0.3002833,458
0.30195,612
0.3036167,400
0.3052833,436
0.30695,510
0.3086167,541
0.3102833,440
0.31195,581
0.3136333,712
0.3153,635
0.31695,544
0.3186167,496
0.3202833,437
0.3219667,443
0.3236167,450
0.3252833,466
0.32695,468
0.3286167,470
0.3303,491
0.33195,512
0.3336333,523
0.3352833,535
0.33695,391
0.3386333,421
0.3402833,430
0.34195,576
0.3436167,557
0.3452833,532
0.3469667,468
0.3486167,481
0.3503,539
0.35195,496
0.3536167,453
0.3553,508
0.35695,496
0.3586333,483
0.3603,600
0.36195,667
0.3636333,1044
0.3652833,1280
0.36695,2621
0.3686333,3911
0.3702833,5394
0.3719667,6802
0.3736167,7622
0.3753,7634
0.3769667,7987
0.3786167,7767
0.3803,6715
0.38195,5305
0.3836167,4998
0.3853,4580
0.38695,3436
0.3886333,3351
0.3902833,2672
0.3919667,2127
0.3936333,1966
0.3953,1361
0.3969667,1314
0.3986333,1112
0.4003,1090
0.40195,987
0.4036333,1014
0.4053,893
0.4069667,1029
0.4086333,1009
0.4103,988
0.4119667,1014
0.4136333,1040
0.4153,1297
0.4169667,1428
0.4186333,1211
0.4203,1220
0.4219667,944
0.4236333,1232
0.4253,1070
0.4269667,1118
0.4286333,1188
0.4303,1060
0.4319667,1234
0.4336333,1386
0.4353,1972
0.4369667,2758
0.4386333,4265
0.4403,6460
0.4419667,9536
0.4436333,13416
0.4453,21368
0.4469667,30236
0.4486333,40448
0.4503,51360
0.4519667,66192
0.4536333,80320
0.4553,95392
0.4569667,109440
0.4586333,125648
0.4603,135168
0.4619667,150080
0.4636333,164992
0.4653,178048
0.4669667,193280
0.4686333,212480
0.4703,230592
0.4719667,242496
0.4736333,255872
0.4753,258368
0.4769667,250368
0.4786333,238144
0.4803,219200
0.4819667,192384
0.4836333,170432
0.4853,145280
0.4869667,119664
0.4886333,98048
0.4903,78368
0.4919667,60160
0.4936333,45024
0.4953,37168
0.4969667,28144
0.4986333,21716
0.5003,16740
0.5019667,13600
0.5036333,11752
0.5053,9284
0.5069667,7636
0.5086333,7389
0.5103,6184
0.5119666,5177
0.5136333,5090
0.5153,4613
0.5169666,4296
0.5186333,3752
0.5203,3457
0.5219667,3555
0.5236334,3380
0.5253,2959
0.5269667,3005
0.5286334,3042
0.5303,2846
0.5319667,2944
0.5336334,2709
0.5353,2495
0.5369667,2839
0.5386333,2274
0.5403,2188
0.5419667,2577
0.5436333,1955
0.5453,2365
0.5469667,1991
0.5486333,1766
0.5503,1773
0.5519667,1808
0.5536333,1694
0.5553,1922
0.5569667,1995
0.5586333,1639
0.5603,1483
0.5619667,1842
0.5636333,1328
0.5653,1601
0.5669667,1488
0.5686333,1391
0.5703,1422
0.5719666,1305
0.5736333,1188
0.5753,1334
0.5769666,1359
0.5786333,1244
0.5803,1273
0.5819666,1302
0.5836333,1221
0.5853,1199
0.5869667,1306
0.5886334,1247
0.5903,1184
0.5919667,1008
0.5936334,1073
0.5953,1065
0.5969667,1056
0.5986333,1091
0.6003,1157
0.6019667,1223
0.6036333,1212
0.6053,1045
0.6069667,1229
0.6086333,1305
0.6103,1152
0.6119667,1299
0.6136333,1086
0.6153,973
0.6169667,1023
0.6186333,1095
0.6203,1034
0.6219667,974
0.6236333,956
0.6253,885
0.6269667,943
0.6286333,1002
0.6303,999
0.6319667,995
0.6336333,881
0.6353,747
0.6369666,816
0.6386333,822
0.6403,863
0.6419666,858
0.6436333,876
0.6453,922
0.6469667,776
0.6486334,807
0.6503,829
0.6519667,851
0.6536334,803
0.6553,803
0.6569667,804
0.6586334,639
0.6603,714
0.6619667,789
0.6636333,776
0.6653,827
0.6669667,782
0.6686333,738
0.6703,737
0.6719667,788
0.6736333,759
0.6753,725
0.6769667,687
0.6786333,631
0.6803,662
0.6819667,619
0.6836333,673
0.6853,658
0.6869667,643
0.6886333,767
0.6903,764
0.6919667,621
0.6936333,579
0.6953,751
0.6969666,552
0.6986333,734
0.7003,860
0.7019666,797
0.7036333,737
0.7053,641
0.7069666,700
0.7086333,538
0.7103,695
0.7119667,627
0.7136334,624
0.7153,678
0.7169667,694
0.7186334,709
0.7203,644
0.7219667,686
0.7236333,727
0.7253,681
0.7269667,739
0.7286333,738
0.7303,507
0.7319667,766
0.7336333,730
0.7353,598
0.7369667,637
0.7386333,654
0.7403,676
0.7419667,691
0.7436333,707
0.7453,708
0.7469667,619
0.7486333,765
0.7503,641
0.7519667,694
0.7536333,665
0.7553,676
0.7569667,641
0.7586333,605
0.7603,616
0.7619666,710
0.7636333,841
0.7653,778
0.7669666,680
0.7686333,785
0.7703,615
0.7719667,544
0.7736334,746
0.7753,759
0.7769667,708
0.7786334,632
0.7803,696
0.7819667,726
0.7836334,655
0.7853,694
0.7869667,719
0.7886333,744
0.7903,671
0.7919667,693
0.7936333,696
0.7953,625
0.7969667,623
0.7986333,591
0.8003,618
0.8019667,645
0.8036333,572
0.8053,593
0.8069667,741
0.8086333,714
0.8103,741
0.8119667,702
0.8136333,778
0.8153,785
0.8169667,768
0.8186333,811
0.8203,800
0.8219666,822
0.8236333,695
0.8253,823
0.8269666,852
0.8286333,761
0.8303,761
0.8319666,650
0.8336333,645
0.8353,692
0.8369667,740
0.8386334,736
0.8403,733
0.8419667,672
0.8436334,742
0.8453,811
0.8469667,794
0.8486333,791
0.8503,656
0.8519667,766
0.8536333,615
0.8553,614
0.8569667,730
0.8586333,716
0.8603,703
0.8619667,673
0.8636333,644
0.8653,721
0.8669667,658
0.8686333,671
0.8703,792
0.8719667,756
0.8736333,668
0.8753,519
0.8769667,698
0.8786333,808
0.8803,1383
0.8819667,1730
0.8836333,1557
0.8853,2495
0.8869666,2648
0.8886333,2332
0.8903,3111
0.8919666,2901
0.8936333,2847
0.8953,2967
0.8969667,2998
0.8986334,2923
0.9003,2919
0.9019667,2915
0.9036334,3044
0.9053,3173
0.9069667,3258
0.9086334,3196
0.9103,3133
0.9119667,3218
0.9136333,3210
0.9153,3202
0.9169667,3227
0.9186333,3252
0.9203,3322
0.9219667,3317
0.9236333,3269
0.9253,3312
0.9269667,3218
0.9286333,3124
0.9303,3084
0.9319667,2645
0.9336333,3022
0.9353,3062
0.9369667,2871
0.9386333,2602
0.9403,2916
0.9419667,2583
0.9436333,2737
0.9453,2794
0.9469666,2628
0.9486333,2685
0.9503,2290
0.9519666,2279
0.9536333,2227
0.9553,2053
0.9569666,1851
0.9586333,1735
0.9603,1738
0.9619667,1634
0.9636334,1553
0.9653,1432
0.9669667,1419
0.9686334,1228
0.9703,1226
0.9719667,1228
0.9736333,1204
0.9753,1179
0.9769667,992
0.9786333,1005
0.9803,942
0.9819667,689
0.9836333,1046
0.9853,685
0.9869667,703
0.9886333,530
0.9903,638
0.9919667,567
0.9936333,605
0.9953,565
0.9969667,526
0.9986333,597
1.0003,574
1.001967,550
1.003633,602
1.0053,620
1.006967,638
1.008633,602
1.0103,606
1.011967,662
1.013633,517
1.0153,659
1.016967,535
1.018633,516
1.0203,512
1.021967,589
1.023633,581
1.0253,574
1.026967,528
1.028633,563
1.0303,550
1.031967,573
1.033633,597
1.0353,491
1.036967,633
1.038633,647
1.0403,593
1.041967,535
1.043633,631
1.0453,496
1.046967,677
1.048633,557
1.0503,527
1.051967,601
1.053633,773
1.0553,766
1.056967,737
1.058633,748
1.0603,564
1.061967,518
1.063633,516
1.0653,670
1.066967,633
1.068633,596
1.0703,604
1.071967,602
1.073633,552
1.0753,487
1.076967,488
1.078633,562
1.0803,572
1.081967,610
1.083633,649
1.0853,658
1.086967,612
1.088633,641
1.0903,491
1.091967,511
1.093633,537
1.0953,536
1.096967,534
1.098633,594
1.1003,616
1.101967,639
1.103633,601
1.1053,601
1.106967,600
1.108633,603
1.1103,606
1.111967,581
1.113633,579
1.1153,577
1.116967,574
1.118633,570
1.1203,606
1.121967,475
1.123633,510
1.1253,703
1.126967,704
1.128633,566
1.1303,767
1.131967,617
1.133633,681
1.1353,508
1.136967,614
1.138633,761
1.1403,636
1.141967,556
1.143633,780
1.1453,669
1.146967,541
1.148633,687
1.1503,721
1.151967,669
1.153633,572
1.1553,693
1.156967,765
1.158633,773
1.1603,778
1.161967,675
1.163633,699
1.1653,724
1.166967,706
1.168633,688
1.1703,851
1.171967,872
1.173633,691
1.1753,687
1.176967,709
1.178633,657
1.1803,514
1.181967,864
1.183633,745
1.1853,801
1.186967,853
1.188633,668
1.1903,841
1.191967,675
1.193633,993
1.1953,926
1.196967,853
1.198633,1012
