"SampleName","A2Rd2_01-92"
"Target Mass 1",
"Column Name","IA-3 (3um, 4.6X100)"
"Channel","QDa 1: SIR Ch1"
0.00195,291
0.003616667,573
0.005283333,666
0.00695,535
0.008616666,565
0.01028333,559
0.01195,424
0.01361667,475
0.01528333,526
0.01695,562
0.01861667,541
0.02028333,558
0.02195,517
0.02361667,477
0.02528333,487
0.02695,565
0.02861667,583
0.03028333,593
0.03195,452
0.03361667,588
0.03528333,561
0.03695,573
0.03861667,586
0.04028333,599
0.04195,501
0.04361667,456
0.04528333,488
0.04695,519
0.04861667,607
0.05028334,603
0.05195,546
0.05361667,489
0.05528333,635
0.05695,608
0.05861667,615
0.06028333,493
0.06195,512
0.06361666,494
0.06528334,477
0.06695,565
0.06861667,616
0.07028333,712
0.07195,670
0.07361667,520
0.07528333,627
0.07695,543
0.07861666,661
0.08028334,696
0.08195,640
0.08361667,476
0.08528333,579
0.08695,487
0.08861667,451
0.09028333,501
0.09195,492
0.09361666,633
0.09528334,669
0.09695,612
0.09861667,586
0.1002833,545
0.10195,567
0.1036167,466
0.1052833,531
0.10695,596
0.1086167,568
0.1102833,468
0.11195,452
0.1136167,477
0.1152833,495
0.11695,514
0.1186167,556
0.1202833,569
0.12195,561
0.1236167,554
0.1252833,567
0.12695,581
0.1286167,569
0.1302833,558
0.13195,544
0.1336167,524
0.1352833,585
0.13695,563
0.1386167,541
0.1402833,564
0.14195,545
0.1436167,469
0.1452833,597
0.14695,450
0.1486167,556
0.1502833,512
0.15195,481
0.1536167,481
0.1552833,524
0.15695,456
0.1586167,521
0.1602833,525
0.16195,511
0.1636167,534
0.1652833,472
0.16695,568
0.1686167,428
0.1702833,439
0.17195,451
0.1736167,544
0.1752833,557
0.17695,574
0.1786167,514
0.1802833,488
0.18195,508
0.1836167,528
0.1852833,520
0.18695,551
0.1886167,581
0.1902833,362
0.19195,508
0.1936167,476
0.1952833,532
0.19695,508
0.1986167,484
0.2002833,586
0.20195,378
0.2036167,558
0.2052833,523
0.20695,567
0.2086167,572
0.2102833,589
0.21195,571
0.2136167,536
0.2152833,602
0.21695,487
0.2186167,487
0.2202833,481
0.22195,492
0.2236167,484
0.2252833,476
0.22695,505
0.2286167,533
0.2302833,351
0.23195,563
0.2336167,532
0.2352833,530
0.23695,534
0.2386167,551
0.2402833,569
0.24195,385
0.2436167,455
0.2453,461
0.24695,467
0.2486167,497
0.2502833,413
0.25195,328
0.2536167,562
0.2552833,483
0.25695,448
0.2586167,452
0.2602833,478
0.26195,569
0.2636333,605
0.2653,603
0.2669667,522
0.2686167,687
0.2703,356
0.27195,579
0.2736333,489
0.2752833,571
0.27695,598
0.2786167,602
0.2803,566
0.28195,472
0.2836167,472
0.2852833,472
0.2869667,511
0.2886167,547
0.2902833,824
0.29195,789
0.2936167,579
0.2952833,573
0.2969667,617
0.2986333,622
0.3002833,626
0.30195,465
0.3036333,668
0.3052833,586
0.3069667,574
0.3086167,562
0.3102833,577
0.3119667,592
0.3136167,478
0.3153,504
0.31695,547
0.3186167,551
0.3203,554
0.32195,564
0.3236333,574
0.3252833,538
0.32695,560
0.3286333,582
0.3302833,616
0.33195,650
0.3336333,645
0.3352833,654
0.3369667,538
0.3386167,424
0.3403,570
0.34195,598
0.3436333,596
0.3453,564
0.34695,533
0.3486333,601
0.3503,438
0.35195,601
0.3536333,465
0.3552833,442
0.3569667,615
0.3586167,597
0.3603,688
0.3619667,739
0.3636333,1006
0.3652833,1499
0.3669667,2634
0.3686333,3762
0.3703,5740
0.3719667,6131
0.3736333,6439
0.3753,7096
0.3769667,7427
0.3786333,7631
0.3803,7643
0.38195,6665
0.3836333,5711
0.3853,4782
0.3869667,4205
0.3886333,3603
0.3903,2789
0.3919667,1948
0.3936333,1664
0.3953,1155
0.3969667,1377
0.3986333,1223
0.4003,950
0.4019667,760
0.4036333,1115
0.4053,955
0.4069667,771
0.4086333,1023
0.4103,1111
0.4119667,1053
0.4136333,1048
0.4153,1043
0.4169667,1103
0.4186333,1063
0.4203,1022
0.4219667,1100
0.4236333,1244
0.4253,1136
0.4269667,1027
0.4286333,1088
0.4303,1175
0.4319667,1630
0.4336333,1809
0.4353,2400
0.4369667,3935
0.4386333,5238
0.4403,8388
0.4419667,13300
0.4436333,20056
0.4453,30284
0.4469667,41136
0.4486333,56528
0.4503,72992
0.4519667,91168
0.4536333,108416
0.4553,129488
0.4569667,147456
0.4586333,163008
0.4603,180224
0.4619667,193984
0.4636333,207872
0.4653,223040
0.4669667,239680
0.4686333,257216
0.4703,280128
0.4719667,296064
0.4736333,307264
0.4753,318400
0.4769667,330368
0.4786333,318720
0.4803,304256
0.4819667,293824
0.4836333,265920
0.4853,246080
0.4869667,210304
0.4886333,182848
0.4903,153088
0.4919667,125472
0.4936333,103008
0.4953,84816
0.4969667,67776
0.4986333,53200
0.5003,41584
0.5019667,33392
0.5036333,26676
0.5053,21404
0.5069667,17268
0.5086333,13908
0.5103,12624
0.5119666,9620
0.5136333,8948
0.5153,7745
0.5169666,7336
0.5186333,6394
0.5203,5559
0.5219667,5476
0.5236334,5510
0.5253,4827
0.5269667,4618
0.5286334,4361
0.5303,3939
0.5319667,3864
0.5336334,3798
0.5353,3428
0.5369667,3480
0.5386333,3514
0.5403,3199
0.5419667,3166
0.5436333,3347
0.5453,2629
0.5469667,2456
0.5486333,2481
0.5503,2503
0.5519667,2363
0.5536333,2303
0.5553,2294
0.5569667,2138
0.5586333,2062
0.5603,2312
0.5619667,2168
0.5636333,1930
0.5653,1738
0.5669667,1765
0.5686333,1727
0.5703,1663
0.5719666,1732
0.5736333,1671
0.5753,1675
0.5769666,1640
0.5786333,1467
0.5803,1442
0.5819666,1518
0.5836333,1456
0.5853,1394
0.5869667,1420
0.5886334,1445
0.5903,1363
0.5919667,1282
0.5936334,1337
0.5953,1392
0.5969667,1497
0.5986333,1465
0.6003,1447
0.6019667,1208
0.6036333,1437
0.6053,1589
0.6069667,1361
0.6086333,1219
0.6103,1367
0.6119667,1343
0.6136333,1379
0.6153,1314
0.6169667,1249
0.6186333,1239
0.6203,1191
0.6219667,1142
0.6236333,1046
0.6253,1133
0.6269667,1185
0.6286333,1121
0.6303,1235
0.6319667,1039
0.6336333,1105
0.6353,946
0.6369666,1113
0.6386333,1056
0.6403,1022
0.6419666,1036
0.6436333,818
0.6453,961
0.6469667,807
0.6486334,959
0.6503,1003
0.6519667,882
0.6536334,760
0.6553,943
0.6569667,1050
0.6586334,728
0.6603,1112
0.6619667,811
0.6636333,904
0.6653,906
0.6669667,910
0.6686333,914
0.6703,1056
0.6719667,1055
0.6736333,774
0.6753,832
0.6769667,844
0.6786333,864
0.6803,883
0.6819667,917
0.6836333,935
0.6853,748
0.6869667,833
0.6886333,726
0.6903,885
0.6919667,829
0.6936333,913
0.6953,909
0.6969666,769
0.6986333,856
0.7003,866
0.7019666,933
0.7036333,867
0.7053,708
0.7069666,702
0.7086333,692
0.7103,703
0.7119667,714
0.7136334,720
0.7153,727
0.7169667,789
0.7186334,817
0.7203,845
0.7219667,894
0.7236333,733
0.7253,689
0.7269667,803
0.7286333,794
0.7303,785
0.7319667,796
0.7336333,567
0.7353,619
0.7369667,718
0.7386333,741
0.7403,763
0.7419667,792
0.7436333,822
0.7453,617
0.7469667,632
0.7486333,772
0.7503,715
0.7519667,658
0.7536333,681
0.7553,788
0.7569667,886
0.7586333,809
0.7603,951
0.7619666,908
0.7636333,780
0.7653,872
0.7669666,793
0.7686333,690
0.7703,812
0.7719667,678
0.7736334,509
0.7753,755
0.7769667,690
0.7786334,659
0.7803,735
0.7819667,633
0.7836334,603
0.7853,761
0.7869667,680
0.7886333,853
0.7903,801
0.7919667,736
0.7936333,655
0.7953,654
0.7969667,721
0.7986333,652
0.8003,676
0.8019667,708
0.8036333,682
0.8053,656
0.8069667,662
0.8086333,668
0.8103,620
0.8119667,782
0.8136333,801
0.8153,735
0.8169667,892
0.8186333,597
0.8203,626
0.8219666,843
0.8236333,751
0.8253,857
0.8269666,833
0.8286333,625
0.8303,703
0.8319666,911
0.8336333,891
0.8353,819
0.8369667,782
0.8386334,880
0.8403,841
0.8419667,833
0.8436334,830
0.8453,799
0.8469667,771
0.8486333,707
0.8503,709
0.8519667,747
0.8536333,724
0.8553,702
0.8569667,821
0.8586333,617
0.8603,667
0.8619667,808
0.8636333,751
0.8653,695
0.8669667,738
0.8686333,735
0.8703,557
0.8719667,678
0.8736333,770
0.8753,844
0.8769667,1228
0.8786333,1278
0.8803,1731
0.8819667,1987
0.8836333,2272
0.8853,2658
0.8869666,2911
0.8886333,2936
0.8903,3199
0.8919666,3266
0.8936333,3222
0.8953,3058
0.8969667,2988
0.8986334,3052
0.9003,3130
0.9019667,3101
0.9036334,3100
0.9053,3167
0.9069667,2762
0.9086334,2878
0.9103,2944
0.9119667,3011
0.9136333,2898
0.9153,2954
0.9169667,2874
0.9186333,2806
0.9203,3108
0.9219667,3036
0.9236333,3078
0.9253,3140
0.9269667,2579
0.9286333,2800
0.9303,2846
0.9319667,2732
0.9336333,2862
0.9353,2855
0.9369667,2585
0.9386333,2494
0.9403,2727
0.9419667,2601
0.9436333,2380
0.9453,2441
0.9469666,2124
0.9486333,2234
0.9503,2275
0.9519666,1862
0.9536333,1887
0.9553,1926
0.9569666,1985
0.9586333,1706
0.9603,1873
0.9619667,1375
0.9636334,1600
0.9653,1326
0.9669667,1274
0.9686334,1436
0.9703,1039
0.9719667,1155
0.9736333,1032
0.9753,1022
0.9769667,756
0.9786333,954
0.9803,830
0.9819667,865
0.9836333,819
0.9853,763
0.9869667,567
0.9886333,560
0.9903,566
0.9919667,684
0.9936333,707
0.9953,663
0.9969667,578
0.9986333,610
1.0003,643
1.001967,655
1.003633,527
1.0053,705
1.006967,465
1.008633,699
1.0103,537
1.011967,605
1.013633,531
1.0153,570
1.016967,597
1.018633,601
1.0203,539
1.021967,613
1.023633,591
1.0253,560
1.026967,601
1.028633,625
1.0303,650
1.031967,606
1.033633,612
1.0353,594
1.036967,566
1.038633,539
1.0403,526
1.041967,513
1.043633,464
1.0453,516
1.046967,568
1.048633,583
1.0503,597
1.051967,611
1.053633,598
1.0553,585
1.056967,615
1.058633,472
1.0603,637
1.061967,596
1.063633,635
1.0653,587
1.066967,500
1.068633,522
1.0703,543
1.071967,565
1.073633,619
1.0753,598
1.076967,577
1.078633,571
1.0803,571
1.081967,621
1.083633,431
1.0853,696
1.086967,609
1.088633,583
1.0903,452
1.091967,638
1.093633,646
1.0953,588
1.096967,673
1.098633,617
1.1003,547
1.101967,733
1.103633,650
1.1053,796
1.106967,761
1.108633,774
1.1103,498
1.111967,659
1.113633,497
1.1153,472
1.116967,726
1.118633,602
1.1203,587
1.121967,534
1.123633,557
1.1253,580
1.126967,603
1.128633,613
1.1303,737
1.131967,689
1.133633,641
1.1353,721
1.136967,662
1.138633,514
1.1403,706
1.141967,631
1.143633,737
1.1453,764
1.146967,521
1.148633,482
1.1503,720
1.151967,729
1.153633,638
1.1553,682
1.156967,473
1.158633,704
1.1603,611
1.161967,651
1.163633,620
1.1653,644
1.166967,616
1.168633,622
1.1703,621
1.171967,620
1.173633,712
1.1753,742
1.176967,670
1.178633,665
1.1803,541
1.181967,580
1.183633,683
1.1853,754
1.186967,825
1.188633,864
1.1903,741
1.191967,630
1.193633,782
1.1953,798
1.196967,849
1.198633,668
