"SampleName","A2Rd2_01-14"
"Target Mass 1",
"Column Name","IA-3 (3um, 4.6X100)"
"Channel","QDa 1: SIR Ch1"
0.00195,286
0.003616667,542
0.005283333,536
0.00695,446
0.008616666,517
0.01028333,489
0.01195,462
0.01361667,455
0.01528333,458
0.01695,481
0.01861667,505
0.02028333,511
0.02195,451
0.02361667,484
0.02528333,501
0.02695,427
0.02861667,409
0.03028333,392
0.03195,380
0.03361667,367
0.03528333,389
0.03695,410
0.03861667,402
0.04028333,438
0.04195,474
0.04361667,437
0.04528333,401
0.04695,421
0.04861667,442
0.05028334,448
0.05195,454
0.05361667,472
0.05528333,490
0.05695,458
0.05861667,427
0.06028333,538
0.06195,519
0.06361666,500
0.06528334,508
0.06695,426
0.06861667,501
0.07028333,467
0.07195,493
0.07361667,474
0.07528333,456
0.07695,501
0.07861666,452
0.08028334,459
0.08195,382
0.08361667,456
0.08528333,428
0.08695,446
0.08861667,451
0.09028333,493
0.09195,491
0.09361666,420
0.09528334,501
0.09695,542
0.09861667,465
0.1002833,549
0.10195,356
0.1036167,432
0.1052833,571
0.10695,480
0.1086167,541
0.1102833,498
0.11195,512
0.1136167,524
0.1152833,499
0.11695,473
0.1186167,311
0.1202833,567
0.12195,510
0.1236167,557
0.1252833,575
0.12695,522
0.1286167,488
0.1302833,485
0.13195,440
0.1336167,444
0.1352833,428
0.13695,411
0.1386167,443
0.1402833,413
0.14195,407
0.1436167,400
0.1452833,453
0.14695,540
0.1486167,531
0.1502833,481
0.15195,420
0.1536167,360
0.1552833,481
0.15695,433
0.1586167,526
0.1602833,538
0.16195,549
0.1636167,486
0.1652833,463
0.16695,438
0.1686167,458
0.1702833,439
0.17195,420
0.1736167,443
0.1752833,467
0.17695,476
0.1786167,465
0.1802833,439
0.18195,414
0.1836167,409
0.1852833,436
0.18695,385
0.1886167,395
0.1902833,405
0.19195,455
0.1936167,446
0.1952833,436
0.19695,505
0.1986167,454
0.2002833,404
0.20195,515
0.2036167,418
0.2052833,459
0.20695,368
0.2086167,374
0.2102833,416
0.21195,422
0.2136167,438
0.2152833,383
0.21695,438
0.2186167,492
0.2202833,522
0.22195,552
0.2236167,454
0.2252833,425
0.22695,446
0.2286167,439
0.2302833,431
0.23195,429
0.2336167,426
0.2352833,415
0.23695,425
0.2386167,435
0.2402833,465
0.24195,495
0.2436167,504
0.2453,404
0.24695,559
0.2486167,564
0.2502833,380
0.25195,456
0.2536167,482
0.2552833,302
0.2569667,508
0.2586167,317
0.2602833,419
0.26195,510
0.2636333,438
0.2652833,463
0.26695,487
0.2686167,501
0.2702833,485
0.27195,414
0.2736167,483
0.2752833,474
0.27695,461
0.2786167,447
0.2803,442
0.28195,438
0.2836167,585
0.2852833,615
0.28695,507
0.2886167,519
0.2902833,588
0.29195,446
0.2936167,534
0.2953,441
0.29695,590
0.2986333,559
0.3002833,427
0.30195,432
0.3036167,419
0.3052833,460
0.3069667,502
0.3086167,641
0.3102833,594
0.31195,535
0.3136167,513
0.3153,512
0.31695,321
0.3186167,561
0.3202833,618
0.32195,439
0.3236333,535
0.3252833,449
0.32695,464
0.3286167,479
0.3302833,463
0.33195,513
0.3336333,386
0.3352833,466
0.33695,546
0.3386167,484
0.3403,495
0.34195,456
0.3436167,483
0.3453,388
0.34695,431
0.3486167,473
0.3503,439
0.3519667,564
0.3536333,484
0.3553,404
0.3569667,464
0.3586167,621
0.3602833,698
0.36195,1013
0.3636333,1434
0.3652833,3544
0.3669667,6444
0.3686333,7923
0.3703,9992
0.37195,9236
0.3736333,7726
0.3752833,6713
0.3769667,5258
0.3786167,4420
0.3803,3341
0.38195,3161
0.3836333,2506
0.3853,2408
0.3869667,2070
0.3886333,1671
0.3903,1577
0.39195,1515
0.3936333,1472
0.3953,1428
0.3969667,1458
0.3986167,1495
0.4002833,1494
0.40195,1416
0.4036333,1339
0.4053,1255
0.4069667,1465
0.4086333,1412
0.4103,1440
0.4119667,1547
0.4136333,1476
0.4153,1404
0.4169667,1704
0.4186333,1668
0.4203,1322
0.4219667,1085
0.4236333,1272
0.4253,1171
0.4269667,1147
0.4286333,1104
0.4303,1052
0.4319667,1161
0.4336333,1330
0.4353,1744
0.4369667,2514
0.4386333,3167
0.4403,4910
0.4419667,6562
0.4436333,8700
0.4453,11296
0.4469667,14456
0.4486333,19388
0.4503,26160
0.4519667,33520
0.4536333,46480
0.4553,63152
0.4569667,86672
0.4586333,116784
0.4603,160000
0.4619667,208640
0.4636333,262208
0.4653,309056
0.4669667,363264
0.4686333,400192
0.4703,420608
0.4719667,430528
0.4736333,414784
0.4753,386112
0.4769667,347136
0.4786333,298560
0.4803,256576
0.4819667,211328
0.4836333,169344
0.4853,136128
0.4869667,107152
0.4886333,85216
0.4903,69136
0.4919667,54880
0.4936333,45008
0.4953,36544
0.4969667,30424
0.4986333,26220
0.5003,22440
0.5019667,19380
0.5036333,14952
0.5053,13920
0.5069667,11676
0.5086333,10736
0.5103,8880
0.5119666,7966
0.5136333,7289
0.5153,6498
0.5169666,6026
0.5186333,6108
0.5203,5113
0.5219667,4522
0.5236334,4685
0.5253,4369
0.5269667,4395
0.5286334,3739
0.5303,4094
0.5319667,3567
0.5336334,3702
0.5353,3149
0.5369667,3097
0.5386333,3458
0.5403,3048
0.5419667,2945
0.5436333,2947
0.5453,2692
0.5469667,2650
0.5486333,2383
0.5503,2341
0.5519667,2141
0.5536333,2068
0.5553,1914
0.5569667,2222
0.5586333,2025
0.5603,2162
0.5619667,1973
0.5636333,1887
0.5653,1494
0.5669667,1645
0.5686333,1610
0.5703,1557
0.5719666,1659
0.5736333,1605
0.5753,1600
0.5769666,1532
0.5786333,1618
0.5803,1627
0.5819666,1665
0.5836333,1499
0.5853,1358
0.5869667,1767
0.5886334,1459
0.5903,1522
0.5919667,1545
0.5936334,1567
0.5953,1531
0.5969667,1518
0.5986333,1505
0.6003,1730
0.6019667,1684
0.6036333,1427
0.6053,1620
0.6069667,1551
0.6086333,1537
0.6103,1612
0.6119667,1389
0.6136333,1495
0.6153,1356
0.6169667,1416
0.6186333,1329
0.6203,1383
0.6219667,1200
0.6236333,1496
0.6253,1124
0.6269667,1049
0.6286333,1311
0.6303,1372
0.6319667,1158
0.6336333,1257
0.6353,884
0.6369666,1144
0.6386333,944
0.6403,1056
0.6419666,931
0.6436333,936
0.6453,1075
0.6469667,946
0.6486334,1017
0.6503,1048
0.6519667,1078
0.6536334,918
0.6553,969
0.6569667,839
0.6586334,918
0.6603,935
0.6619667,772
0.6636333,772
0.6653,792
0.6669667,842
0.6686333,892
0.6703,961
0.6719667,929
0.6736333,810
0.6753,1004
0.6769667,974
0.6786333,601
0.6803,841
0.6819667,700
0.6836333,723
0.6853,746
0.6869667,973
0.6886333,921
0.6903,931
0.6919667,888
0.6936333,772
0.6953,779
0.6969666,921
0.6986333,850
0.7003,898
0.7019666,754
0.7036333,832
0.7053,728
0.7069666,896
0.7086333,841
0.7103,724
0.7119667,655
0.7136334,735
0.7153,693
0.7169667,650
0.7186334,728
0.7203,805
0.7219667,784
0.7236333,818
0.7253,852
0.7269667,812
0.7286333,772
0.7303,741
0.7319667,666
0.7336333,770
0.7353,779
0.7369667,843
0.7386333,702
0.7403,750
0.7419667,842
0.7436333,759
0.7453,901
0.7469667,838
0.7486333,776
0.7503,863
0.7519667,889
0.7536333,797
0.7553,772
0.7569667,727
0.7586333,782
0.7603,836
0.7619666,878
0.7636333,787
0.7653,890
0.7669666,757
0.7686333,660
0.7703,881
0.7719667,761
0.7736334,762
0.7753,745
0.7769667,756
0.7786334,741
0.7803,605
0.7819667,802
0.7836334,896
0.7853,826
0.7869667,806
0.7886333,663
0.7903,816
0.7919667,815
0.7936333,741
0.7953,593
0.7969667,656
0.7986333,830
0.8003,805
0.8019667,712
0.8036333,755
0.8053,773
0.8069667,790
0.8086333,924
0.8103,903
0.8119667,760
0.8136333,664
0.8153,855
0.8169667,875
0.8186333,896
0.8203,913
0.8219666,772
0.8236333,877
0.8253,1078
0.8269666,995
0.8286333,959
0.8303,1084
0.8319666,960
0.8336333,947
0.8353,1155
0.8369667,1083
0.8386334,1040
0.8403,1091
0.8419667,1063
0.8436334,1044
0.8453,1024
0.8469667,1041
0.8486333,1059
0.8503,1007
0.8519667,1007
0.8536333,856
0.8553,941
0.8569667,872
0.8586333,888
0.8603,904
0.8619667,787
0.8636333,872
0.8653,763
0.8669667,907
0.8686333,934
0.8703,784
0.8719667,884
0.8736333,911
0.8753,904
0.8769667,1179
0.8786333,1669
0.8803,1743
0.8819667,2341
0.8836333,2940
0.8853,2862
0.8869666,3340
0.8886333,3971
0.8903,3671
0.8919666,3747
0.8936333,3653
0.8953,3899
0.8969667,3964
0.8986334,4174
0.9003,4035
0.9019667,3982
0.9036334,4010
0.9053,4000
0.9069667,3811
0.9086334,3566
0.9103,3703
0.9119667,3767
0.9136333,3770
0.9153,3773
0.9169667,3511
0.9186333,3855
0.9203,3511
0.9219667,3385
0.9236333,3941
0.9253,3610
0.9269667,3489
0.9286333,3453
0.9303,3491
0.9319667,3529
0.9336333,3003
0.9353,3302
0.9369667,3002
0.9386333,2816
0.9403,3089
0.9419667,2838
0.9436333,2391
0.9453,2777
0.9469666,2433
0.9486333,2391
0.9503,2072
0.9519666,2383
0.9536333,2033
0.9553,1817
0.9569666,1703
0.9586333,1685
0.9603,1754
0.9619667,1595
0.9636334,1555
0.9653,1327
0.9669667,1233
0.9686334,954
0.9703,1140
0.9719667,994
0.9736333,1042
0.9753,939
0.9769667,984
0.9786333,940
0.9803,968
0.9819667,879
0.9836333,714
0.9853,630
0.9869667,535
0.9886333,754
0.9903,670
0.9919667,621
0.9936333,561
0.9953,641
0.9969667,630
0.9986333,575
1.0003,690
1.001967,655
1.003633,619
1.0053,436
1.006967,631
1.008633,611
1.0103,610
1.011967,656
1.013633,509
1.0153,572
1.016967,635
1.018633,590
1.0203,569
1.021967,504
1.023633,480
1.0253,547
1.026967,614
1.028633,628
1.0303,662
1.031967,694
1.033633,570
1.0353,635
1.036967,615
1.038633,491
1.0403,525
1.041967,532
1.043633,587
1.0453,545
1.046967,504
1.048633,465
1.0503,538
1.051967,515
1.053633,579
1.0553,643
1.056967,643
1.058633,674
1.0603,475
1.061967,673
1.063633,700
1.0653,664
1.066967,576
1.068633,621
1.0703,728
1.071967,822
1.073633,768
1.0753,644
1.076967,613
1.078633,645
1.0803,591
1.081967,571
1.083633,677
1.0853,657
1.086967,647
1.088633,588
1.0903,594
1.091967,599
1.093633,595
1.0953,592
1.096967,696
1.098633,720
1.1003,685
1.101967,616
1.103633,592
1.1053,568
1.106967,583
1.108633,599
1.1103,640
1.111967,682
1.113633,676
1.1153,670
1.116967,670
1.118633,604
1.1203,718
1.121967,609
1.123633,500
1.1253,719
1.126967,741
1.128633,657
1.1303,696
1.131967,597
1.133633,673
1.1353,582
1.136967,573
1.138633,564
1.1403,574
1.141967,690
1.143633,763
1.1453,744
1.146967,725
1.148633,678
1.1503,771
1.151967,666
1.153633,819
1.1553,755
1.156967,648
1.158633,822
1.1603,830
1.161967,826
1.163633,807
1.1653,788
1.166967,632
1.168633,895
1.1703,926
1.171967,868
1.173633,857
1.1753,846
1.176967,838
1.178633,831
1.1803,870
1.181967,890
1.183633,886
1.1853,882
1.186967,807
1.188633,909
1.1903,890
1.191967,871
1.193633,1008
1.1953,996
1.196967,1005
1.198633,963
