"SampleName","A2Rd2_01-62"
"Target Mass 1",
"Column Name","IA-3 (3um, 4.6X100)"
"Channel","QDa 1: SIR Ch2"
0.00195,484
0.003616667,654
0.005283333,522
0.00695,721
0.008616666,871
0.01028333,882
0.01195,892
0.01361667,854
0.01528333,950
0.01695,945
0.01861667,847
0.02028333,819
0.02195,857
0.02361667,896
0.02528333,963
0.02695,945
0.02861667,946
0.03028333,893
0.03195,943
0.03361667,878
0.03528333,813
0.03695,1144
0.03861667,1079
0.04028333,849
0.04195,859
0.04361667,993
0.04528333,959
0.04695,945
0.04861667,950
0.05028334,995
0.05195,1000
0.05361667,884
0.05528333,965
0.05695,933
0.05861667,941
0.06028333,781
0.06195,903
0.06361666,813
0.06528334,914
0.06695,980
0.06861667,1002
0.07028333,977
0.07195,926
0.07361667,1067
0.07528333,1051
0.07695,826
0.07861666,768
0.08028334,1035
0.08195,1000
0.08361667,1061
0.08528333,823
0.08695,929
0.08861667,870
0.09028333,968
0.09195,833
0.09361666,991
0.09528334,1011
0.09695,925
0.09861667,1066
0.1002833,907
0.10195,1024
0.1036167,872
0.1052833,1089
0.10695,988
0.1086167,967
0.1102833,741
0.11195,1063
0.1136167,878
0.1152833,965
0.11695,881
0.1186167,1044
0.1202833,1025
0.12195,945
0.1236167,840
0.1252833,1085
0.12695,919
0.1286167,835
0.1302833,1015
0.13195,993
0.1336167,818
0.1352833,816
0.13695,826
0.1386167,868
0.1402833,910
0.14195,897
0.1436167,884
0.1452833,925
0.14695,938
0.1486167,1054
0.1502833,1019
0.15195,984
0.1536167,992
0.1552833,972
0.15695,1036
0.1586167,864
0.1602833,834
0.16195,1060
0.1636167,1060
0.1652833,771
0.16695,999
0.1686167,1094
0.1702833,648
0.17195,1017
0.1736167,805
0.1752833,1049
0.17695,881
0.1786167,917
0.1802833,868
0.18195,950
0.1836167,985
0.1852833,827
0.18695,858
0.1886167,871
0.1902833,876
0.19195,881
0.1936167,869
0.1952833,857
0.19695,870
0.1986167,905
0.2002833,816
0.20195,920
0.2036167,974
0.2052833,919
0.20695,879
0.2086167,949
0.2102833,811
0.21195,1002
0.2136167,906
0.2152833,913
0.21695,971
0.2186167,1029
0.2202833,1094
0.22195,1036
0.2236167,945
0.2252833,998
0.22695,1104
0.2286167,1047
0.2302833,1017
0.23195,1057
0.2336167,1097
0.2352833,1080
0.23695,1000
0.2386167,1079
0.2402833,1045
0.24195,1041
0.2436167,1036
0.2453,1317
0.24695,1327
0.2486167,1143
0.2502833,976
0.25195,1313
0.2536167,979
0.2552833,1204
0.25695,1291
0.2586167,1291
0.2602833,1191
0.26195,1181
0.2636167,1105
0.2652833,1091
0.26695,1066
0.2686167,1143
0.2702833,1218
0.27195,1251
0.2736167,1135
0.2752833,1216
0.27695,905
0.2786167,914
0.2803,1136
0.28195,1089
0.2836167,1055
0.2852833,1022
0.28695,1089
0.2886167,960
0.2902833,1115
0.29195,1106
0.2936167,1016
0.2952833,1076
0.29695,1045
0.2986333,1228
0.3002833,1276
0.30195,1059
0.3036167,1237
0.3052833,988
0.30695,1047
0.3086167,1286
0.3102833,1344
0.31195,1337
0.3136167,1268
0.3153,1140
0.31695,1032
0.3186167,1092
0.3202833,1153
0.32195,1174
0.3236167,1196
0.3252833,1202
0.32695,1209
0.3286167,1209
0.3302833,1210
0.33195,1075
0.3336333,1022
0.3352833,1178
0.3369667,1211
0.3386333,1259
0.3402833,1308
0.34195,1037
0.3436167,1211
0.3452833,1204
0.34695,1196
0.3486167,1130
0.3503,1228
0.35195,1147
0.3536167,1065
0.3553,1272
0.35695,1248
0.3586167,1285
0.3603,1507
0.36195,1536
0.3636167,1730
0.3652833,3105
0.3669667,4092
0.3686333,5043
0.3702833,4638
0.3719667,5366
0.3736167,4738
0.3752833,4144
0.37695,3372
0.3786167,2839
0.3802833,2467
0.38195,1903
0.3836333,1381
0.3853,1012
0.3869667,697
0.3886333,642
0.3903,543
0.3919667,575
0.3936333,457
0.3953,482
0.3969667,512
0.3986167,499
0.4003,486
0.40195,530
0.4036333,575
0.4052833,646
0.4069667,890
0.4086167,915
0.4103,907
0.4119667,917
0.4136333,972
0.4153,1027
0.4169667,1058
0.4186333,1089
0.4203,1058
0.4219667,1107
0.4236333,1157
0.4253,1157
0.4269667,1158
0.4286333,1186
0.4303,1215
0.4319667,1149
0.4336333,1082
0.4353,1500
0.4369667,1518
0.4386333,1790
0.4403,1789
0.4419667,1510
0.4436333,1956
0.4453,2046
0.4469667,2045
0.4486333,2057
0.4503,2069
0.4519667,2198
0.4536333,2327
0.4553,2516
0.4569667,2441
0.4586333,2298
0.4603,2565
0.4619667,2610
0.4636333,2909
0.4653,2770
0.4669667,2510
0.4686333,2386
0.4703,2468
0.4719667,2290
0.4736333,2567
0.4753,1921
0.4769667,2324
0.4786333,1834
0.4803,1857
0.4819667,1646
0.4836333,1755
0.4853,1670
0.4869667,1793
0.4886333,1692
0.4903,1371
0.4919667,1404
0.4936333,1551
0.4953,1307
0.4969667,1481
0.4986333,1154
0.5003,1188
0.5019667,1274
0.5036333,1161
0.5053,1162
0.5069667,1308
0.5086333,1204
0.5103,974
0.5119666,1423
0.5136333,1225
0.5153,1188
0.5169666,1066
0.5186333,1075
0.5203,1083
0.5219667,1155
0.5236334,1138
0.5253,1120
0.5269667,1170
0.5286334,1149
0.5303,1128
0.5319667,1129
0.5336334,1129
0.5353,1211
0.5369667,1326
0.5386333,1386
0.5403,1136
0.5419667,1375
0.5436333,1150
0.5453,1440
0.5469667,1187
0.5486333,1289
0.5503,1320
0.5519667,1134
0.5536333,1178
0.5553,1149
0.5569667,1062
0.5586333,1159
0.5603,1153
0.5619667,1153
0.5636333,1154
0.5653,1092
0.5669667,1030
0.5686333,1215
0.5703,1267
0.5719666,1185
0.5736333,955
0.5753,1196
0.5769666,909
0.5786333,1320
0.5803,1278
0.5819666,1213
0.5836333,1201
0.5853,1217
0.5869667,1070
0.5886334,1189
0.5903,1114
0.5919667,1050
0.5936334,1146
0.5953,999
0.5969667,1094
0.5986333,1048
0.6003,1233
0.6019667,1196
0.6036333,1243
0.6053,1327
0.6069667,946
0.6086333,1019
0.6103,1145
0.6119667,1382
0.6136333,1260
0.6153,1031
0.6169667,913
0.6186333,948
0.6203,808
0.6219667,1086
0.6236333,1302
0.6253,1347
0.6269667,1312
0.6286333,1187
0.6303,1293
0.6319667,1176
0.6336333,1146
0.6353,932
0.6369666,1224
0.6386333,1203
0.6403,1010
0.6419666,898
0.6436333,967
0.6453,1296
0.6469667,1201
0.6486334,1154
0.6503,1064
0.6519667,1115
0.6536334,1048
0.6553,1110
0.6569667,1093
0.6586334,942
0.6603,950
0.6619667,1142
0.6636333,1105
0.6653,961
0.6669667,1108
0.6686333,785
0.6703,1087
0.6719667,1182
0.6736333,1124
0.6753,805
0.6769667,1234
0.6786333,1050
0.6803,1041
0.6819667,1051
0.6836333,912
0.6853,844
0.6869667,877
0.6886333,911
0.6903,975
0.6919667,943
0.6936333,910
0.6953,929
0.6969666,947
0.6986333,1192
0.7003,1256
0.7019666,1045
0.7036333,1266
0.7053,1031
0.7069666,991
0.7086333,928
0.7103,1066
0.7119667,1028
0.7136334,991
0.7153,1041
0.7169667,1066
0.7186334,1090
0.7203,1196
0.7219667,1149
0.7236333,1101
0.7253,1222
0.7269667,1265
0.7286333,850
0.7303,1071
0.7319667,1163
0.7336333,1009
0.7353,911
0.7369667,1010
0.7386333,964
0.7403,862
0.7419667,975
0.7436333,993
0.7453,908
0.7469667,861
0.7486333,880
0.7503,898
0.7519667,981
0.7536333,971
0.7553,1008
0.7569667,980
0.7586333,952
0.7603,913
0.7619666,1053
0.7636333,1039
0.7653,945
0.7669666,818
0.7686333,785
0.7703,895
0.7719667,887
0.7736334,880
0.7753,860
0.7769667,840
0.7786334,1000
0.7803,1005
0.7819667,1116
0.7836334,981
0.7853,939
0.7869667,1086
0.7886333,778
0.7903,1184
0.7919667,997
0.7936333,1037
0.7953,1008
0.7969667,1035
0.7986333,1062
0.8003,1061
0.8019667,1060
0.8036333,937
0.8053,1010
0.8069667,1083
0.8086333,1077
0.8103,1071
0.8119667,1075
0.8136333,1078
0.8153,1107
0.8169667,1124
0.8186333,1033
0.8203,1111
0.8219666,1189
0.8236333,1280
0.8253,1207
0.8269666,1135
0.8286333,1198
0.8303,970
0.8319666,1251
0.8336333,1234
0.8353,1111
0.8369667,1319
0.8386334,944
0.8403,990
0.8419667,1153
0.8436334,1018
0.8453,1047
0.8469667,1033
0.8486333,1019
0.8503,1049
0.8519667,1072
0.8536333,998
0.8553,927
0.8569667,1060
0.8586333,1013
0.8603,1200
0.8619667,1201
0.8636333,1301
0.8653,1302
0.8669667,1493
0.8686333,1621
0.8703,1704
0.8719667,1810
0.8736333,1662
0.8753,1826
0.8769667,1739
0.8786333,1870
0.8803,1931
0.8819667,1748
0.8836333,1795
0.8853,1988
0.8869666,1831
0.8886333,1857
0.8903,1914
0.8919666,1659
0.8936333,1725
0.8953,1810
0.8969667,1490
0.8986334,1383
0.9003,1968
0.9019667,1763
0.9036334,1795
0.9053,1733
0.9069667,1793
0.9086334,1595
0.9103,1958
0.9119667,1828
0.9136333,1739
0.9153,1931
0.9169667,1777
0.9186333,1745
0.9203,1714
0.9219667,1786
0.9236333,1763
0.9253,1740
0.9269667,1721
0.9286333,1786
0.9303,1753
0.9319667,1721
0.9336333,1686
0.9353,1733
0.9369667,1631
0.9386333,1745
0.9403,1711
0.9419667,1600
0.9436333,1624
0.9453,1494
0.9469666,1331
0.9486333,1465
0.9503,1574
0.9519666,1317
0.9536333,1324
0.9553,1302
0.9569666,1241
0.9586333,1312
0.9603,1105
0.9619667,1119
0.9636334,1126
0.9653,1133
0.9669667,861
0.9686334,1049
0.9703,1174
0.9719667,1124
0.9736333,895
0.9753,854
0.9769667,981
0.9786333,954
0.9803,927
0.9819667,1055
0.9836333,1046
0.9853,1037
0.9869667,1024
0.9886333,998
0.9903,1065
0.9919667,1179
0.9936333,1148
0.9953,821
0.9969667,1084
0.9986333,1098
1.0003,1110
1.001967,1043
1.003633,1009
1.0053,975
1.006967,1031
1.008633,1087
1.0103,1059
1.011967,1015
1.013633,971
1.0153,1099
1.016967,1078
1.018633,1058
1.0203,1078
1.021967,1078
1.023633,1078
1.0253,1086
1.026967,1093
1.028633,1105
1.0303,1188
1.031967,878
1.033633,981
1.0353,938
1.036967,920
1.038633,925
1.0403,1014
1.041967,962
1.043633,909
1.0453,995
1.046967,984
1.048633,1140
1.0503,1144
1.051967,914
1.053633,829
1.0553,698
1.056967,907
1.058633,959
1.0603,904
1.061967,929
1.063633,954
1.0653,938
1.066967,922
1.068633,908
1.0703,930
1.071967,953
1.073633,956
1.0753,897
1.076967,928
1.078633,855
1.0803,814
1.081967,1070
1.083633,999
1.0853,1126
1.086967,948
1.088633,872
1.0903,948
1.091967,973
1.093633,895
1.0953,816
1.096967,927
1.098633,838
1.1003,865
1.101967,899
1.103633,887
1.1053,911
1.106967,934
1.108633,983
1.1103,1112
1.111967,1126
1.113633,1189
1.1153,923
1.116967,1036
1.118633,1033
1.1203,1040
1.121967,1044
1.123633,906
1.1253,867
1.126967,926
1.128633,986
1.1303,736
1.131967,1033
1.133633,858
1.1353,740
1.136967,1094
1.138633,919
1.1403,779
1.141967,937
1.143633,1010
1.1453,948
1.146967,981
1.148633,1015
1.1503,961
1.151967,907
1.153633,842
1.1553,828
1.156967,829
1.158633,851
1.1603,876
1.161967,901
1.163633,925
1.1653,828
1.166967,821
1.168633,1059
1.1703,1023
1.171967,988
1.173633,936
1.1753,831
1.176967,967
1.178633,913
1.1803,858
1.181967,994
1.183633,891
1.1853,917
1.186967,854
1.188633,792
1.1903,921
1.191967,1011
1.193633,1027
1.1953,913
1.196967,956
1.198633,959
