"SampleName","A2Rd2_01-83"
"Target Mass 1",
"Column Name","IA-3 (3um, 4.6X100)"
"Channel","QDa 1: SIR Ch1"
0.00195,302
0.003616667,385
0.005283333,479
0.00695,432
0.008616666,385
0.01028333,399
0.01195,413
0.01361667,496
0.01528333,523
0.01695,416
0.01861667,600
0.02028333,621
0.02195,516
0.02361667,575
0.02528333,496
0.02695,522
0.02861667,431
0.03028333,544
0.03195,553
0.03361667,478
0.03528333,430
0.03695,438
0.03861667,474
0.04028333,533
0.04195,535
0.04361667,372
0.04528333,463
0.04695,398
0.04861667,405
0.05028334,563
0.05195,664
0.05361667,545
0.05528333,378
0.05695,397
0.05861667,356
0.06028333,388
0.06195,420
0.06361666,386
0.06528334,351
0.06695,448
0.06861667,462
0.07028333,465
0.07195,445
0.07361667,385
0.07528333,408
0.07695,368
0.07861666,395
0.08028334,421
0.08195,413
0.08361667,333
0.08528333,464
0.08695,493
0.08861667,502
0.09028333,380
0.09195,470
0.09361666,504
0.09528334,488
0.09695,471
0.09861667,453
0.1002833,470
0.10195,536
0.1036167,547
0.1052833,410
0.10695,524
0.1086167,393
0.1102833,547
0.11195,519
0.1136167,335
0.1152833,611
0.11695,459
0.1186167,579
0.1202833,511
0.12195,443
0.1236167,473
0.1252833,619
0.12695,265
0.1286167,500
0.1302833,442
0.13195,325
0.1336167,583
0.1352833,340
0.13695,458
0.1386167,509
0.1402833,491
0.14195,528
0.1436167,537
0.1452833,471
0.14695,483
0.1486167,368
0.1502833,498
0.15195,368
0.1536167,465
0.1552833,563
0.15695,509
0.1586167,489
0.1602833,441
0.16195,515
0.1636167,465
0.1652833,415
0.16695,369
0.1686167,492
0.1702833,362
0.17195,388
0.1736167,415
0.1752833,392
0.17695,369
0.1786167,375
0.1802833,404
0.18195,433
0.1836167,521
0.1852833,553
0.18695,384
0.1886167,429
0.1902833,470
0.19195,439
0.1936167,443
0.1952833,431
0.19695,392
0.1986167,363
0.2002833,334
0.20195,320
0.2036167,491
0.2052833,437
0.20695,384
0.2086167,370
0.2102833,410
0.21195,449
0.2136167,485
0.2152833,430
0.21695,374
0.2186167,310
0.2202833,457
0.22195,406
0.2236167,354
0.2252833,421
0.22695,423
0.2286167,425
0.2302833,408
0.23195,423
0.2336167,438
0.2352833,527
0.23695,481
0.2386167,435
0.2402833,483
0.24195,387
0.2436167,315
0.2453,450
0.24695,412
0.2486167,515
0.2502833,518
0.25195,489
0.2536167,416
0.2552833,363
0.25695,493
0.2586167,517
0.2602833,448
0.26195,385
0.2636333,494
0.2652833,509
0.26695,499
0.2686167,421
0.2703,449
0.27195,478
0.2736167,436
0.2752833,528
0.27695,503
0.2786167,490
0.2803,478
0.28195,507
0.2836167,514
0.2852833,473
0.28695,441
0.2886167,468
0.2902833,441
0.29195,414
0.2936167,493
0.2952833,442
0.29695,390
0.2986333,386
0.3003,437
0.30195,505
0.3036167,470
0.3052833,411
0.30695,352
0.3086333,528
0.3102833,497
0.31195,484
0.3136167,444
0.3153,549
0.3169667,575
0.3186333,565
0.3203,418
0.3219667,543
0.3236333,478
0.3253,440
0.3269667,402
0.3286167,540
0.3302833,552
0.33195,377
0.3336333,446
0.3353,599
0.3369667,611
0.3386333,494
0.3403,620
0.3419667,410
0.3436333,420
0.3452833,454
0.3469667,483
0.3486167,463
0.3503,442
0.35195,417
0.3536333,388
0.3553,359
0.3569667,485
0.3586333,544
0.3603,661
0.36195,699
0.3636333,867
0.3652833,1321
0.3669667,1944
0.3686333,3929
0.3703,4805
0.3719667,6249
0.3736333,6830
0.3753,7143
0.3769667,6487
0.3786333,7131
0.3803,6288
0.3819667,5904
0.3836333,5399
0.3853,3923
0.3869667,3735
0.3886333,3124
0.3903,2659
0.3919667,2018
0.3936333,1804
0.3953,1525
0.3969667,979
0.3986333,1140
0.4003,1022
0.4019667,894
0.4036333,1035
0.4053,1045
0.4069667,1055
0.4086333,1056
0.4103,888
0.4119667,1028
0.4136333,1003
0.4153,924
0.4169667,1081
0.4186333,1071
0.4203,1047
0.4219667,1023
0.4236333,1125
0.4253,765
0.4269667,1075
0.4286333,1011
0.4303,1066
0.4319667,958
0.4336333,1366
0.4353,1964
0.4369667,2543
0.4386333,4630
0.4403,7081
0.4419667,10200
0.4436333,16696
0.4453,25092
0.4469667,33376
0.4486333,46112
0.4503,62144
0.4519667,74464
0.4536333,90816
0.4553,105632
0.4569667,120656
0.4586333,135104
0.4603,149440
0.4619667,158784
0.4636333,171200
0.4653,185664
0.4669667,201024
0.4686333,221632
0.4703,232256
0.4719667,248384
0.4736333,261504
0.4753,256384
0.4769667,255616
0.4786333,242816
0.4803,223104
0.4819667,198784
0.4836333,174464
0.4853,152640
0.4869667,126928
0.4886333,102064
0.4903,80944
0.4919667,65568
0.4936333,49872
0.4953,40688
0.4969667,31384
0.4986333,24088
0.5003,19624
0.5019667,15476
0.5036333,12272
0.5053,10144
0.5069667,8816
0.5086333,7176
0.5103,6586
0.5119666,5975
0.5136333,5430
0.5153,4634
0.5169666,4679
0.5186333,4126
0.5203,3792
0.5219667,3738
0.5236334,3291
0.5253,3124
0.5269667,2909
0.5286334,2955
0.5303,3180
0.5319667,3017
0.5336334,2415
0.5353,2376
0.5369667,2829
0.5386333,2465
0.5403,2157
0.5419667,2436
0.5436333,2455
0.5453,1768
0.5469667,2035
0.5486333,1984
0.5503,1893
0.5519667,1919
0.5536333,1890
0.5553,1711
0.5569667,1462
0.5586333,1503
0.5603,1528
0.5619667,1457
0.5636333,1386
0.5653,1409
0.5669667,1349
0.5686333,1289
0.5703,1266
0.5719666,1308
0.5736333,1350
0.5753,1197
0.5769666,1058
0.5786333,1348
0.5803,1218
0.5819666,1148
0.5836333,854
0.5853,1365
0.5869667,1305
0.5886334,1493
0.5903,1143
0.5919667,1347
0.5936334,1316
0.5953,1025
0.5969667,1296
0.5986333,1203
0.6003,1133
0.6019667,1282
0.6036333,1086
0.6053,1290
0.6069667,1145
0.6086333,1030
0.6103,1088
0.6119667,1282
0.6136333,1326
0.6153,1047
0.6169667,1104
0.6186333,1035
0.6203,1007
0.6219667,979
0.6236333,1025
0.6253,1071
0.6269667,676
0.6286333,858
0.6303,881
0.6319667,878
0.6336333,803
0.6353,851
0.6369666,770
0.6386333,836
0.6403,743
0.6419666,762
0.6436333,781
0.6453,758
0.6469667,757
0.6486334,756
0.6503,790
0.6519667,783
0.6536334,776
0.6553,737
0.6569667,698
0.6586334,656
0.6603,607
0.6619667,707
0.6636333,652
0.6653,728
0.6669667,775
0.6686333,806
0.6703,639
0.6719667,799
0.6736333,621
0.6753,649
0.6769667,700
0.6786333,705
0.6803,723
0.6819667,788
0.6836333,742
0.6853,697
0.6869667,718
0.6886333,740
0.6903,751
0.6919667,773
0.6936333,590
0.6953,657
0.6969666,730
0.6986333,552
0.7003,654
0.7019666,631
0.7036333,645
0.7053,659
0.7069666,697
0.7086333,775
0.7103,746
0.7119667,672
0.7136334,463
0.7153,664
0.7169667,643
0.7186334,612
0.7203,655
0.7219667,641
0.7236333,678
0.7253,714
0.7269667,598
0.7286333,536
0.7303,597
0.7319667,600
0.7336333,603
0.7353,607
0.7369667,580
0.7386333,554
0.7403,570
0.7419667,587
0.7436333,752
0.7453,808
0.7469667,566
0.7486333,823
0.7503,672
0.7519667,497
0.7536333,736
0.7553,667
0.7569667,600
0.7586333,676
0.7603,658
0.7619666,508
0.7636333,780
0.7653,673
0.7669666,550
0.7686333,719
0.7703,768
0.7719667,619
0.7736334,761
0.7753,626
0.7769667,648
0.7786334,776
0.7803,736
0.7819667,496
0.7836334,692
0.7853,706
0.7869667,625
0.7886333,487
0.7903,597
0.7919667,622
0.7936333,648
0.7953,648
0.7969667,605
0.7986333,566
0.8003,645
0.8019667,724
0.8036333,761
0.8053,550
0.8069667,667
0.8086333,681
0.8103,681
0.8119667,682
0.8136333,703
0.8153,728
0.8169667,754
0.8186333,543
0.8203,732
0.8219666,710
0.8236333,809
0.8253,816
0.8269666,787
0.8286333,787
0.8303,845
0.8319666,733
0.8336333,791
0.8353,850
0.8369667,854
0.8386334,632
0.8403,798
0.8419667,926
0.8436334,723
0.8453,794
0.8469667,804
0.8486333,792
0.8503,770
0.8519667,747
0.8536333,717
0.8553,647
0.8569667,871
0.8586333,865
0.8603,755
0.8619667,670
0.8636333,766
0.8653,648
0.8669667,665
0.8686333,788
0.8703,710
0.8719667,591
0.8736333,753
0.8753,877
0.8769667,843
0.8786333,1108
0.8803,1128
0.8819667,1505
0.8836333,1828
0.8853,2339
0.8869666,2150
0.8886333,2651
0.8903,2707
0.8919666,2915
0.8936333,2769
0.8953,2716
0.8969667,2977
0.8986334,2856
0.9003,2734
0.9019667,3317
0.9036334,3433
0.9053,2937
0.9069667,3243
0.9086334,3162
0.9103,3201
0.9119667,3029
0.9136333,2973
0.9153,3049
0.9169667,3052
0.9186333,3056
0.9203,3055
0.9219667,2709
0.9236333,2620
0.9253,2531
0.9269667,2698
0.9286333,2865
0.9303,2830
0.9319667,2796
0.9336333,2905
0.9353,2580
0.9369667,2626
0.9386333,2672
0.9403,2757
0.9419667,2741
0.9436333,2725
0.9453,2450
0.9469666,2355
0.9486333,2364
0.9503,2360
0.9519666,1943
0.9536333,1984
0.9553,2102
0.9569666,1940
0.9586333,1638
0.9603,1473
0.9619667,1453
0.9636334,1775
0.9653,1836
0.9669667,1438
0.9686334,1194
0.9703,1129
0.9719667,1252
0.9736333,1011
0.9753,1254
0.9769667,865
0.9786333,857
0.9803,935
0.9819667,953
0.9836333,918
0.9853,850
0.9869667,767
0.9886333,765
0.9903,607
0.9919667,769
0.9936333,656
0.9953,663
0.9969667,527
0.9986333,636
1.0003,688
1.001967,607
1.003633,603
1.0053,573
1.006967,511
1.008633,534
1.0103,518
1.011967,537
1.013633,535
1.0153,534
1.016967,539
1.018633,543
1.0203,500
1.021967,457
1.023633,439
1.0253,606
1.026967,605
1.028633,598
1.0303,592
1.031967,594
1.033633,597
1.0353,598
1.036967,598
1.038633,515
1.0403,601
1.041967,785
1.043633,757
1.0453,844
1.046967,618
1.048633,516
1.0503,599
1.051967,669
1.053633,553
1.0553,619
1.056967,445
1.058633,692
1.0603,749
1.061967,537
1.063633,585
1.0653,769
1.066967,663
1.068633,543
1.0703,609
1.071967,604
1.073633,600
1.0753,553
1.076967,520
1.078633,487
1.0803,516
1.081967,545
1.083633,442
1.0853,560
1.086967,550
1.088633,539
1.0903,595
1.091967,556
1.093633,516
1.0953,475
1.096967,452
1.098633,430
1.1003,594
1.101967,672
1.103633,625
1.1053,577
1.106967,666
1.108633,425
1.1103,636
1.111967,588
1.113633,668
1.1153,629
1.116967,664
1.118633,792
1.1203,841
1.121967,557
1.123633,759
1.1253,442
1.126967,693
1.128633,721
1.1303,549
1.131967,553
1.133633,644
1.1353,696
1.136967,727
1.138633,729
1.1403,726
1.141967,624
1.143633,570
1.1453,726
1.146967,733
1.148633,842
1.1503,815
1.151967,655
1.153633,648
1.1553,741
1.156967,736
1.158633,731
1.1603,681
1.161967,691
1.163633,743
1.1653,604
1.166967,430
1.168633,657
1.1703,750
1.171967,694
1.173633,669
1.1753,793
1.176967,796
1.178633,813
1.1803,832
1.181967,707
1.183633,756
1.1853,724
1.186967,680
1.188633,685
1.1903,689
1.191967,689
1.193633,688
1.1953,814
1.196967,890
1.198633,859
