"SampleName","A2Rd2_01-3"
"Target Mass 1",
"Column Name","IA-3 (3um, 4.6X100)"
"Channel","QDa 1: SIR Ch2"
0.00195,511
0.003616667,512
0.005283333,784
0.00695,699
0.008616666,910
0.01028333,843
0.01195,566
0.01361667,985
0.01528333,824
0.01695,1046
0.01861667,869
0.02028333,806
0.02195,925
0.02361667,796
0.02528333,667
0.02695,924
0.02861667,683
0.03028333,902
0.03195,844
0.03361667,785
0.03528333,998
0.03695,943
0.03861667,843
0.04028333,977
0.04195,983
0.04361667,790
0.04528333,1078
0.04695,947
0.04861667,807
0.05028334,683
0.05195,843
0.05361667,839
0.05528333,904
0.05695,815
0.05861667,726
0.06028333,836
0.06195,731
0.06361666,768
0.06528334,862
0.06695,962
0.06861667,968
0.07028333,870
0.07195,782
0.07361667,695
0.07528333,845
0.07695,780
0.07861666,715
0.08028334,919
0.08195,922
0.08361667,949
0.08528333,669
0.08695,843
0.08861667,912
0.09028333,832
0.09195,902
0.09361666,855
0.09528334,859
0.09695,756
0.09861667,897
0.1002833,826
0.10195,754
0.1036167,849
0.1052833,807
0.10695,767
0.1086167,727
0.1102833,735
0.11195,717
0.1136167,813
0.1152833,908
0.11695,890
0.1186167,900
0.1202833,901
0.12195,885
0.1236167,826
0.1252833,719
0.12695,685
0.1286167,769
0.1302833,753
0.13195,870
0.1336167,830
0.1352833,858
0.13695,787
0.1386167,716
0.1402833,718
0.14195,685
0.1436167,676
0.1452833,771
0.14695,742
0.1486167,713
0.1502833,722
0.15195,730
0.1536167,653
0.1552833,555
0.15695,769
0.1586167,864
0.1602833,830
0.16195,628
0.1636167,719
0.1652833,806
0.16695,675
0.1686167,770
0.1702833,676
0.17195,756
0.1736167,835
0.1752833,853
0.17695,805
0.1786167,802
0.1802833,738
0.18195,754
0.1836167,759
0.1852833,659
0.18695,764
0.1886167,784
0.1902833,805
0.19195,809
0.1936167,814
0.1952833,779
0.19695,745
0.1986167,711
0.2002833,770
0.20195,765
0.2036167,761
0.2052833,818
0.20695,893
0.2086167,888
0.2102833,883
0.21195,784
0.2136167,928
0.2152833,831
0.21695,854
0.2186167,1095
0.2202833,1091
0.22195,1086
0.2236167,964
0.2252833,1030
0.22695,1107
0.2286167,1074
0.2302833,972
0.23195,981
0.2336167,1007
0.2352833,1005
0.23695,1041
0.2386167,1035
0.2402833,1029
0.24195,966
0.2436167,1011
0.2452833,1048
0.24695,1016
0.2486167,985
0.2502833,1046
0.25195,1107
0.2536167,1094
0.2552833,1141
0.25695,1052
0.2586167,1017
0.2602833,824
0.26195,1108
0.2636333,916
0.2653,1118
0.26695,877
0.2686167,1141
0.2702833,917
0.27195,1022
0.2736167,1135
0.2752833,962
0.27695,934
0.2786167,1067
0.2803,912
0.28195,990
0.2836167,1009
0.2852833,805
0.28695,920
0.2886167,934
0.2902833,914
0.29195,876
0.2936167,837
0.2952833,1039
0.29695,1092
0.2986333,1173
0.3003,1010
0.30195,1058
0.3036167,1029
0.3052833,1060
0.30695,902
0.3086167,1130
0.3102833,1048
0.31195,941
0.3136167,946
0.3153,950
0.3169667,959
0.3186167,960
0.3202833,960
0.32195,878
0.3236167,1123
0.3253,1128
0.32695,1171
0.3286167,1214
0.3302833,1208
0.33195,1203
0.3336333,1528
0.3352833,1510
0.33695,1443
0.3386333,1303
0.3402833,1323
0.3419667,1152
0.3436167,1275
0.3452833,1398
0.34695,1471
0.3486333,1109
0.3503,1422
0.3519667,1389
0.3536167,1379
0.3552833,1263
0.35695,1147
0.3586333,1229
0.3602833,1285
0.36195,1507
0.3636167,3842
0.3653,4270
0.3669667,4902
0.3686333,5518
0.3703,4889
0.3719667,3752
0.3736167,2539
0.3753,2249
0.37695,1449
0.3786167,1378
0.3802833,1227
0.38195,1195
0.3836333,1046
0.3853,760
0.3869667,878
0.3886333,836
0.3902833,896
0.3919667,879
0.3936167,842
0.3953,878
0.3969667,850
0.3986333,822
0.4003,842
0.4019667,712
0.4036333,696
0.4053,791
0.4069667,773
0.4086333,755
0.4103,798
0.4119667,678
0.4136333,829
0.4153,662
0.4169667,862
0.4186333,675
0.4203,899
0.4219667,723
0.4236333,798
0.4253,993
0.4269667,1041
0.4286333,1081
0.4303,1026
0.4319667,1061
0.4336333,1095
0.4353,1005
0.4369667,1043
0.4386333,1054
0.4403,1066
0.4419667,1173
0.4436333,1198
0.4453,1222
0.4469667,1193
0.4486333,1164
0.4503,1201
0.4519667,1238
0.4536333,1296
0.4553,1273
0.4569667,1250
0.4586333,1189
0.4603,1387
0.4619667,1422
0.4636333,1465
0.4653,1508
0.4669667,1352
0.4686333,1433
0.4703,1514
0.4719667,1477
0.4736333,1587
0.4753,1305
0.4769667,1625
0.4786333,1232
0.4803,1503
0.4819667,1365
0.4836333,1239
0.4853,1204
0.4869667,1262
0.4886333,1273
0.4903,1124
0.4919667,1146
0.4936333,1037
0.4953,1127
0.4969667,1133
0.4986333,1053
0.5003,857
0.5019667,1111
0.5036333,1049
0.5053,961
0.5069667,826
0.5086333,1155
0.5103,1019
0.5119666,976
0.5136333,897
0.5153,760
0.5169666,783
0.5186333,932
0.5203,959
0.5219667,964
0.5236334,837
0.5253,903
0.5269667,969
0.5286334,786
0.5303,962
0.5319667,934
0.5336334,1014
0.5353,978
0.5369667,890
0.5386333,926
0.5403,857
0.5419667,897
0.5436333,868
0.5453,903
0.5469667,938
0.5486333,829
0.5503,937
0.5519667,910
0.5536333,1016
0.5553,1035
0.5569667,1042
0.5586333,1003
0.5603,1066
0.5619667,953
0.5636333,790
0.5653,952
0.5669667,815
0.5686333,846
0.5703,815
0.5719666,846
0.5736333,877
0.5753,852
0.5769666,827
0.5786333,830
0.5803,833
0.5819666,837
0.5836333,840
0.5853,926
0.5869667,899
0.5886334,872
0.5903,885
0.5919667,898
0.5936334,917
0.5953,1056
0.5969667,1052
0.5986333,1010
0.6003,887
0.6019667,974
0.6036333,882
0.6053,911
0.6069667,940
0.6086333,836
0.6103,861
0.6119667,886
0.6136333,937
0.6153,988
0.6169667,1005
0.6186333,849
0.6203,1024
0.6219667,988
0.6236333,952
0.6253,958
0.6269667,1011
0.6286333,977
0.6303,943
0.6319667,1000
0.6336333,915
0.6353,865
0.6369666,815
0.6386333,959
0.6403,1068
0.6419666,1093
0.6436333,1027
0.6453,931
0.6469667,1079
0.6486334,1056
0.6503,1032
0.6519667,1003
0.6536334,972
0.6553,942
0.6569667,884
0.6586334,710
0.6603,860
0.6619667,918
0.6636333,821
0.6653,852
0.6669667,883
0.6686333,918
0.6703,790
0.6719667,974
0.6736333,849
0.6753,875
0.6769667,861
0.6786333,847
0.6803,871
0.6819667,840
0.6836333,836
0.6853,831
0.6869667,800
0.6886333,818
0.6903,843
0.6919667,818
0.6936333,792
0.6953,846
0.6969666,839
0.6986333,832
0.7003,864
0.7019666,804
0.7036333,782
0.7053,841
0.7069666,859
0.7086333,892
0.7103,924
0.7119667,873
0.7136334,823
0.7153,918
0.7169667,913
0.7186334,981
0.7203,946
0.7219667,1006
0.7236333,901
0.7253,884
0.7269667,969
0.7286333,700
0.7303,937
0.7319667,996
0.7336333,933
0.7353,892
0.7369667,867
0.7386333,936
0.7403,718
0.7419667,779
0.7436333,839
0.7453,907
0.7469667,881
0.7486333,855
0.7503,826
0.7519667,796
0.7536333,835
0.7553,799
0.7569667,895
0.7586333,949
0.7603,716
0.7619666,811
0.7636333,946
0.7653,924
0.7669666,870
0.7686333,980
0.7703,918
0.7719667,856
0.7736334,942
0.7753,884
0.7769667,862
0.7786334,769
0.7803,795
0.7819667,675
0.7836334,862
0.7853,805
0.7869667,778
0.7886333,815
0.7903,681
0.7919667,773
0.7936333,711
0.7953,690
0.7969667,902
0.7986333,880
0.8003,927
0.8019667,763
0.8036333,930
0.8053,970
0.8069667,805
0.8086333,965
0.8103,1113
0.8119667,1233
0.8136333,991
0.8153,1134
0.8169667,1090
0.8186333,902
0.8203,1168
0.8219666,1114
0.8236333,1178
0.8253,1222
0.8269666,939
0.8286333,892
0.8303,969
0.8319666,750
0.8336333,827
0.8353,813
0.8369667,864
0.8386334,915
0.8403,894
0.8419667,728
0.8436334,792
0.8453,843
0.8469667,799
0.8486333,754
0.8503,733
0.8519667,712
0.8536333,828
0.8553,800
0.8569667,772
0.8586333,798
0.8603,936
0.8619667,966
0.8636333,850
0.8653,959
0.8669667,890
0.8686333,880
0.8703,920
0.8719667,864
0.8736333,808
0.8753,935
0.8769667,873
0.8786333,981
0.8803,1291
0.8819667,1397
0.8836333,1142
0.8853,1416
0.8869666,1534
0.8886333,1240
0.8903,1258
0.8919666,1276
0.8936333,1313
0.8953,1350
0.8969667,1202
0.8986334,1347
0.9003,1266
0.9019667,1184
0.9036334,1214
0.9053,1243
0.9069667,1274
0.9086334,1282
0.9103,1137
0.9119667,1264
0.9136333,1229
0.9153,1249
0.9169667,1268
0.9186333,1275
0.9203,1283
0.9219667,1064
0.9236333,1193
0.9253,1283
0.9269667,1293
0.9286333,1170
0.9303,1193
0.9319667,946
0.9336333,993
0.9353,1274
0.9369667,1412
0.9386333,1209
0.9403,1151
0.9419667,1183
0.9436333,1096
0.9453,978
0.9469666,967
0.9486333,1018
0.9503,1068
0.9519666,865
0.9536333,1017
0.9553,963
0.9569666,978
0.9586333,995
0.9603,989
0.9619667,984
0.9636334,1029
0.9653,961
0.9669667,893
0.9686334,977
0.9703,929
0.9719667,828
0.9736333,861
0.9753,893
0.9769667,795
0.9786333,800
0.9803,962
0.9819667,988
0.9836333,776
0.9853,833
0.9869667,864
0.9886333,891
0.9903,786
0.9919667,772
0.9936333,856
0.9953,940
0.9969667,913
0.9986333,886
1.0003,879
1.001967,872
1.003633,937
1.0053,945
1.006967,965
1.008633,985
1.0103,1020
1.011967,1000
1.013633,981
1.0153,1005
1.016967,1119
1.018633,1109
1.0203,884
1.021967,933
1.023633,873
1.0253,952
1.026967,933
1.028633,848
1.0303,1003
1.031967,1036
1.033633,953
1.0353,836
1.036967,1001
1.038633,854
1.0403,915
1.041967,976
1.043633,867
1.0453,781
1.046967,975
1.048633,1017
1.0503,934
1.051967,849
1.053633,941
1.0553,954
1.056967,966
1.058633,919
1.0603,810
1.061967,803
1.063633,978
1.0653,956
1.066967,849
1.068633,956
1.0703,871
1.071967,946
1.073633,1015
1.0753,765
1.076967,932
1.078633,834
1.0803,780
1.081967,726
1.083633,683
1.0853,964
1.086967,843
1.088633,723
1.0903,854
1.091967,824
1.093633,808
1.0953,905
1.096967,955
1.098633,722
1.1003,1062
1.101967,825
1.103633,846
1.1053,671
1.106967,744
1.108633,828
1.1103,780
1.111967,732
1.113633,760
1.1153,791
1.116967,837
1.118633,883
1.1203,798
1.121967,714
1.123633,714
1.1253,714
1.126967,757
1.128633,799
1.1303,780
1.131967,760
1.133633,801
1.1353,841
1.136967,825
1.138633,736
1.1403,702
1.141967,775
1.143633,739
1.1453,703
1.146967,798
1.148633,616
1.1503,666
1.151967,715
1.153633,829
1.1553,807
1.156967,854
1.158633,752
1.1603,890
1.161967,829
1.163633,853
1.1653,782
1.166967,815
1.168633,805
1.1703,732
1.171967,826
1.173633,817
1.1753,808
1.176967,888
1.178633,726
1.1803,646
1.181967,804
1.183633,806
1.1853,802
1.186967,707
1.188633,869
1.1903,770
1.191967,816
1.193633,861
1.1953,740
1.196967,786
1.198633,746
