"SampleName","A2Rd2_01-68"
"Target Mass 1",
"Column Name","IA-3 (3um, 4.6X100)"
"Channel","QDa 1: SIR Ch1"
0.00195,216
0.003616667,554
0.005283333,608
0.00695,747
0.008616666,763
0.01028333,574
0.01195,835
0.01361667,702
0.01528333,597
0.01695,742
0.01861667,566
0.02028333,630
0.02195,623
0.02361667,708
0.02528333,421
0.02695,578
0.02861667,673
0.03028333,489
0.03195,479
0.03361667,387
0.03528333,560
0.03695,504
0.03861667,315
0.04028333,532
0.04195,592
0.04361667,570
0.04528333,601
0.04695,563
0.04861667,526
0.05028334,547
0.05195,568
0.05361667,479
0.05528333,528
0.05695,576
0.05861667,519
0.06028333,462
0.06195,603
0.06361666,463
0.06528334,479
0.06695,506
0.06861667,503
0.07028333,509
0.07195,515
0.07361667,397
0.07528333,464
0.07695,541
0.07861666,414
0.08028334,448
0.08195,482
0.08361667,482
0.08528333,556
0.08695,573
0.08861667,617
0.09028333,592
0.09195,426
0.09361666,475
0.09528334,403
0.09695,424
0.09861667,446
0.1002833,688
0.10195,649
0.1036167,450
0.1052833,618
0.10695,482
0.1086167,600
0.1102833,560
0.11195,538
0.1136167,526
0.1152833,531
0.11695,536
0.1186167,557
0.1202833,577
0.12195,454
0.1236167,661
0.1252833,624
0.12695,513
0.1286167,668
0.1302833,542
0.13195,513
0.1336167,693
0.1352833,507
0.13695,453
0.1386167,437
0.1402833,551
0.14195,509
0.1436167,467
0.1452833,524
0.14695,502
0.1486167,508
0.1502833,508
0.15195,507
0.1536167,506
0.1552833,551
0.15695,541
0.1586167,433
0.1602833,430
0.16195,554
0.1636167,594
0.1652833,553
0.16695,484
0.1686167,483
0.1702833,528
0.17195,529
0.1736167,526
0.1752833,561
0.17695,407
0.1786167,377
0.1802833,466
0.18195,528
0.1836167,479
0.1852833,515
0.18695,517
0.1886167,468
0.1902833,532
0.19195,655
0.1936167,623
0.1952833,588
0.19695,491
0.1986167,554
0.2002833,538
0.20195,513
0.2036167,489
0.2052833,535
0.20695,515
0.2086167,510
0.2102833,490
0.21195,522
0.2136167,553
0.2152833,570
0.21695,586
0.2186167,539
0.2202833,478
0.22195,452
0.2236167,409
0.2252833,575
0.22695,548
0.2286167,652
0.2302833,556
0.23195,623
0.2336167,600
0.2352833,514
0.23695,535
0.2386167,557
0.2402833,607
0.24195,589
0.2436167,523
0.2453,419
0.24695,542
0.2486167,504
0.2502833,466
0.25195,521
0.2536167,576
0.2552833,548
0.25695,606
0.2586167,574
0.2602833,457
0.26195,583
0.2636333,513
0.2652833,517
0.26695,521
0.2686333,460
0.2702833,449
0.27195,438
0.2736167,489
0.2752833,540
0.27695,518
0.2786167,496
0.2803,419
0.28195,546
0.2836167,494
0.2852833,458
0.28695,444
0.2886167,522
0.2902833,599
0.29195,559
0.2936167,546
0.2952833,537
0.29695,558
0.2986333,585
0.3002833,578
0.3019667,572
0.3036167,486
0.3052833,503
0.30695,521
0.3086167,546
0.3102833,542
0.31195,538
0.3136167,466
0.3153,572
0.31695,521
0.3186333,471
0.3202833,599
0.32195,503
0.3236167,562
0.3252833,597
0.32695,525
0.3286167,565
0.3302833,605
0.33195,562
0.3336333,592
0.3353,542
0.33695,491
0.3386333,482
0.3402833,510
0.34195,454
0.3436167,494
0.3452833,512
0.34695,503
0.3486167,516
0.3503,578
0.3519667,423
0.3536333,619
0.3553,455
0.3569667,577
0.3586167,644
0.3602833,759
0.36195,740
0.3636167,721
0.3653,989
0.36695,2200
0.3686333,3544
0.3703,5498
0.3719667,6684
0.3736333,7167
0.3753,9052
0.3769667,8712
0.3786333,7912
0.3803,7465
0.3819667,6332
0.3836333,5027
0.3853,4635
0.3869667,3858
0.3886333,3595
0.3903,2970
0.3919667,2371
0.3936333,2177
0.3953,1728
0.3969667,1546
0.3986333,1256
0.4003,1472
0.4019667,1464
0.4036333,1302
0.4053,1094
0.4069667,1251
0.4086333,1266
0.4103,1245
0.4119667,1520
0.4136333,1565
0.4153,1323
0.4169667,1607
0.4186333,1615
0.4203,1393
0.4219667,1541
0.4236333,1330
0.4253,1476
0.4269667,1562
0.4286333,1354
0.4303,1501
0.4319667,1739
0.4336333,2241
0.4353,2802
0.4369667,3424
0.4386333,5716
0.4403,7973
0.4419667,11256
0.4436333,16340
0.4453,22768
0.4469667,29852
0.4486333,42320
0.4503,55072
0.4519667,65648
0.4536333,78496
0.4553,95088
0.4569667,111520
0.4586333,126480
0.4603,140672
0.4619667,158784
0.4636333,172928
0.4653,196864
0.4669667,220160
0.4686333,242368
0.4703,255680
0.4719667,264256
0.4736333,269376
0.4753,265920
0.4769667,246656
0.4786333,230912
0.4803,204736
0.4819667,178752
0.4836333,150912
0.4853,123456
0.4869667,100752
0.4886333,78096
0.4903,62848
0.4919667,47472
0.4936333,36432
0.4953,28668
0.4969667,22488
0.4986333,16496
0.5003,14008
0.5019667,10632
0.5036333,9256
0.5053,7943
0.5069667,6825
0.5086333,6684
0.5103,5377
0.5119666,5526
0.5136333,4809
0.5153,4621
0.5169666,4352
0.5186333,3896
0.5203,4074
0.5219667,3283
0.5236334,3233
0.5253,3240
0.5269667,3125
0.5286334,2929
0.5303,2926
0.5319667,3038
0.5336334,2785
0.5353,2699
0.5369667,2612
0.5386333,2440
0.5403,2042
0.5419667,1752
0.5436333,2266
0.5453,2018
0.5469667,1978
0.5486333,1711
0.5503,1910
0.5519667,1732
0.5536333,1709
0.5553,1831
0.5569667,1412
0.5586333,1807
0.5603,1586
0.5619667,1378
0.5636333,1360
0.5653,1385
0.5669667,1254
0.5686333,1147
0.5703,1381
0.5719666,1340
0.5736333,1066
0.5753,1325
0.5769666,1363
0.5786333,1018
0.5803,1293
0.5819666,1025
0.5836333,1199
0.5853,1382
0.5869667,1333
0.5886334,1177
0.5903,1240
0.5919667,1064
0.5936334,1135
0.5953,1207
0.5969667,1217
0.5986333,1201
0.6003,1069
0.6019667,1027
0.6036333,1138
0.6053,1085
0.6069667,1091
0.6086333,1013
0.6103,1064
0.6119667,1110
0.6136333,1155
0.6153,1131
0.6169667,1107
0.6186333,1048
0.6203,1103
0.6219667,1076
0.6236333,948
0.6253,905
0.6269667,1046
0.6286333,1078
0.6303,884
0.6319667,997
0.6336333,825
0.6353,878
0.6369666,892
0.6386333,728
0.6403,807
0.6419666,848
0.6436333,705
0.6453,687
0.6469667,854
0.6486334,793
0.6503,651
0.6519667,616
0.6536334,795
0.6553,964
0.6569667,918
0.6586334,706
0.6603,778
0.6619667,879
0.6636333,918
0.6653,890
0.6669667,701
0.6686333,749
0.6703,647
0.6719667,711
0.6736333,657
0.6753,717
0.6769667,693
0.6786333,784
0.6803,518
0.6819667,889
0.6836333,617
0.6853,757
0.6869667,918
0.6886333,772
0.6903,657
0.6919667,669
0.6936333,697
0.6953,708
0.6969666,718
0.6986333,666
0.7003,520
0.7019666,686
0.7036333,465
0.7053,586
0.7069666,458
0.7086333,585
0.7103,607
0.7119667,616
0.7136334,608
0.7153,536
0.7169667,579
0.7186334,514
0.7203,504
0.7219667,494
0.7236333,549
0.7253,575
0.7269667,601
0.7286333,571
0.7303,590
0.7319667,608
0.7336333,606
0.7353,603
0.7369667,470
0.7386333,494
0.7403,485
0.7419667,615
0.7436333,629
0.7453,586
0.7469667,500
0.7486333,618
0.7503,560
0.7519667,498
0.7536333,665
0.7553,594
0.7569667,493
0.7586333,619
0.7603,608
0.7619666,596
0.7636333,576
0.7653,723
0.7669666,697
0.7686333,761
0.7703,522
0.7719667,546
0.7736334,697
0.7753,562
0.7769667,492
0.7786334,447
0.7803,595
0.7819667,562
0.7836334,454
0.7853,588
0.7869667,592
0.7886333,566
0.7903,583
0.7919667,478
0.7936333,476
0.7953,546
0.7969667,521
0.7986333,495
0.8003,564
0.8019667,528
0.8036333,469
0.8053,480
0.8069667,492
0.8086333,574
0.8103,644
0.8119667,594
0.8136333,507
0.8153,673
0.8169667,348
0.8186333,603
0.8203,544
0.8219666,556
0.8236333,587
0.8253,558
0.8269666,530
0.8286333,622
0.8303,453
0.8319666,437
0.8336333,532
0.8353,498
0.8369667,428
0.8386334,481
0.8403,534
0.8419667,485
0.8436334,522
0.8453,455
0.8469667,528
0.8486333,488
0.8503,356
0.8519667,528
0.8536333,424
0.8553,492
0.8569667,439
0.8586333,422
0.8603,470
0.8619667,503
0.8636333,536
0.8653,488
0.8669667,452
0.8686333,415
0.8703,399
0.8719667,384
0.8736333,408
0.8753,432
0.8769667,615
0.8786333,671
0.8803,839
0.8819667,882
0.8836333,878
0.8853,1167
0.8869666,1243
0.8886333,1435
0.8903,1588
0.8919666,1678
0.8936333,1582
0.8953,1696
0.8969667,1789
0.8986334,1821
0.9003,1562
0.9019667,1633
0.9036334,1872
0.9053,1794
0.9069667,1596
0.9086334,1638
0.9103,1556
0.9119667,1717
0.9136333,1693
0.9153,1670
0.9169667,1982
0.9186333,1969
0.9203,1768
0.9219667,1977
0.9236333,1790
0.9253,1807
0.9269667,1871
0.9286333,1921
0.9303,1874
0.9319667,1911
0.9336333,1737
0.9353,1886
0.9369667,1780
0.9386333,1746
0.9403,1640
0.9419667,1612
0.9436333,1424
0.9453,1701
0.9469666,1692
0.9486333,1511
0.9503,1569
0.9519666,1433
0.9536333,1366
0.9553,1120
0.9569666,1359
0.9586333,1446
0.9603,1051
0.9619667,1350
0.9636334,917
0.9653,846
0.9669667,1016
0.9686334,790
0.9703,856
0.9719667,691
0.9736333,767
0.9753,745
0.9769667,669
0.9786333,743
0.9803,628
0.9819667,526
0.9836333,462
0.9853,467
0.9869667,536
0.9886333,545
0.9903,554
0.9919667,390
0.9936333,397
0.9953,502
0.9969667,502
0.9986333,539
1.0003,438
1.001967,478
1.003633,356
1.0053,394
1.006967,431
1.008633,468
1.0103,481
1.011967,311
1.013633,534
1.0153,557
1.016967,520
1.018633,415
1.0203,534
1.021967,486
1.023633,565
1.0253,424
1.026967,509
1.028633,468
1.0303,320
1.031967,385
1.033633,480
1.0353,411
1.036967,392
1.038633,372
1.0403,437
1.041967,551
1.043633,506
1.0453,462
1.046967,430
1.048633,463
1.0503,451
1.051967,411
1.053633,527
1.0553,523
1.056967,495
1.058633,418
1.0603,474
1.061967,485
1.063633,497
1.0653,480
1.066967,458
1.068633,436
1.0703,372
1.071967,602
1.073633,569
1.0753,402
1.076967,443
1.078633,399
1.0803,416
1.081967,405
1.083633,393
1.0853,415
1.086967,438
1.088633,475
1.0903,513
1.091967,501
1.093633,452
1.0953,487
1.096967,459
1.098633,486
1.1003,568
1.101967,588
1.103633,472
1.1053,413
1.106967,487
1.108633,410
1.1103,584
1.111967,545
1.113633,442
1.1153,439
1.116967,548
1.118633,484
1.1203,597
1.121967,346
1.123633,431
1.1253,574
1.126967,426
1.128633,375
1.1303,534
1.131967,451
1.133633,574
1.1353,583
1.136967,531
1.138633,438
1.1403,522
1.141967,554
1.143633,436
1.1453,423
1.146967,442
1.148633,461
1.1503,378
1.151967,500
1.153633,494
1.1553,542
1.156967,387
1.158633,450
1.1603,457
1.161967,444
1.163633,431
1.1653,469
1.166967,508
1.168633,518
1.1703,498
1.171967,524
1.173633,550
1.1753,572
1.176967,490
1.178633,493
1.1803,474
1.181967,511
1.183633,494
1.1853,476
1.186967,519
1.188633,494
1.1903,509
1.191967,524
1.193633,406
1.1953,520
1.196967,460
1.198633,586
