"SampleName","A2Rd2_01-82"
"Target Mass 1",
"Column Name","IA-3 (3um, 4.6X100)"
"Channel","QDa 1: SIR Ch2"
0.00195,579
0.003616667,522
0.005283333,657
0.00695,768
0.008616666,851
0.01028333,966
0.01195,984
0.01361667,1037
0.01528333,1005
0.01695,903
0.01861667,837
0.02028333,1026
0.02195,770
0.02361667,897
0.02528333,923
0.02695,850
0.02861667,845
0.03028333,840
0.03195,790
0.03361667,942
0.03528333,974
0.03695,1025
0.03861667,971
0.04028333,1035
0.04195,997
0.04361667,860
0.04528333,885
0.04695,833
0.04861667,847
0.05028334,878
0.05195,910
0.05361667,888
0.05528333,769
0.05695,921
0.05861667,935
0.06028333,895
0.06195,853
0.06361666,837
0.06528334,893
0.06695,658
0.06861667,870
0.07028333,874
0.07195,947
0.07361667,840
0.07528333,825
0.07695,914
0.07861666,825
0.08028334,735
0.08195,792
0.08361667,849
0.08528333,799
0.08695,808
0.08861667,816
0.09028333,803
0.09195,823
0.09361666,924
0.09528334,848
0.09695,772
0.09861667,827
0.1002833,827
0.10195,826
0.1036167,800
0.1052833,730
0.10695,753
0.1086167,775
0.1102833,768
0.11195,761
0.1136167,755
0.1152833,748
0.11695,812
0.1186167,802
0.1202833,792
0.12195,826
0.1236167,963
0.1252833,998
0.12695,853
0.1286167,858
0.1302833,788
0.13195,844
0.1336167,845
0.1352833,912
0.13695,873
0.1386167,835
0.1402833,909
0.14195,773
0.1436167,824
0.1452833,752
0.14695,771
0.1486167,908
0.1502833,1028
0.15195,991
0.1536167,834
0.1552833,979
0.15695,773
0.1586167,925
0.1602833,794
0.16195,812
0.1636167,826
0.1652833,814
0.16695,943
0.1686167,941
0.1702833,833
0.17195,894
0.1736167,981
0.1752833,909
0.17695,805
0.1786167,1015
0.1802833,914
0.18195,901
0.1836167,896
0.1852833,928
0.18695,959
0.1886167,855
0.1902833,783
0.19195,966
0.1936167,859
0.1952833,1029
0.19695,748
0.1986167,898
0.2002833,1044
0.20195,776
0.2036167,934
0.2052833,920
0.20695,769
0.2086167,643
0.2102833,1007
0.21195,1185
0.2136167,980
0.2152833,937
0.21695,1217
0.2186167,906
0.2202833,1030
0.22195,890
0.2236167,1037
0.2252833,1117
0.22695,1040
0.2286167,962
0.2302833,1065
0.23195,1128
0.2336167,1078
0.2352833,1139
0.23695,1110
0.2386167,1082
0.2402833,1125
0.24195,1060
0.2436167,1110
0.2453,1131
0.24695,1151
0.2486167,1153
0.2502833,1136
0.25195,1119
0.2536167,1095
0.2552833,1100
0.25695,1106
0.2586167,1187
0.2602833,1303
0.26195,1397
0.2636333,947
0.2652833,905
0.26695,1126
0.2686167,1095
0.2702833,1177
0.27195,965
0.2736167,972
0.2752833,1151
0.2769667,919
0.2786167,955
0.2803,1156
0.28195,994
0.2836167,1109
0.2852833,1117
0.28695,1094
0.2886167,1072
0.2902833,1101
0.29195,1130
0.2936167,1032
0.2952833,933
0.29695,978
0.2986333,998
0.3002833,1017
0.30195,949
0.3036167,999
0.3052833,1049
0.30695,1166
0.3086167,1290
0.3102833,1305
0.31195,1298
0.3136167,1268
0.3153,1223
0.3169667,1179
0.3186167,1345
0.3202833,1293
0.32195,1225
0.3236167,1161
0.3253,1143
0.3269667,1035
0.3286167,1126
0.3302833,1169
0.33195,1189
0.3336333,1218
0.3352833,1201
0.33695,1185
0.3386167,1151
0.3402833,1283
0.3419667,1297
0.3436333,1221
0.3452833,1341
0.3469667,1296
0.3486167,1252
0.3503,1067
0.35195,1256
0.3536333,1348
0.3553,1348
0.3569667,1224
0.3586333,1342
0.3603,1132
0.36195,1369
0.3636333,1459
0.3652833,2090
0.3669667,3291
0.3686333,3904
0.3703,4104
0.3719667,3877
0.3736333,3982
0.3753,3837
0.3769667,3692
0.3786333,3658
0.3803,3578
0.3819667,2832
0.3836333,2345
0.3853,1807
0.3869667,1713
0.3886333,1408
0.3903,1091
0.3919667,731
0.3936333,986
0.3953,631
0.3969667,470
0.3986333,601
0.4003,467
0.4019667,538
0.4036333,615
0.4053,570
0.4069667,566
0.4086333,558
0.4103,640
0.4119667,707
0.4136333,766
0.4153,587
0.4169667,520
0.4186333,619
0.4203,714
0.4219667,660
0.4236333,607
0.4253,736
0.4269667,752
0.4286333,863
0.4303,836
0.4319667,796
0.4336333,762
0.4353,1004
0.4369667,999
0.4386333,1029
0.4403,1011
0.4419667,1254
0.4436333,1211
0.4453,1041
0.4469667,1083
0.4486333,1115
0.4503,1205
0.4519667,1181
0.4536333,1158
0.4553,1083
0.4569667,1223
0.4586333,1279
0.4603,1334
0.4619667,1348
0.4636333,1363
0.4653,1377
0.4669667,1172
0.4686333,1318
0.4703,1547
0.4719667,1491
0.4736333,1408
0.4753,1281
0.4769667,978
0.4786333,1429
0.4803,1240
0.4819667,1243
0.4836333,1114
0.4853,1240
0.4869667,1187
0.4886333,1134
0.4903,1011
0.4919667,1279
0.4936333,1139
0.4953,1093
0.4969667,1201
0.4986333,928
0.5003,888
0.5019667,1172
0.5036333,1024
0.5053,740
0.5069667,810
0.5086333,1055
0.5103,1002
0.5119666,746
0.5136333,928
0.5153,1089
0.5169666,944
0.5186333,1002
0.5203,818
0.5219667,1049
0.5236334,1072
0.5253,896
0.5269667,988
0.5286334,983
0.5303,860
0.5319667,897
0.5336334,861
0.5353,890
0.5369667,1066
0.5386333,1020
0.5403,880
0.5419667,977
0.5436333,900
0.5453,961
0.5469667,970
0.5486333,913
0.5503,857
0.5519667,1085
0.5536333,1021
0.5553,861
0.5569667,1094
0.5586333,963
0.5603,1015
0.5619667,1101
0.5636333,1080
0.5653,1038
0.5669667,887
0.5686333,893
0.5703,931
0.5719666,838
0.5736333,874
0.5753,888
0.5769666,903
0.5786333,878
0.5803,852
0.5819666,1031
0.5836333,1133
0.5853,1123
0.5869667,986
0.5886334,1043
0.5903,1140
0.5919667,1001
0.5936334,840
0.5953,975
0.5969667,931
0.5986333,887
0.6003,664
0.6019667,743
0.6036333,868
0.6053,861
0.6069667,822
0.6086333,850
0.6103,821
0.6119667,904
0.6136333,881
0.6153,915
0.6169667,902
0.6186333,888
0.6203,936
0.6219667,1002
0.6236333,909
0.6253,817
0.6269667,965
0.6286333,1066
0.6303,1167
0.6319667,1116
0.6336333,1142
0.6353,1133
0.6369666,1131
0.6386333,1129
0.6403,1359
0.6419666,1310
0.6436333,1362
0.6453,996
0.6469667,1425
0.6486334,1112
0.6503,1098
0.6519667,1169
0.6536334,1037
0.6553,904
0.6569667,1181
0.6586334,979
0.6603,1014
0.6619667,1195
0.6636333,1062
0.6653,883
0.6669667,928
0.6686333,1099
0.6703,912
0.6719667,993
0.6736333,1446
0.6753,1391
0.6769667,1749
0.6786333,2114
0.6803,2653
0.6819667,3295
0.6836333,3976
0.6853,4938
0.6869667,5864
0.6886333,7602
0.6903,9020
0.6919667,10516
0.6936333,12464
0.6953,14584
0.6969666,16060
0.6986333,17464
0.7003,18392
0.7019666,19304
0.7036333,20328
0.7053,21712
0.7069666,22852
0.7086333,23660
0.7103,24200
0.7119667,23132
0.7136334,24336
0.7153,23592
0.7169667,24188
0.7186334,23124
0.7203,23456
0.7219667,22284
0.7236333,19636
0.7253,18088
0.7269667,16448
0.7286333,14084
0.7303,13364
0.7319667,10900
0.7336333,9924
0.7353,7924
0.7369667,6883
0.7386333,5938
0.7403,5094
0.7419667,4661
0.7436333,3938
0.7453,3201
0.7469667,3543
0.7486333,2760
0.7503,3010
0.7519667,2193
0.7536333,2345
0.7553,2119
0.7569667,1982
0.7586333,1717
0.7603,1884
0.7619666,1472
0.7636333,1718
0.7653,1638
0.7669666,1641
0.7686333,1454
0.7703,1453
0.7719667,1307
0.7736334,1412
0.7753,1724
0.7769667,1834
0.7786334,2021
0.7803,2736
0.7819667,2842
0.7836334,3306
0.7853,4502
0.7869667,5295
0.7886333,6517
0.7903,8300
0.7919667,9524
0.7936333,11328
0.7953,13184
0.7969667,15632
0.7986333,18444
0.8003,20176
0.8019667,21668
0.8036333,22552
0.8053,23884
0.8069667,24976
0.8086333,28276
0.8103,29356
0.8119667,28892
0.8136333,30072
0.8153,29880
0.8169667,30256
0.8186333,30636
0.8203,31452
0.8219666,31916
0.8236333,32136
0.8253,29848
0.8269666,29808
0.8286333,29128
0.8303,27564
0.8319666,24784
0.8336333,21100
0.8353,19056
0.8369667,16744
0.8386334,15316
0.8403,14132
0.8419667,11176
0.8436334,10252
0.8453,8852
0.8469667,7973
0.8486333,7014
0.8503,6265
0.8519667,5722
0.8536333,4634
0.8553,4688
0.8569667,3598
0.8586333,4121
0.8603,3031
0.8619667,2933
0.8636333,2860
0.8653,2708
0.8669667,2042
0.8686333,1963
0.8703,1876
0.8719667,2004
0.8736333,1850
0.8753,1916
0.8769667,1564
0.8786333,1534
0.8803,1891
0.8819667,1988
0.8836333,1893
0.8853,2249
0.8869666,2400
0.8886333,2355
0.8903,2083
0.8919666,2521
0.8936333,2513
0.8953,2267
0.8969667,2107
0.8986334,2128
0.9003,2176
0.9019667,1807
0.9036334,1980
0.9053,2068
0.9069667,1647
0.9086334,1986
0.9103,1844
0.9119667,1720
0.9136333,1867
0.9153,1777
0.9169667,1507
0.9186333,1553
0.9203,1767
0.9219667,1615
0.9236333,1591
0.9253,1568
0.9269667,1626
0.9286333,1685
0.9303,1699
0.9319667,1461
0.9336333,1731
0.9353,1815
0.9369667,1691
0.9386333,1431
0.9403,1809
0.9419667,1704
0.9436333,1598
0.9453,1552
0.9469666,1523
0.9486333,1433
0.9503,1623
0.9519666,1741
0.9536333,2072
0.9553,2040
0.9569666,2382
0.9586333,2597
0.9603,3137
0.9619667,3944
0.9636334,4316
0.9653,5443
0.9669667,5829
0.9686334,7031
0.9703,8888
0.9719667,10628
0.9736333,12100
0.9753,15012
0.9769667,15944
0.9786333,19436
0.9803,20712
0.9819667,25148
0.9836333,28316
0.9853,30724
0.9869667,33792
0.9886333,33856
0.9903,36992
0.9919667,37200
0.9936333,41152
0.9953,43280
0.9969667,46064
0.9986333,46096
1.0003,47936
1.001967,49264
1.003633,48976
1.0053,48688
1.006967,50320
1.008633,51952
1.0103,53248
1.011967,54144
1.013633,53568
1.0153,51344
1.016967,53072
1.018633,53872
1.0203,49120
1.021967,48032
1.023633,45536
1.0253,41248
1.026967,39872
1.028633,36304
1.0303,34240
1.031967,31608
1.033633,28584
1.0353,25192
1.036967,23216
1.038633,20804
1.0403,18248
1.041967,16708
1.043633,15152
1.0453,13868
1.046967,12396
1.048633,11984
1.0503,10716
1.051967,9924
1.053633,10228
1.0553,9888
1.056967,9872
1.058633,9120
1.0603,8436
1.061967,9280
1.063633,9324
1.0653,9100
1.066967,9024
1.068633,9168
1.0703,9524
1.071967,9880
1.073633,10500
1.0753,10432
1.076967,10544
1.078633,11092
1.0803,11032
1.081967,11324
1.083633,11612
1.0853,11904
1.086967,11716
1.088633,11572
1.0903,12112
1.091967,12032
1.093633,11952
1.0953,12904
1.096967,12836
1.098633,13020
1.1003,12912
1.101967,12856
1.103633,13316
1.1053,12316
1.106967,12196
1.108633,12444
1.1103,12712
1.111967,10468
1.113633,11492
1.1153,10788
1.116967,10076
1.118633,10028
1.1203,9568
1.121967,8412
1.123633,7878
1.1253,7772
1.126967,7221
1.128633,6210
1.1303,6149
1.131967,5676
1.133633,5216
1.1353,5512
1.136967,5033
1.138633,4092
1.1403,4012
1.141967,4291
1.143633,3509
1.1453,3388
1.146967,3520
1.148633,3175
1.1503,2595
1.151967,2785
1.153633,2584
1.1553,2428
1.156967,2309
1.158633,2398
1.1603,2146
1.161967,2015
1.163633,1884
1.1653,2074
1.166967,2052
1.168633,1892
1.1703,1755
1.171967,1619
1.173633,1597
1.1753,1657
1.176967,1722
1.178633,1786
1.1803,1704
1.181967,1412
1.183633,1650
1.1853,1630
1.186967,1659
1.188633,1626
1.1903,1749
1.191967,1483
1.193633,1695
1.1953,1876
1.196967,1740
1.198633,2014
