"SampleName","A2Rd2_01-23"
"Target Mass 1",
"Column Name","IA-3 (3um, 4.6X100)"
"Channel","QDa 1: SIR Ch2"
0.00195,541
0.003616667,707
0.005283333,754
0.00695,756
0.008616666,980
0.01028333,974
0.01195,916
0.01361667,921
0.01528333,925
0.01695,906
0.01861667,928
0.02028333,987
0.02195,980
0.02361667,852
0.02528333,767
0.02695,898
0.02861667,833
0.03028333,855
0.03195,792
0.03361667,767
0.03528333,867
0.03695,647
0.03861667,922
0.04028333,908
0.04195,816
0.04361667,724
0.04528333,1034
0.04695,917
0.04861667,1033
0.05028334,869
0.05195,786
0.05361667,942
0.05528333,761
0.05695,808
0.05861667,915
0.06028333,844
0.06195,986
0.06361666,959
0.06528334,921
0.06695,1149
0.06861667,1096
0.07028333,1124
0.07195,706
0.07361667,652
0.07528333,1146
0.07695,898
0.07861666,724
0.08028334,1001
0.08195,1014
0.08361667,863
0.08528333,864
0.08695,952
0.08861667,772
0.09028333,794
0.09195,928
0.09361666,874
0.09528334,764
0.09695,753
0.09861667,742
0.1002833,858
0.10195,926
0.1036167,999
0.1052833,790
0.10695,960
0.1086167,792
0.1102833,852
0.11195,885
0.1136167,738
0.1152833,881
0.11695,975
0.1186167,841
0.1202833,858
0.12195,685
0.1236167,739
0.1252833,916
0.12695,781
0.1286167,874
0.1302833,947
0.13195,907
0.1336167,857
0.1352833,807
0.13695,773
0.1386167,856
0.1402833,939
0.14195,890
0.1436167,663
0.1452833,882
0.14695,884
0.1486167,947
0.1502833,985
0.15195,791
0.1536167,770
0.1552833,768
0.15695,767
0.1586167,881
0.1602833,1105
0.16195,1030
0.1636167,765
0.1652833,966
0.16695,862
0.1686167,839
0.1702833,952
0.17195,876
0.1736167,791
0.1752833,836
0.17695,901
0.1786167,768
0.1802833,915
0.18195,754
0.1836167,737
0.1852833,721
0.18695,841
0.1886167,1000
0.1902833,1003
0.19195,718
0.1936167,726
0.1952833,672
0.19695,727
0.1986167,782
0.2002833,1027
0.20195,959
0.2036167,858
0.2052833,986
0.20695,863
0.2086167,796
0.2102833,867
0.21195,961
0.2136167,964
0.2152833,967
0.21695,956
0.2186167,908
0.2202833,1001
0.22195,989
0.2236167,976
0.2252833,958
0.22695,940
0.2286167,1057
0.2302833,1043
0.23195,987
0.2336167,989
0.2352833,992
0.23695,1057
0.2386167,1082
0.2402833,1108
0.24195,1145
0.2436167,1005
0.2452833,1227
0.24695,1176
0.2486167,892
0.2502833,951
0.25195,1120
0.2536167,1180
0.2552833,996
0.25695,1075
0.2586167,1106
0.2602833,1017
0.26195,981
0.2636167,945
0.2652833,999
0.26695,1060
0.2686167,1083
0.2702833,1106
0.27195,1108
0.2736167,1110
0.2752833,1038
0.27695,904
0.2786167,907
0.2802833,967
0.2819667,1160
0.2836167,1167
0.2852833,1175
0.28695,1246
0.2886167,1284
0.2902833,984
0.29195,1327
0.2936167,1225
0.2952833,1267
0.29695,1132
0.2986333,1106
0.3002833,1154
0.30195,1161
0.3036167,1168
0.3052833,1050
0.30695,1076
0.3086167,1063
0.3102833,1321
0.31195,1293
0.3136167,1286
0.3153,1174
0.31695,1207
0.3186167,1241
0.3202833,1275
0.32195,1168
0.3236167,1061
0.3252833,1281
0.32695,1249
0.3286167,1346
0.3302833,1319
0.3319667,1292
0.3336333,1291
0.3353,1289
0.33695,1368
0.3386167,1543
0.3402833,1617
0.34195,1462
0.3436167,1344
0.3452833,1521
0.34695,1420
0.3486167,1368
0.3503,1311
0.35195,1254
0.3536333,1368
0.3552833,1349
0.35695,1330
0.3586167,1398
0.3602833,1692
0.3619667,1897
0.3636167,3725
0.3652833,5061
0.36695,5155
0.3686333,5144
0.3702833,4474
0.37195,4022
0.3736167,3244
0.3753,2813
0.37695,1887
0.3786333,1643
0.3802833,1466
0.3819667,950
0.3836167,801
0.3853,698
0.38695,556
0.3886167,715
0.3903,667
0.39195,698
0.3936167,474
0.3953,666
0.39695,751
0.3986167,722
0.4002833,739
0.4019667,946
0.4036333,936
0.4053,926
0.40695,1209
0.4086333,1288
0.4102833,1075
0.4119667,820
0.4136333,1075
0.4153,844
0.41695,818
0.4186333,1019
0.4203,902
0.4219667,1039
0.4236167,993
0.4253,776
0.42695,692
0.4286333,963
0.4303,1154
0.4319667,1135
0.4336167,1013
0.4353,1195
0.43695,1262
0.4386333,982
0.4403,1216
0.44195,1021
0.4436333,1166
0.4453,1194
0.4469667,1315
0.4486333,1384
0.4503,1531
0.4519667,1620
0.4536333,1656
0.4553,1432
0.4569667,1695
0.4586333,1482
0.4603,1738
0.4619667,1343
0.4636333,1619
0.4653,1635
0.4669667,1767
0.4686333,1731
0.4703,1708
0.4719667,1342
0.4736333,1701
0.4753,1777
0.4769667,1281
0.4786333,1461
0.4803,1447
0.4819667,1443
0.4836333,1268
0.4853,1440
0.4869667,1123
0.4886333,972
0.4903,1276
0.4919667,1221
0.4936333,1364
0.4953,1375
0.4969667,1041
0.4986333,1182
0.5003,1196
0.5019667,1282
0.5036333,1257
0.5053,1047
0.5069667,1073
0.5086333,946
0.5103,1007
0.5119666,1034
0.5136333,1061
0.5153,1033
0.5169666,920
0.5186333,922
0.5203,909
0.5219667,897
0.5236334,936
0.5253,975
0.5269667,1068
0.5286334,1127
0.5303,1217
0.5319667,1254
0.5336334,1170
0.5353,1103
0.5369667,1035
0.5386333,1220
0.5403,1234
0.5419667,1412
0.5436333,1271
0.5453,1046
0.5469667,888
0.5486333,1126
0.5503,996
0.5519667,1254
0.5536333,1125
0.5553,949
0.5569667,1133
0.5586333,1088
0.5603,1044
0.5619667,874
0.5636333,1157
0.5653,939
0.5669667,951
0.5686333,1010
0.5703,1045
0.5719666,1173
0.5736333,810
0.5753,1107
0.5769666,1144
0.5786333,1113
0.5803,1116
0.5819666,846
0.5836333,893
0.5853,1126
0.5869667,1043
0.5886334,1084
0.5903,934
0.5919667,1034
0.5936334,1017
0.5953,1081
0.5969667,1132
0.5986333,1114
0.6003,1096
0.6019667,1204
0.6036333,1008
0.6053,1224
0.6069667,1226
0.6086333,1263
0.6103,1388
0.6119667,1050
0.6136333,1084
0.6153,1422
0.6169667,1003
0.6186333,1359
0.6203,1155
0.6219667,1184
0.6236333,1326
0.6253,1265
0.6269667,1203
0.6286333,1226
0.6303,1235
0.6319667,1244
0.6336333,1338
0.6353,1332
0.6369666,1326
0.6386333,1467
0.6403,1340
0.6419666,1213
0.6436333,1416
0.6453,1281
0.6469667,1315
0.6486334,1391
0.6503,1253
0.6519667,1375
0.6536334,1095
0.6553,1037
0.6569667,1363
0.6586334,1280
0.6603,1030
0.6619667,911
0.6636333,1155
0.6653,1034
0.6669667,1096
0.6686333,1025
0.6703,1058
0.6719667,1070
0.6736333,1081
0.6753,1119
0.6769667,1156
0.6786333,1029
0.6803,1021
0.6819667,1084
0.6836333,1044
0.6853,1004
0.6869667,1033
0.6886333,1070
0.6903,1091
0.6919667,1111
0.6936333,1157
0.6953,1202
0.6969666,1270
0.6986333,1001
0.7003,889
0.7019666,1095
0.7036333,1073
0.7053,1375
0.7069666,1257
0.7086333,1289
0.7103,1311
0.7119667,1329
0.7136334,1348
0.7153,1248
0.7169667,1541
0.7186334,1516
0.7203,1406
0.7219667,1072
0.7236333,1241
0.7253,1184
0.7269667,1342
0.7286333,1495
0.7303,970
0.7319667,1167
0.7336333,1114
0.7353,1237
0.7369667,1058
0.7386333,959
0.7403,931
0.7419667,878
0.7436333,825
0.7453,1153
0.7469667,1178
0.7486333,998
0.7503,1142
0.7519667,1017
0.7536333,1015
0.7553,998
0.7569667,955
0.7586333,1049
0.7603,974
0.7619666,899
0.7636333,946
0.7653,904
0.7669666,819
0.7686333,735
0.7703,1127
0.7719667,1150
0.7736334,942
0.7753,1077
0.7769667,1039
0.7786334,987
0.7803,979
0.7819667,964
0.7836334,949
0.7853,999
0.7869667,1049
0.7886333,1174
0.7903,1283
0.7919667,1353
0.7936333,1322
0.7953,1156
0.7969667,1191
0.7986333,1285
0.8003,1582
0.8019667,1658
0.8036333,1691
0.8053,1672
0.8069667,1657
0.8086333,1908
0.8103,1919
0.8119667,2288
0.8136333,2151
0.8153,2013
0.8169667,2326
0.8186333,2543
0.8203,2585
0.8219666,2475
0.8236333,2244
0.8253,2477
0.8269666,1964
0.8286333,2025
0.8303,1861
0.8319666,1956
0.8336333,1441
0.8353,1647
0.8369667,1664
0.8386334,1411
0.8403,1114
0.8419667,1243
0.8436334,1159
0.8453,1116
0.8469667,1035
0.8486333,1050
0.8503,1164
0.8519667,1173
0.8536333,1058
0.8553,1259
0.8569667,1264
0.8586333,1238
0.8603,1262
0.8619667,1148
0.8636333,1486
0.8653,1457
0.8669667,1740
0.8686333,1892
0.8703,1859
0.8719667,1803
0.8736333,1747
0.8753,1769
0.8769667,1792
0.8786333,1708
0.8803,1692
0.8819667,1720
0.8836333,1635
0.8853,1582
0.8869666,1547
0.8886333,1819
0.8903,1821
0.8919666,1683
0.8936333,1726
0.8953,1582
0.8969667,1482
0.8986334,1592
0.9003,1610
0.9019667,1555
0.9036334,1501
0.9053,1803
0.9069667,1928
0.9086334,1703
0.9103,1650
0.9119667,1598
0.9136333,1444
0.9153,1408
0.9169667,1526
0.9186333,1644
0.9203,1648
0.9219667,1497
0.9236333,1598
0.9253,1859
0.9269667,1823
0.9286333,1580
0.9303,1683
0.9319667,1704
0.9336333,1476
0.9353,1657
0.9369667,1445
0.9386333,1485
0.9403,1706
0.9419667,1609
0.9436333,1469
0.9453,1398
0.9469666,1581
0.9486333,1462
0.9503,1596
0.9519666,1433
0.9536333,1264
0.9553,1262
0.9569666,1301
0.9586333,1040
0.9603,1132
0.9619667,1145
0.9636334,1177
0.9653,1131
0.9669667,1083
0.9686334,970
0.9703,1076
0.9719667,1289
0.9736333,1285
0.9753,1123
0.9769667,1002
0.9786333,981
0.9803,1059
0.9819667,1253
0.9836333,1228
0.9853,1204
0.9869667,1600
0.9886333,1519
0.9903,1757
0.9919667,1813
0.9936333,1437
0.9953,1702
0.9969667,1953
0.9986333,2160
1.0003,2027
1.001967,2028
1.003633,2029
1.0053,2157
1.006967,2168
1.008633,2178
1.0103,1963
1.011967,2231
1.013633,1926
1.0153,2154
1.016967,1636
1.018633,1814
1.0203,1706
1.021967,1508
1.023633,1588
1.0253,1623
1.026967,1457
1.028633,1530
1.0303,1141
1.031967,1286
1.033633,1274
1.0353,1172
1.036967,946
1.038633,982
1.0403,1205
1.041967,1192
1.043633,1122
1.0453,1095
1.046967,1023
1.048633,952
1.0503,938
1.051967,1034
1.053633,1232
1.0553,1164
1.056967,985
1.058633,784
1.0603,1328
1.061967,1045
1.063633,941
1.0653,1015
1.066967,869
1.068633,871
1.0703,959
1.071967,984
1.073633,1127
1.0753,1149
1.076967,1023
1.078633,859
1.0803,1041
1.081967,1068
1.083633,878
1.0853,1004
1.086967,994
1.088633,1057
1.0903,1119
1.091967,869
1.093633,983
1.0953,1026
1.096967,911
1.098633,982
1.1003,893
1.101967,1007
1.103633,1067
1.1053,904
1.106967,1041
1.108633,970
1.1103,917
1.111967,977
1.113633,814
1.1153,1022
1.116967,870
1.118633,909
1.1203,952
1.121967,943
1.123633,978
1.1253,982
1.126967,843
1.128633,942
1.1303,1047
1.131967,1111
1.133633,1084
1.1353,1026
1.136967,947
1.138633,868
1.1403,1040
1.141967,1060
1.143633,767
1.1453,1067
1.146967,981
1.148633,1012
1.1503,1003
1.151967,951
1.153633,899
1.1553,919
1.156967,896
1.158633,692
1.1603,905
1.161967,903
1.163633,949
1.1653,801
1.166967,756
1.168633,879
1.1703,861
1.171967,1020
1.173633,945
1.1753,870
1.176967,907
1.178633,842
1.1803,875
1.181967,873
1.183633,883
1.1853,867
1.186967,851
1.188633,865
1.1903,879
1.191967,880
1.193633,880
1.1953,879
1.196967,812
1.198633,745
