"SampleName","A2Rd2_01-24"
"Target Mass 1",
"Column Name","IA-3 (3um, 4.6X100)"
"Channel","QDa 1: SIR Ch2"
0.00195,464
0.003616667,668
0.005283333,718
0.00695,742
0.008616666,931
0.01028333,960
0.01195,889
0.01361667,918
0.01528333,952
0.01695,986
0.01861667,945
0.02028333,904
0.02195,885
0.02361667,865
0.02528333,970
0.02695,969
0.02861667,968
0.03028333,685
0.03195,922
0.03361667,966
0.03528333,1083
0.03695,830
0.03861667,873
0.04028333,961
0.04195,1013
0.04361667,1099
0.04528333,1165
0.04695,875
0.04861667,881
0.05028334,820
0.05195,1072
0.05361667,954
0.05528333,836
0.05695,857
0.05861667,1002
0.06028333,953
0.06195,1016
0.06361666,841
0.06528334,806
0.06695,921
0.06861667,654
0.07028333,774
0.07195,870
0.07361667,668
0.07528333,909
0.07695,958
0.07861666,842
0.08028334,909
0.08195,849
0.08361667,915
0.08528333,969
0.08695,933
0.08861667,745
0.09028333,870
0.09195,808
0.09361666,814
0.09528334,851
0.09695,871
0.09861667,891
0.1002833,875
0.10195,609
0.1036167,941
0.1052833,854
0.10695,849
0.1086167,907
0.1102833,881
0.11195,856
0.1136167,735
0.1152833,975
0.11695,884
0.1186167,945
0.1202833,964
0.12195,986
0.1236167,928
0.1252833,956
0.12695,800
0.1286167,887
0.1302833,866
0.13195,909
0.1336167,1041
0.1352833,1048
0.13695,994
0.1386167,1028
0.1402833,1014
0.14195,776
0.1436167,852
0.1452833,831
0.14695,782
0.1486167,733
0.1502833,590
0.15195,891
0.1536167,931
0.1552833,925
0.15695,790
0.1586167,947
0.1602833,856
0.16195,844
0.1636167,847
0.1652833,850
0.16695,836
0.1686167,792
0.1702833,748
0.17195,866
0.1736167,920
0.1752833,850
0.17695,813
0.1786167,776
0.1802833,800
0.18195,919
0.1836167,939
0.1852833,959
0.18695,914
0.1886167,865
0.1902833,798
0.19195,840
0.1936167,890
0.1952833,802
0.19695,827
0.1986167,851
0.2002833,1056
0.20195,1009
0.2036167,1117
0.2052833,901
0.20695,1096
0.2086167,1065
0.2102833,728
0.21195,933
0.2136167,807
0.2152833,872
0.21695,937
0.2186167,972
0.2202833,1006
0.22195,932
0.2236167,1120
0.2252833,1040
0.22695,961
0.2286167,1088
0.2302833,989
0.23195,1017
0.2336167,1046
0.2352833,1014
0.23695,1223
0.2386167,1307
0.2402833,1252
0.24195,1140
0.2436167,1183
0.2452833,1270
0.24695,1234
0.2486167,1197
0.2502833,1180
0.25195,885
0.2536167,941
0.2552833,1320
0.25695,1174
0.2586167,1224
0.2602833,1080
0.26195,1091
0.2636333,1183
0.2652833,966
0.26695,1001
0.2686167,992
0.2702833,1110
0.27195,1096
0.2736167,1082
0.2752833,973
0.27695,950
0.2786167,926
0.2803,1063
0.28195,1106
0.2836167,980
0.2852833,1171
0.2869667,859
0.2886167,1026
0.2902833,998
0.29195,1027
0.2936167,983
0.2952833,1009
0.29695,1018
0.2986333,1026
0.3002833,1074
0.30195,1204
0.3036167,1094
0.3052833,984
0.30695,1100
0.3086167,1020
0.3102833,940
0.31195,1056
0.3136167,1208
0.3153,1158
0.31695,1259
0.3186333,1233
0.3203,1144
0.32195,1213
0.3236167,1215
0.3252833,1347
0.32695,1318
0.3286167,1288
0.3303,1204
0.33195,1336
0.3336333,1056
0.3352833,1383
0.3369667,1479
0.3386167,1278
0.3402833,1220
0.34195,1397
0.3436167,1431
0.3453,1435
0.34695,1368
0.3486167,1447
0.3503,1216
0.3519667,1075
0.3536333,1122
0.3553,1356
0.3569667,1487
0.3586167,1514
0.3602833,1387
0.3619667,1401
0.3636167,1564
0.3653,3256
0.36695,4247
0.3686333,5308
0.3703,5127
0.3719667,5069
0.3736167,4514
0.3753,3295
0.37695,3010
0.3786333,1719
0.3802833,1527
0.3819667,1386
0.3836167,1231
0.3853,1435
0.3869667,967
0.3886333,728
0.3902833,526
0.3919667,855
0.3936167,602
0.3953,800
0.39695,670
0.3986333,925
0.4002833,811
0.4019667,828
0.4036333,844
0.4053,758
0.4069667,843
0.4086333,706
0.4103,603
0.4119667,599
0.4136333,534
0.4153,593
0.4169667,652
0.4186333,794
0.4203,803
0.4219667,705
0.4236333,733
0.4253,847
0.4269667,793
0.4286333,739
0.4303,686
0.4319667,813
0.4336333,873
0.4353,933
0.4369667,884
0.4386333,834
0.4403,1018
0.4419667,1096
0.4436333,949
0.4453,1081
0.4469667,1070
0.4486333,1060
0.4503,1124
0.4519667,1188
0.4536333,1188
0.4553,1065
0.4569667,966
0.4586333,1255
0.4603,1259
0.4619667,1263
0.4636333,1197
0.4653,1131
0.4669667,1299
0.4686333,1232
0.4703,1288
0.4719667,1242
0.4736333,1244
0.4753,1187
0.4769667,1254
0.4786333,1190
0.4803,1079
0.4819667,1033
0.4836333,958
0.4853,1206
0.4869667,1139
0.4886333,902
0.4903,1004
0.4919667,1035
0.4936333,1090
0.4953,895
0.4969667,980
0.4986333,854
0.5003,928
0.5019667,1001
0.5036333,932
0.5053,926
0.5069667,851
0.5086333,845
0.5103,822
0.5119666,827
0.5136333,824
0.5153,821
0.5169666,872
0.5186333,865
0.5203,858
0.5219667,861
0.5236334,864
0.5253,850
0.5269667,836
0.5286334,812
0.5303,789
0.5319667,1008
0.5336334,959
0.5353,782
0.5369667,621
0.5386333,875
0.5403,868
0.5419667,799
0.5436333,830
0.5453,860
0.5469667,903
0.5486333,938
0.5503,896
0.5519667,790
0.5536333,699
0.5553,888
0.5569667,857
0.5586333,997
0.5603,951
0.5619667,952
0.5636333,1034
0.5653,730
0.5669667,1013
0.5686333,899
0.5703,887
0.5719666,915
0.5736333,885
0.5753,855
0.5769666,857
0.5786333,902
0.5803,948
0.5819666,1037
0.5836333,1063
0.5853,905
0.5869667,874
0.5886334,784
0.5903,959
0.5919667,646
0.5936334,1004
0.5953,1054
0.5969667,975
0.5986333,911
0.6003,825
0.6019667,856
0.6036333,888
0.6053,866
0.6069667,845
0.6086333,880
0.6103,915
0.6119667,767
0.6136333,748
0.6153,886
0.6169667,961
0.6186333,873
0.6203,866
0.6219667,860
0.6236333,860
0.6253,860
0.6269667,1002
0.6286333,1088
0.6303,1011
0.6319667,998
0.6336333,985
0.6353,922
0.6369666,1051
0.6386333,1082
0.6403,1119
0.6419666,892
0.6436333,1156
0.6453,977
0.6469667,1028
0.6486334,1246
0.6503,1254
0.6519667,1088
0.6536334,979
0.6553,946
0.6569667,946
0.6586334,1051
0.6603,749
0.6619667,885
0.6636333,1123
0.6653,955
0.6669667,987
0.6686333,974
0.6703,913
0.6719667,852
0.6736333,1260
0.6753,1378
0.6769667,1555
0.6786333,1757
0.6803,1913
0.6819667,2361
0.6836333,2464
0.6853,3187
0.6869667,3843
0.6886333,4790
0.6903,6390
0.6919667,7037
0.6936333,8908
0.6953,11256
0.6969666,13080
0.6986333,15608
0.7003,17400
0.7019666,20884
0.7036333,23604
0.7053,27244
0.7069666,27944
0.7086333,31168
0.7103,31416
0.7119667,33296
0.7136334,32800
0.7153,31108
0.7169667,29136
0.7186334,26272
0.7203,23280
0.7219667,21836
0.7236333,18280
0.7253,15716
0.7269667,13152
0.7286333,10540
0.7303,8596
0.7319667,6992
0.7336333,6099
0.7353,5415
0.7369667,4599
0.7386333,4199
0.7403,3337
0.7419667,2890
0.7436333,2671
0.7453,2734
0.7469667,2537
0.7486333,2020
0.7503,2212
0.7519667,2068
0.7536333,1880
0.7553,1614
0.7569667,1614
0.7586333,1716
0.7603,1574
0.7619666,1669
0.7636333,1391
0.7653,1322
0.7669666,1444
0.7686333,1287
0.7703,1330
0.7719667,1244
0.7736334,1350
0.7753,1456
0.7769667,1463
0.7786334,1705
0.7803,1639
0.7819667,2257
0.7836334,2557
0.7853,2626
0.7869667,3063
0.7886333,3485
0.7903,4769
0.7919667,5316
0.7936333,6313
0.7953,7830
0.7969667,8736
0.7986333,10996
0.8003,13144
0.8019667,16912
0.8036333,18812
0.8053,21516
0.8069667,24140
0.8086333,27540
0.8103,30816
0.8119667,35216
0.8136333,36800
0.8153,39440
0.8169667,39008
0.8186333,42032
0.8203,42848
0.8219666,40592
0.8236333,38352
0.8253,35936
0.8269666,33056
0.8286333,29424
0.8303,26764
0.8319666,21656
0.8336333,19520
0.8353,15904
0.8369667,13896
0.8386334,11536
0.8403,10324
0.8419667,7843
0.8436334,7125
0.8453,6167
0.8469667,5305
0.8486333,5120
0.8503,4676
0.8519667,3860
0.8536333,3640
0.8553,3382
0.8569667,2694
0.8586333,2999
0.8603,2762
0.8619667,2544
0.8636333,2259
0.8653,2107
0.8669667,2046
0.8686333,2094
0.8703,1857
0.8719667,1911
0.8736333,1518
0.8753,1797
0.8769667,1771
0.8786333,1729
0.8803,1688
0.8819667,1577
0.8836333,1801
0.8853,1824
0.8869666,1775
0.8886333,1726
0.8903,1925
0.8919666,2264
0.8936333,2219
0.8953,1883
0.8969667,1813
0.8986334,1706
0.9003,1574
0.9019667,1346
0.9036334,1596
0.9053,1469
0.9069667,1714
0.9086334,1658
0.9103,1728
0.9119667,1397
0.9136333,1318
0.9153,1306
0.9169667,1425
0.9186333,1349
0.9203,1273
0.9219667,1360
0.9236333,1347
0.9253,1334
0.9269667,1324
0.9286333,1313
0.9303,1289
0.9319667,1338
0.9336333,1309
0.9353,1281
0.9369667,1419
0.9386333,1450
0.9403,1413
0.9419667,1458
0.9436333,1393
0.9453,1435
0.9469666,1339
0.9486333,1243
0.9503,1343
0.9519666,1443
0.9536333,1443
0.9553,1442
0.9569666,1563
0.9586333,1838
0.9603,1986
0.9619667,2133
0.9636334,2594
0.9653,2768
0.9669667,3506
0.9686334,3931
0.9703,4972
0.9719667,5025
0.9736333,5634
0.9753,7222
0.9769667,8135
0.9786333,9048
0.9803,9924
0.9819667,12852
0.9836333,14232
0.9853,16492
0.9869667,20064
0.9886333,22324
0.9903,25300
0.9919667,29692
0.9936333,34976
0.9953,39120
0.9969667,42816
0.9986333,48336
1.0003,54144
1.001967,56912
1.003633,60160
1.0053,61872
1.006967,67520
1.008633,66160
1.0103,68704
1.011967,65392
1.013633,63040
1.0153,63456
1.016967,61344
1.018633,58048
1.0203,52064
1.021967,47568
1.023633,42112
1.0253,37520
1.026967,32912
1.028633,29296
1.0303,25448
1.031967,23988
1.033633,19708
1.0353,17344
1.036967,15648
1.038633,14340
1.0403,12588
1.041967,11692
1.043633,11064
1.0453,9768
1.046967,8636
1.048633,8640
1.0503,8018
1.051967,8280
1.053633,7239
1.0553,7673
1.056967,7119
1.058633,7547
1.0603,6976
1.061967,6862
1.063633,7343
1.0653,7268
1.066967,7193
1.068633,8075
1.0703,7913
1.071967,8796
1.073633,8636
1.0753,10408
1.076967,10204
1.078633,10940
1.0803,11924
1.081967,12732
1.083633,14028
1.0853,14776
1.086967,16792
1.088633,16608
1.0903,18880
1.091967,18336
1.093633,18956
1.0953,19200
1.096967,19320
1.098633,19444
1.1003,19316
1.101967,19188
1.103633,19032
1.1053,18652
1.106967,17444
1.108633,16328
1.1103,16048
1.111967,15324
1.113633,14576
1.1153,12536
1.116967,12008
1.118633,11328
1.1203,10532
1.121967,8896
1.123633,8512
1.1253,7104
1.126967,6676
1.128633,6670
1.1303,5977
1.131967,5378
1.133633,5107
1.1353,4887
1.136967,4518
1.138633,4409
1.1403,4139
1.141967,3119
1.143633,3171
1.1453,3342
1.146967,2865
1.148633,2717
1.1503,2881
1.151967,2681
1.153633,2380
1.1553,2304
1.156967,2561
1.158633,2006
1.1603,2181
1.161967,2054
1.163633,2264
1.1653,2275
1.166967,1780
1.168633,2098
1.1703,1755
1.171967,1887
1.173633,1532
1.1753,1870
1.176967,1447
1.178633,1555
1.1803,1687
1.181967,1602
1.183633,1575
1.1853,1459
1.186967,1309
1.188633,1481
1.1903,1446
1.191967,1415
1.193633,1384
1.1953,1767
1.196967,1756
1.198633,1615
