"SampleName","A2Rd2_01-3"
"Target Mass 1",
"Column Name","IA-3 (3um, 4.6X100)"
"Channel","QDa 1: SIR Ch1"
0.00195,331
0.003616667,678
0.005283333,600
0.00695,623
0.008616666,610
0.01028333,583
0.01195,566
0.01361667,556
0.01528333,619
0.01695,575
0.01861667,531
0.02028333,603
0.02195,550
0.02361667,642
0.02528333,657
0.02695,540
0.02861667,535
0.03028333,546
0.03195,549
0.03361667,553
0.03528333,529
0.03695,504
0.03861667,494
0.04028333,545
0.04195,514
0.04361667,483
0.04528333,596
0.04695,432
0.04861667,640
0.05028334,549
0.05195,504
0.05361667,547
0.05528333,475
0.05695,467
0.05861667,459
0.06028333,552
0.06195,608
0.06361666,622
0.06528334,546
0.06695,442
0.06861667,520
0.07028333,598
0.07195,514
0.07361667,597
0.07528333,517
0.07695,522
0.07861666,599
0.08028334,472
0.08195,604
0.08361667,555
0.08528333,710
0.08695,641
0.08861667,563
0.09028333,561
0.09195,587
0.09361666,593
0.09528334,513
0.09695,526
0.09861667,538
0.1002833,570
0.10195,528
0.1036167,487
0.1052833,519
0.10695,429
0.1086167,655
0.1102833,686
0.11195,598
0.1136167,630
0.1152833,499
0.11695,540
0.1186167,539
0.1202833,606
0.12195,601
0.1236167,442
0.1252833,562
0.12695,584
0.1286167,690
0.1302833,623
0.13195,390
0.1336167,598
0.1352833,492
0.13695,348
0.1386167,606
0.1402833,441
0.14195,564
0.1436167,514
0.1452833,590
0.14695,595
0.1486167,600
0.1502833,571
0.15195,468
0.1536167,606
0.1552833,461
0.15695,405
0.1586167,511
0.1602833,580
0.16195,596
0.1636167,637
0.1652833,501
0.16695,623
0.1686167,533
0.1702833,534
0.17195,407
0.1736167,498
0.1752833,497
0.17695,453
0.1786167,494
0.1802833,535
0.18195,634
0.1836167,638
0.1852833,479
0.18695,493
0.1886167,350
0.1902833,523
0.19195,575
0.1936167,593
0.1952833,481
0.19695,631
0.1986167,468
0.2002833,672
0.20195,434
0.2036167,546
0.2052833,344
0.20695,621
0.2086167,475
0.2102833,409
0.21195,375
0.2136167,428
0.2152833,476
0.21695,525
0.2186167,556
0.2202833,560
0.22195,530
0.2236167,480
0.2252833,430
0.22695,563
0.2286167,606
0.2302833,489
0.23195,584
0.2336167,561
0.2352833,435
0.23695,558
0.2386167,516
0.2402833,506
0.24195,588
0.2436167,458
0.2452833,467
0.24695,648
0.2486167,586
0.2502833,675
0.25195,480
0.2536167,589
0.2552833,629
0.25695,525
0.2586167,469
0.2602833,532
0.26195,497
0.2636333,461
0.2653,493
0.26695,524
0.2686167,528
0.2702833,443
0.27195,543
0.2736167,402
0.2752833,332
0.27695,581
0.2786167,418
0.2803,584
0.28195,518
0.2836167,512
0.2852833,510
0.28695,508
0.2886167,483
0.2902833,457
0.29195,471
0.2936167,473
0.2952833,519
0.29695,515
0.2986333,511
0.3003,453
0.30195,472
0.3036167,491
0.3052833,623
0.30695,616
0.3086167,520
0.3102833,446
0.31195,556
0.3136167,561
0.3153,542
0.3169667,522
0.3186167,551
0.3202833,540
0.32195,506
0.3236167,472
0.3253,504
0.32695,536
0.3286167,584
0.3302833,631
0.33195,601
0.3336333,502
0.3352833,557
0.33695,615
0.3386333,504
0.3402833,508
0.3419667,611
0.3436167,419
0.3452833,632
0.34695,481
0.3486333,659
0.3503,806
0.3519667,701
0.3536167,535
0.3552833,606
0.35695,522
0.3586333,655
0.3602833,895
0.36195,927
0.3636167,1651
0.3653,4319
0.3669667,6312
0.3686333,8316
0.3703,8046
0.3719667,6000
0.3736167,5149
0.3753,3977
0.37695,3862
0.3786167,3262
0.3802833,2577
0.38195,3079
0.3836333,2523
0.3853,2496
0.3869667,2084
0.3886333,2111
0.3902833,1876
0.3919667,1826
0.3936167,1965
0.3953,2112
0.3969667,2068
0.3986333,1929
0.4003,1927
0.4019667,1799
0.4036333,1599
0.4053,1665
0.4069667,1854
0.4086333,2019
0.4103,1883
0.4119667,1748
0.4136333,1601
0.4153,1885
0.4169667,1612
0.4186333,1844
0.4203,1627
0.4219667,1502
0.4236333,1383
0.4253,1505
0.4269667,1173
0.4286333,1450
0.4303,1276
0.4319667,1308
0.4336333,1200
0.4353,1234
0.4369667,1171
0.4386333,1225
0.4403,1169
0.4419667,1243
0.4436333,1962
0.4453,2868
0.4469667,4309
0.4486333,6871
0.4503,11544
0.4519667,20540
0.4536333,34576
0.4553,57888
0.4569667,88464
0.4586333,131072
0.4603,177664
0.4619667,230784
0.4636333,281984
0.4653,324864
0.4669667,362944
0.4686333,379200
0.4703,387840
0.4719667,361280
0.4736333,339200
0.4753,300992
0.4769667,258560
0.4786333,216192
0.4803,174912
0.4819667,146688
0.4836333,116560
0.4853,95248
0.4869667,77008
0.4886333,61392
0.4903,49968
0.4919667,41920
0.4936333,33920
0.4953,27904
0.4969667,24984
0.4986333,19208
0.5003,16048
0.5019667,14376
0.5036333,11376
0.5053,10256
0.5069667,8572
0.5086333,8067
0.5103,6775
0.5119666,6608
0.5136333,5625
0.5153,5099
0.5169666,5101
0.5186333,4293
0.5203,4156
0.5219667,4054
0.5236334,3871
0.5253,3654
0.5269667,3188
0.5286334,3062
0.5303,2962
0.5319667,3107
0.5336334,2586
0.5353,2497
0.5369667,2811
0.5386333,2706
0.5403,2439
0.5419667,2355
0.5436333,2298
0.5453,2320
0.5469667,2254
0.5486333,2264
0.5503,2226
0.5519667,1955
0.5536333,1989
0.5553,2047
0.5569667,1789
0.5586333,1713
0.5603,1866
0.5619667,1655
0.5636333,1488
0.5653,1423
0.5669667,1483
0.5686333,1449
0.5703,1385
0.5719666,1474
0.5736333,1479
0.5753,1317
0.5769666,1151
0.5786333,1512
0.5803,1538
0.5819666,1375
0.5836333,1037
0.5853,1464
0.5869667,1354
0.5886334,1356
0.5903,1306
0.5919667,1335
0.5936334,1364
0.5953,1423
0.5969667,1447
0.5986333,1470
0.6003,1416
0.6019667,1218
0.6036333,1586
0.6053,1324
0.6069667,1453
0.6086333,1234
0.6103,1374
0.6119667,1386
0.6136333,1194
0.6153,1497
0.6169667,1199
0.6186333,1217
0.6203,1280
0.6219667,1304
0.6236333,1135
0.6253,1243
0.6269667,1212
0.6286333,1029
0.6303,1210
0.6319667,1109
0.6336333,1042
0.6353,1090
0.6369666,948
0.6386333,987
0.6403,1026
0.6419666,996
0.6436333,1017
0.6453,1038
0.6469667,893
0.6486334,1129
0.6503,785
0.6519667,931
0.6536334,964
0.6553,780
0.6569667,1107
0.6586334,1006
0.6603,911
0.6619667,824
0.6636333,882
0.6653,722
0.6669667,717
0.6686333,712
0.6703,786
0.6719667,711
0.6736333,636
0.6753,788
0.6769667,753
0.6786333,755
0.6803,758
0.6819667,734
0.6836333,710
0.6853,708
0.6869667,756
0.6886333,794
0.6903,848
0.6919667,835
0.6936333,734
0.6953,850
0.6969666,721
0.6986333,768
0.7003,890
0.7019666,814
0.7036333,760
0.7053,816
0.7069666,706
0.7086333,727
0.7103,759
0.7119667,642
0.7136334,593
0.7153,709
0.7169667,787
0.7186334,881
0.7203,817
0.7219667,753
0.7236333,608
0.7253,498
0.7269667,831
0.7286333,767
0.7303,767
0.7319667,573
0.7336333,625
0.7353,686
0.7369667,746
0.7386333,742
0.7403,674
0.7419667,729
0.7436333,736
0.7453,743
0.7469667,869
0.7486333,844
0.7503,710
0.7519667,720
0.7536333,756
0.7553,935
0.7569667,861
0.7586333,787
0.7603,848
0.7619666,645
0.7636333,653
0.7653,711
0.7669666,761
0.7686333,728
0.7703,849
0.7719667,876
0.7736334,768
0.7753,544
0.7769667,815
0.7786334,750
0.7803,725
0.7819667,622
0.7836334,771
0.7853,750
0.7869667,729
0.7886333,633
0.7903,767
0.7919667,576
0.7936333,717
0.7953,735
0.7969667,694
0.7986333,668
0.8003,610
0.8019667,645
0.8036333,680
0.8053,599
0.8069667,670
0.8086333,659
0.8103,672
0.8119667,666
0.8136333,660
0.8153,811
0.8169667,825
0.8186333,748
0.8203,719
0.8219666,690
0.8236333,669
0.8253,666
0.8269666,759
0.8286333,762
0.8303,784
0.8319666,747
0.8336333,585
0.8353,705
0.8369667,679
0.8386334,697
0.8403,651
0.8419667,663
0.8436334,652
0.8453,695
0.8469667,725
0.8486333,851
0.8503,809
0.8519667,793
0.8536333,790
0.8553,764
0.8569667,737
0.8586333,710
0.8603,695
0.8619667,681
0.8636333,670
0.8653,808
0.8669667,533
0.8686333,593
0.8703,538
0.8719667,661
0.8736333,699
0.8753,758
0.8769667,683
0.8786333,712
0.8803,1027
0.8819667,1203
0.8836333,1583
0.8853,2144
0.8869666,2474
0.8886333,2749
0.8903,3179
0.8919666,3185
0.8936333,3316
0.8953,3436
0.8969667,3338
0.8986334,3235
0.9003,3226
0.9019667,3189
0.9036334,3236
0.9053,3269
0.9069667,3500
0.9086334,3610
0.9103,3443
0.9119667,3368
0.9136333,2861
0.9153,3241
0.9169667,3483
0.9186333,3369
0.9203,3220
0.9219667,3368
0.9236333,3223
0.9253,3251
0.9269667,3281
0.9286333,3505
0.9303,2800
0.9319667,3208
0.9336333,2577
0.9353,2658
0.9369667,2865
0.9386333,2609
0.9403,2442
0.9419667,2362
0.9436333,2544
0.9453,2415
0.9469666,2056
0.9486333,1846
0.9503,1923
0.9519666,1871
0.9536333,1923
0.9553,1824
0.9569666,1532
0.9586333,1548
0.9603,1468
0.9619667,1538
0.9636334,1271
0.9653,1059
0.9669667,1045
0.9686334,1024
0.9703,1031
0.9719667,776
0.9736333,824
0.9753,770
0.9769667,755
0.9786333,739
0.9803,687
0.9819667,718
0.9836333,629
0.9853,587
0.9869667,605
0.9886333,504
0.9903,527
0.9919667,471
0.9936333,465
0.9953,459
0.9969667,465
0.9986333,629
1.0003,601
1.001967,397
1.003633,575
1.0053,594
1.006967,402
1.008633,574
1.0103,615
1.011967,408
1.013633,442
1.0153,510
1.016967,578
1.018633,578
1.0203,504
1.021967,687
1.023633,658
1.0253,580
1.026967,585
1.028633,492
1.0303,426
1.031967,575
1.033633,662
1.0353,574
1.036967,683
1.038633,589
1.0403,529
1.041967,494
1.043633,574
1.0453,556
1.046967,538
1.048633,579
1.0503,449
1.051967,602
1.053633,545
1.0553,480
1.056967,621
1.058633,484
1.0603,684
1.061967,631
1.063633,602
1.0653,636
1.066967,602
1.068633,625
1.0703,618
1.071967,610
1.073633,603
1.0753,623
1.076967,573
1.078633,586
1.0803,590
1.081967,497
1.083633,557
1.0853,618
1.086967,603
1.088633,623
1.0903,595
1.091967,650
1.093633,710
1.0953,474
1.096967,488
1.098633,565
1.1003,609
1.101967,653
1.103633,568
1.1053,482
1.106967,651
1.108633,593
1.1103,620
1.111967,526
1.113633,629
1.1153,565
1.116967,673
1.118633,673
1.1203,650
1.121967,684
1.123633,622
1.1253,687
1.126967,683
1.128633,679
1.1303,610
1.131967,478
1.133633,631
1.1353,722
1.136967,480
1.138633,766
1.1403,713
1.141967,720
1.143633,565
1.1453,501
1.146967,644
1.148633,735
1.1503,759
1.151967,710
1.153633,661
1.1553,608
1.156967,554
1.158633,645
1.1603,547
1.161967,641
1.163633,596
1.1653,566
1.166967,625
1.168633,684
1.1703,811
1.171967,750
1.173633,663
1.1753,544
1.176967,739
1.178633,607
1.1803,459
1.181967,657
1.183633,685
1.1853,597
1.186967,674
1.188633,889
1.1903,857
1.191967,590
1.193633,703
1.1953,703
1.196967,771
1.198633,750
