"SampleName","A2Rd2_01-73"
"Target Mass 1",
"Column Name","IA-3 (3um, 4.6X100)"
"Channel","QDa 1: SIR Ch1"
0.00195,421
0.003616667,496
0.005283333,465
0.00695,455
0.008616666,444
0.01028333,612
0.01195,692
0.01361667,598
0.01528333,573
0.01695,603
0.01861667,519
0.02028333,574
0.02195,657
0.02361667,444
0.02528333,556
0.02695,543
0.02861667,599
0.03028333,481
0.03195,496
0.03361667,431
0.03528333,410
0.03695,469
0.03861667,457
0.04028333,444
0.04195,497
0.04361667,485
0.04528333,472
0.04695,476
0.04861667,479
0.05028334,599
0.05195,578
0.05361667,420
0.05528333,498
0.05695,516
0.05861667,535
0.06028333,531
0.06195,527
0.06361666,530
0.06528334,482
0.06695,394
0.06861667,461
0.07028333,444
0.07195,477
0.07361667,510
0.07528333,527
0.07695,534
0.07861666,542
0.08028334,566
0.08195,373
0.08361667,462
0.08528333,607
0.08695,518
0.08861667,517
0.09028333,616
0.09195,498
0.09361666,530
0.09528334,562
0.09695,523
0.09861667,514
0.1002833,568
0.10195,489
0.1036167,461
0.1052833,493
0.10695,485
0.1086167,477
0.1102833,552
0.11195,568
0.1136167,528
0.1152833,562
0.11695,582
0.1186167,582
0.1202833,467
0.12195,581
0.1236167,525
0.1252833,512
0.12695,547
0.1286167,581
0.1302833,615
0.13195,393
0.1336167,501
0.1352833,670
0.13695,574
0.1386167,461
0.1402833,502
0.14195,420
0.1436167,617
0.1452833,661
0.14695,525
0.1486167,508
0.1502833,387
0.15195,488
0.1536167,507
0.1552833,527
0.15695,528
0.1586167,477
0.1602833,490
0.16195,540
0.1636167,458
0.1652833,450
0.16695,522
0.1686167,530
0.1702833,430
0.17195,530
0.1736167,353
0.1752833,522
0.17695,412
0.1786167,445
0.1802833,454
0.18195,473
0.1836167,492
0.1852833,514
0.18695,525
0.1886167,537
0.1902833,450
0.19195,572
0.1936167,559
0.1952833,582
0.19695,516
0.1986167,512
0.2002833,508
0.20195,514
0.2036167,465
0.2052833,499
0.20695,534
0.2086167,472
0.2102833,410
0.21195,575
0.2136167,525
0.2152833,436
0.21695,339
0.2186167,473
0.2202833,488
0.22195,535
0.2236167,468
0.2252833,400
0.22695,545
0.2286167,305
0.2302833,665
0.23195,498
0.2336167,547
0.2352833,455
0.23695,551
0.2386167,535
0.2402833,489
0.24195,553
0.2436167,543
0.2452833,532
0.24695,538
0.2486167,515
0.2502833,506
0.25195,539
0.2536167,525
0.2552833,523
0.25695,520
0.2586167,492
0.2602833,464
0.26195,419
0.2636333,496
0.2652833,530
0.26695,527
0.2686167,451
0.2702833,528
0.27195,367
0.2736167,546
0.2752833,568
0.27695,388
0.2786167,461
0.2803,368
0.28195,491
0.2836167,399
0.2852833,559
0.28695,470
0.2886167,503
0.2902833,619
0.29195,689
0.2936167,603
0.2952833,645
0.29695,443
0.2986333,473
0.3002833,510
0.30195,502
0.3036167,494
0.3052833,526
0.30695,474
0.3086167,423
0.3102833,495
0.3119667,674
0.3136167,549
0.3153,425
0.31695,514
0.3186167,560
0.3202833,537
0.32195,535
0.3236167,533
0.3252833,531
0.32695,528
0.3286167,594
0.3302833,588
0.33195,582
0.3336333,475
0.3352833,656
0.3369667,557
0.3386167,539
0.3402833,507
0.34195,450
0.3436167,435
0.3452833,426
0.3469667,515
0.3486167,603
0.3503,551
0.35195,347
0.3536167,549
0.3553,521
0.3569667,493
0.3586167,515
0.3602833,536
0.36195,795
0.3636333,952
0.3653,1455
0.36695,2363
0.3686333,4570
0.3703,5315
0.3719667,7292
0.3736333,8396
0.3753,8492
0.37695,8252
0.3786333,9284
0.3803,9028
0.3819667,7223
0.3836167,5233
0.3853,4879
0.38695,4403
0.3886333,3394
0.3903,2975
0.3919667,2452
0.3936167,1904
0.3953,1554
0.3969667,1343
0.3986333,1294
0.4002833,989
0.4019667,1006
0.4036333,1171
0.4053,895
0.4069667,1145
0.4086333,984
0.4102833,912
0.4119667,931
0.4136333,951
0.4153,1171
0.41695,1227
0.4186333,1306
0.4203,982
0.4219667,1253
0.4236333,1226
0.4253,1406
0.4269667,1062
0.4286333,1087
0.4303,1097
0.4319667,1022
0.4336333,1389
0.4353,1866
0.4369667,2139
0.4386333,3392
0.4403,4847
0.4419667,7212
0.4436333,11796
0.4453,17432
0.4469667,26628
0.4486333,35552
0.4503,47584
0.4519667,60016
0.4536333,73856
0.4553,86336
0.4569667,104672
0.4586333,115872
0.4603,132032
0.4619667,142976
0.4636333,162688
0.4653,177792
0.4669667,194240
0.4686333,211456
0.4703,227072
0.4719667,246080
0.4736333,250112
0.4753,248384
0.4769667,243072
0.4786333,226560
0.4803,208256
0.4819667,183040
0.4836333,160128
0.4853,130464
0.4869667,107472
0.4886333,87760
0.4903,67616
0.4919667,52800
0.4936333,43440
0.4953,32928
0.4969667,24992
0.4986333,20156
0.5003,15724
0.5019667,12844
0.5036333,10220
0.5053,8672
0.5069667,7129
0.5086333,6553
0.5103,6640
0.5119666,5412
0.5136333,4965
0.5153,4068
0.5169666,4536
0.5186333,3803
0.5203,3758
0.5219667,3345
0.5236334,3447
0.5253,3321
0.5269667,2757
0.5286334,2846
0.5303,3010
0.5319667,2472
0.5336334,2532
0.5353,2441
0.5369667,2577
0.5386333,2313
0.5403,2386
0.5419667,1923
0.5436333,1907
0.5453,2120
0.5469667,1800
0.5486333,1785
0.5503,1802
0.5519667,1767
0.5536333,1733
0.5553,1593
0.5569667,1532
0.5586333,1747
0.5603,1560
0.5619667,1505
0.5636333,1358
0.5653,1189
0.5669667,1395
0.5686333,1188
0.5703,1130
0.5719666,1324
0.5736333,1236
0.5753,1330
0.5769666,1202
0.5786333,1291
0.5803,1330
0.5819666,1002
0.5836333,1133
0.5853,1368
0.5869667,1315
0.5886334,1261
0.5903,986
0.5919667,1437
0.5936334,1230
0.5953,1278
0.5969667,1000
0.5986333,1391
0.6003,1197
0.6019667,1230
0.6036333,1102
0.6053,1291
0.6069667,1252
0.6086333,1186
0.6103,1121
0.6119667,1134
0.6136333,1199
0.6153,1080
0.6169667,1154
0.6186333,1154
0.6203,1187
0.6219667,1219
0.6236333,956
0.6253,1040
0.6269667,1063
0.6286333,1085
0.6303,956
0.6319667,873
0.6336333,869
0.6353,895
0.6369666,921
0.6386333,724
0.6403,967
0.6419666,731
0.6436333,752
0.6453,846
0.6469667,813
0.6486334,758
0.6503,778
0.6519667,797
0.6536334,912
0.6553,595
0.6569667,695
0.6586334,927
0.6603,966
0.6619667,712
0.6636333,726
0.6653,776
0.6669667,673
0.6686333,797
0.6703,715
0.6719667,789
0.6736333,635
0.6753,668
0.6769667,701
0.6786333,620
0.6803,610
0.6819667,599
0.6836333,917
0.6853,888
0.6869667,723
0.6886333,750
0.6903,657
0.6919667,587
0.6936333,780
0.6953,592
0.6969666,572
0.6986333,698
0.7003,611
0.7019666,655
0.7036333,612
0.7053,635
0.7069666,658
0.7086333,649
0.7103,640
0.7119667,611
0.7136334,582
0.7153,613
0.7169667,597
0.7186334,582
0.7203,692
0.7219667,778
0.7236333,821
0.7253,644
0.7269667,732
0.7286333,627
0.7303,666
0.7319667,666
0.7336333,665
0.7353,669
0.7369667,658
0.7386333,661
0.7403,664
0.7419667,668
0.7436333,663
0.7453,658
0.7469667,553
0.7486333,611
0.7503,582
0.7519667,587
0.7536333,628
0.7553,668
0.7569667,707
0.7586333,853
0.7603,794
0.7619666,544
0.7636333,620
0.7653,614
0.7669666,656
0.7686333,653
0.7703,651
0.7719667,497
0.7736334,748
0.7753,660
0.7769667,689
0.7786334,594
0.7803,720
0.7819667,747
0.7836334,657
0.7853,737
0.7869667,774
0.7886333,812
0.7903,815
0.7919667,590
0.7936333,629
0.7953,694
0.7969667,667
0.7986333,621
0.8003,692
0.8019667,538
0.8036333,653
0.8053,681
0.8069667,641
0.8086333,601
0.8103,586
0.8119667,769
0.8136333,895
0.8153,850
0.8169667,694
0.8186333,815
0.8203,625
0.8219666,728
0.8236333,742
0.8253,891
0.8269666,826
0.8286333,823
0.8303,820
0.8319666,757
0.8336333,896
0.8353,915
0.8369667,789
0.8386334,845
0.8403,817
0.8419667,817
0.8436334,816
0.8453,796
0.8469667,621
0.8486333,644
0.8503,794
0.8519667,855
0.8536333,830
0.8553,754
0.8569667,796
0.8586333,667
0.8603,625
0.8619667,583
0.8636333,878
0.8653,809
0.8669667,707
0.8686333,723
0.8703,715
0.8719667,539
0.8736333,776
0.8753,781
0.8769667,919
0.8786333,1077
0.8803,1481
0.8819667,1978
0.8836333,1990
0.8853,2526
0.8869666,2695
0.8886333,2921
0.8903,3085
0.8919666,3083
0.8936333,3430
0.8953,3546
0.8969667,3162
0.8986334,3129
0.9003,3193
0.9019667,3032
0.9036334,3243
0.9053,3359
0.9069667,3429
0.9086334,3434
0.9103,3044
0.9119667,3359
0.9136333,3244
0.9153,3115
0.9169667,3122
0.9186333,3130
0.9203,3244
0.9219667,3237
0.9236333,3230
0.9253,3133
0.9269667,2896
0.9286333,3307
0.9303,3122
0.9319667,3371
0.9336333,3001
0.9353,3153
0.9369667,3003
0.9386333,2747
0.9403,3051
0.9419667,2734
0.9436333,2410
0.9453,2985
0.9469666,2537
0.9486333,2485
0.9503,2316
0.9519666,2465
0.9536333,2054
0.9553,2138
0.9569666,2221
0.9586333,1845
0.9603,1810
0.9619667,1857
0.9636334,1773
0.9653,1366
0.9669667,1250
0.9686334,1469
0.9703,1270
0.9719667,1448
0.9736333,1230
0.9753,1117
0.9769667,1008
0.9786333,970
0.9803,737
0.9819667,885
0.9836333,809
0.9853,819
0.9869667,783
0.9886333,770
0.9903,798
0.9919667,723
0.9936333,618
0.9953,449
0.9969667,616
0.9986333,640
1.0003,479
1.001967,586
1.003633,526
1.0053,539
1.006967,552
1.008633,518
1.0103,546
1.011967,568
1.013633,605
1.0153,489
1.016967,481
1.018633,472
1.0203,400
1.021967,714
1.023633,643
1.0253,557
1.026967,724
1.028633,521
1.0303,578
1.031967,692
1.033633,561
1.0353,511
1.036967,748
1.038633,663
1.0403,574
1.041967,595
1.043633,601
1.0453,651
1.046967,693
1.048633,766
1.0503,510
1.051967,536
1.053633,454
1.0553,459
1.056967,464
1.058633,583
1.0603,558
1.061967,644
1.063633,624
1.0653,605
1.066967,625
1.068633,470
1.0703,496
1.071967,521
1.073633,507
1.0753,493
1.076967,464
1.078633,551
1.0803,639
1.081967,659
1.083633,674
1.0853,692
1.086967,595
1.088633,634
1.0903,653
1.091967,480
1.093633,498
1.0953,516
1.096967,659
1.098633,739
1.1003,750
1.101967,657
1.103633,713
1.1053,529
1.106967,610
1.108633,564
1.1103,511
1.111967,459
1.113633,759
1.1153,743
1.116967,678
1.118633,678
1.1203,612
1.121967,719
1.123633,583
1.1253,653
1.126967,631
1.128633,539
1.1303,585
1.131967,594
1.133633,615
1.1353,580
1.136967,545
1.138633,616
1.1403,755
1.141967,713
1.143633,670
1.1453,744
1.146967,795
1.148633,565
1.1503,722
1.151967,737
1.153633,642
1.1553,508
1.156967,777
1.158633,654
1.1603,770
1.161967,711
1.163633,735
1.1653,759
1.166967,746
1.168633,733
1.1703,687
1.171967,641
1.173633,650
1.1753,905
1.176967,858
1.178633,766
1.1803,661
1.181967,738
1.183633,716
1.1853,694
1.186967,715
1.188633,737
1.1903,752
1.191967,767
1.193633,900
1.1953,1032
1.196967,978
1.198633,777
