"SampleName","A2Rd2_01-67"
"Target Mass 1",
"Column Name","IA-3 (3um, 4.6X100)"
"Channel","QDa 1: SIR Ch2"
0.00195,589
0.003616667,617
0.005283333,469
0.00695,710
0.008616666,1031
0.01028333,1039
0.01195,827
0.01361667,1021
0.01528333,905
0.01695,1072
0.01861667,869
0.02028333,853
0.02195,854
0.02361667,900
0.02528333,813
0.02695,726
0.02861667,848
0.03028333,727
0.03195,874
0.03361667,925
0.03528333,896
0.03695,885
0.03861667,871
0.04028333,975
0.04195,1023
0.04361667,973
0.04528333,941
0.04695,878
0.04861667,914
0.05028334,731
0.05195,831
0.05361667,930
0.05528333,736
0.05695,873
0.05861667,770
0.06028333,723
0.06195,832
0.06361666,1034
0.06528334,1008
0.06695,970
0.06861667,717
0.07028333,875
0.07195,912
0.07361667,991
0.07528333,910
0.07695,793
0.07861666,829
0.08028334,889
0.08195,861
0.08361667,833
0.08528333,894
0.08695,727
0.08861667,939
0.09028333,986
0.09195,991
0.09361666,827
0.09528334,740
0.09695,758
0.09861667,747
0.1002833,742
0.10195,737
0.1036167,967
0.1052833,943
0.10695,813
0.1086167,830
0.1102833,807
0.11195,785
0.1136167,973
0.1152833,1018
0.11695,724
0.1186167,959
0.1202833,821
0.12195,700
0.1236167,773
0.1252833,758
0.12695,926
0.1286167,926
0.1302833,868
0.13195,897
0.1336167,885
0.1352833,890
0.13695,880
0.1386167,870
0.1402833,657
0.14195,656
0.1436167,711
0.1452833,755
0.14695,955
0.1486167,914
0.1502833,793
0.15195,827
0.1536167,742
0.1552833,751
0.15695,750
0.1586167,814
0.1602833,781
0.16195,748
0.1636167,819
0.1652833,823
0.16695,828
0.1686167,819
0.1702833,751
0.17195,710
0.1736167,799
0.1752833,748
0.17695,785
0.1786167,882
0.1802833,821
0.18195,761
0.1836167,963
0.1852833,985
0.18695,815
0.1886167,760
0.1902833,711
0.19195,790
0.1936167,735
0.1952833,681
0.19695,786
0.1986167,891
0.2002833,1069
0.20195,983
0.2036167,848
0.2052833,1079
0.20695,921
0.2086167,769
0.2102833,985
0.21195,858
0.2136167,945
0.2152833,777
0.21695,957
0.2186167,1106
0.2202833,1126
0.22195,975
0.2236167,1244
0.2252833,906
0.22695,1034
0.2286167,911
0.2302833,1012
0.23195,1012
0.2336167,1118
0.2352833,1205
0.23695,1278
0.2386167,1122
0.2402833,1121
0.24195,1198
0.2436167,997
0.2452833,1039
0.24695,1108
0.2486167,1098
0.2502833,1089
0.25195,1109
0.2536167,1056
0.2552833,942
0.25695,1106
0.2586167,1047
0.2602833,1131
0.26195,1136
0.2636333,969
0.2652833,1211
0.26695,1276
0.2686167,1251
0.2702833,1222
0.27195,932
0.2736167,1096
0.2752833,1133
0.27695,994
0.2786167,1019
0.2803,853
0.28195,870
0.2836167,880
0.2852833,890
0.2869667,966
0.2886167,963
0.2902833,961
0.29195,912
0.2936167,915
0.2952833,892
0.29695,920
0.2986333,907
0.3002833,893
0.30195,1068
0.3036167,1234
0.3052833,1123
0.3069667,1116
0.3086333,1142
0.3102833,993
0.31195,1005
0.3136167,1017
0.3153,1171
0.3169667,1155
0.3186167,1060
0.3202833,1233
0.32195,1105
0.3236167,1300
0.3253,1037
0.32695,1112
0.3286167,1249
0.3302833,1460
0.33195,1396
0.3336333,1223
0.3352833,1520
0.33695,1232
0.3386333,1161
0.3402833,1372
0.3419667,1243
0.3436167,1311
0.3452833,1349
0.34695,1321
0.3486167,1294
0.3503,1346
0.35195,1446
0.3536167,1160
0.3553,1403
0.3569667,1348
0.3586333,1255
0.3602833,1348
0.3619667,1470
0.3636167,1738
0.3653,3110
0.3669667,3844
0.3686333,4385
0.3703,5234
0.3719667,5250
0.3736333,4823
0.3753,5154
0.37695,4580
0.3786333,4187
0.3802833,3509
0.3819667,2725
0.3836333,2389
0.3853,2027
0.38695,1523
0.3886333,1547
0.3903,1118
0.3919667,1062
0.3936167,847
0.3953,628
0.39695,553
0.3986333,580
0.4003,513
0.40195,669
0.4036333,620
0.4053,571
0.4069667,710
0.4086333,700
0.4103,709
0.4119667,661
0.4136333,661
0.4153,871
0.4169667,844
0.4186333,877
0.4203,786
0.4219667,741
0.4236333,840
0.4253,762
0.4269667,818
0.4286333,874
0.4303,877
0.4319667,1012
0.4336333,964
0.4353,985
0.4369667,971
0.4386333,953
0.4403,1012
0.4419667,1151
0.4436333,1239
0.4453,1153
0.4469667,1383
0.4486333,1393
0.4503,1284
0.4519667,1612
0.4536333,1577
0.4553,1627
0.4569667,1612
0.4586333,1467
0.4603,1652
0.4619667,1616
0.4636333,1725
0.4653,1735
0.4669667,1745
0.4686333,1703
0.4703,1754
0.4719667,1805
0.4736333,1817
0.4753,1828
0.4769667,1555
0.4786333,1853
0.4803,1748
0.4819667,1764
0.4836333,1819
0.4853,1511
0.4869667,1615
0.4886333,1524
0.4903,1299
0.4919667,1205
0.4936333,1280
0.4953,1139
0.4969667,907
0.4986333,1265
0.5003,1351
0.5019667,1041
0.5036333,950
0.5053,1127
0.5069667,1017
0.5086333,910
0.5103,1054
0.5119666,867
0.5136333,928
0.5153,927
0.5169666,791
0.5186333,1015
0.5203,962
0.5219667,1017
0.5236334,908
0.5253,922
0.5269667,960
0.5286334,932
0.5303,950
0.5319667,968
0.5336334,805
0.5353,895
0.5369667,902
0.5386333,1081
0.5403,1012
0.5419667,1089
0.5436333,933
0.5453,1033
0.5469667,1030
0.5486333,997
0.5503,962
0.5519667,1007
0.5536333,899
0.5553,858
0.5569667,783
0.5586333,998
0.5603,1026
0.5619667,700
0.5636333,925
0.5653,871
0.5669667,908
0.5686333,879
0.5703,850
0.5719666,816
0.5736333,899
0.5753,759
0.5769666,1155
0.5786333,1167
0.5803,820
0.5819666,831
0.5836333,875
0.5853,902
0.5869667,922
0.5886334,1126
0.5903,1137
0.5919667,760
0.5936334,931
0.5953,1058
0.5969667,976
0.5986333,957
0.6003,948
0.6019667,819
0.6036333,913
0.6053,900
0.6069667,883
0.6086333,865
0.6103,995
0.6119667,964
0.6136333,1030
0.6153,1034
0.6169667,900
0.6186333,918
0.6203,876
0.6219667,875
0.6236333,827
0.6253,942
0.6269667,987
0.6286333,712
0.6303,902
0.6319667,766
0.6336333,802
0.6353,939
0.6369666,957
0.6386333,916
0.6403,875
0.6419666,868
0.6436333,915
0.6453,947
0.6469667,776
0.6486334,781
0.6503,888
0.6519667,952
0.6536334,885
0.6553,821
0.6569667,808
0.6586334,804
0.6603,802
0.6619667,739
0.6636333,730
0.6653,721
0.6669667,787
0.6686333,817
0.6703,848
0.6719667,754
0.6736333,899
0.6753,864
0.6769667,870
0.6786333,870
0.6803,827
0.6819667,845
0.6836333,807
0.6853,769
0.6869667,811
0.6886333,852
0.6903,865
0.6919667,739
0.6936333,798
0.6953,680
0.6969666,783
0.6986333,754
0.7003,725
0.7019666,683
0.7036333,709
0.7053,735
0.7069666,810
0.7086333,885
0.7103,845
0.7119667,812
0.7136334,779
0.7153,873
0.7169667,852
0.7186334,831
0.7203,868
0.7219667,855
0.7236333,853
0.7253,851
0.7269667,780
0.7286333,773
0.7303,867
0.7319667,793
0.7336333,955
0.7353,944
0.7369667,1038
0.7386333,755
0.7403,664
0.7419667,858
0.7436333,761
0.7453,815
0.7469667,718
0.7486333,828
0.7503,760
0.7519667,730
0.7536333,770
0.7553,809
0.7569667,673
0.7586333,821
0.7603,797
0.7619666,826
0.7636333,717
0.7653,764
0.7669666,742
0.7686333,785
0.7703,748
0.7719667,774
0.7736334,799
0.7753,879
0.7769667,863
0.7786334,808
0.7803,739
0.7819667,856
0.7836334,793
0.7853,730
0.7869667,807
0.7886333,842
0.7903,747
0.7919667,847
0.7936333,839
0.7953,830
0.7969667,700
0.7986333,832
0.8003,802
0.8019667,814
0.8036333,918
0.8053,950
0.8069667,852
0.8086333,953
0.8103,907
0.8119667,860
0.8136333,891
0.8153,894
0.8169667,936
0.8186333,935
0.8203,934
0.8219666,716
0.8236333,1077
0.8253,1071
0.8269666,774
0.8286333,923
0.8303,912
0.8319666,1021
0.8336333,959
0.8353,930
0.8369667,997
0.8386334,773
0.8403,816
0.8419667,1057
0.8436334,946
0.8453,867
0.8469667,886
0.8486333,874
0.8503,780
0.8519667,651
0.8536333,756
0.8553,709
0.8569667,803
0.8586333,739
0.8603,749
0.8619667,796
0.8636333,709
0.8653,852
0.8669667,817
0.8686333,738
0.8703,836
0.8719667,831
0.8736333,887
0.8753,874
0.8769667,841
0.8786333,825
0.8803,911
0.8819667,909
0.8836333,906
0.8853,879
0.8869666,1127
0.8886333,1189
0.8903,974
0.8919666,1080
0.8936333,1035
0.8953,990
0.8969667,1058
0.8986334,1103
0.9003,1128
0.9019667,942
0.9036334,1069
0.9053,1037
0.9069667,1003
0.9086334,968
0.9103,1000
0.9119667,1032
0.9136333,1006
0.9153,893
0.9169667,958
0.9186333,1083
0.9203,1071
0.9219667,1060
0.9236333,1060
0.9253,802
0.9269667,1098
0.9286333,1068
0.9303,1125
0.9319667,1029
0.9336333,980
0.9353,1145
0.9369667,1241
0.9386333,1164
0.9403,1309
0.9419667,1020
0.9436333,1236
0.9453,940
0.9469666,1119
0.9486333,822
0.9503,1165
0.9519666,1109
0.9536333,1072
0.9553,838
0.9569666,967
0.9586333,872
0.9603,856
0.9619667,839
0.9636334,1076
0.9653,999
0.9669667,921
0.9686334,1017
0.9703,802
0.9719667,776
0.9736333,883
0.9753,843
0.9769667,818
0.9786333,770
0.9803,722
0.9819667,879
0.9836333,983
0.9853,1034
0.9869667,900
0.9886333,848
0.9903,945
0.9919667,918
0.9936333,890
0.9953,663
0.9969667,1022
0.9986333,977
1.0003,767
1.001967,951
1.003633,826
1.0053,780
1.006967,974
1.008633,823
1.0103,1021
1.011967,873
1.013633,898
1.0153,827
1.016967,847
1.018633,867
1.0203,866
1.021967,829
1.023633,849
1.0253,803
1.026967,786
1.028633,770
1.0303,1036
1.031967,981
1.033633,1034
1.0353,701
1.036967,959
1.038633,893
1.0403,805
1.041967,1005
1.043633,789
1.0453,984
1.046967,924
1.048633,903
1.0503,875
1.051967,935
1.053633,908
1.0553,751
1.056967,931
1.058633,846
1.0603,865
1.061967,962
1.063633,915
1.0653,762
1.066967,663
1.068633,775
1.0703,793
1.071967,852
1.073633,849
1.0753,846
1.076967,778
1.078633,825
1.0803,901
1.081967,948
1.083633,769
1.0853,934
1.086967,938
1.088633,988
1.0903,860
1.091967,797
1.093633,848
1.0953,899
1.096967,920
1.098633,900
1.1003,656
1.101967,915
1.103633,955
1.1053,834
1.106967,876
1.108633,804
1.1103,932
1.111967,968
1.113633,901
1.1153,915
1.116967,902
1.118633,1014
1.1203,742
1.121967,916
1.123633,937
1.1253,866
1.126967,810
1.128633,879
1.1303,766
1.131967,779
1.133633,733
1.1353,793
1.136967,689
1.138633,868
1.1403,840
1.141967,907
1.143633,789
1.1453,862
1.146967,797
1.148633,733
1.1503,708
1.151967,683
1.153633,670
1.1553,658
1.156967,706
1.158633,817
1.1603,789
1.161967,792
1.163633,795
1.1653,833
1.166967,839
1.168633,707
1.1703,779
1.171967,852
1.173633,759
1.1753,767
1.176967,824
1.178633,718
1.1803,740
1.181967,854
1.183633,802
1.1853,800
1.186967,725
1.188633,755
1.1903,743
1.191967,732
1.193633,747
1.1953,762
1.196967,764
1.198633,766
