"SampleName","A2Rd2_01-35"
"Target Mass 1",
"Column Name","IA-3 (3um, 4.6X100)"
"Channel","QDa 1: SIR Ch2"
0.00195,879
0.003616667,569
0.005283333,774
0.00695,720
0.008616666,814
0.01028333,772
0.01195,887
0.01361667,932
0.01528333,630
0.01695,793
0.01861667,878
0.02028333,695
0.02195,885
0.02361667,951
0.02528333,720
0.02695,763
0.02861667,824
0.03028333,827
0.03195,830
0.03361667,832
0.03528333,869
0.03695,869
0.03861667,870
0.04028333,861
0.04195,852
0.04361667,907
0.04528333,963
0.04695,729
0.04861667,776
0.05028334,833
0.05195,756
0.05361667,680
0.05528333,876
0.05695,834
0.05861667,792
0.06028333,771
0.06195,729
0.06361666,784
0.06528334,839
0.06695,846
0.06861667,822
0.07028333,798
0.07195,773
0.07361667,747
0.07528333,927
0.07695,900
0.07861666,904
0.08028334,885
0.08195,865
0.08361667,871
0.08528333,917
0.08695,773
0.08861667,919
0.09028333,802
0.09195,852
0.09361666,712
0.09528334,830
0.09695,966
0.09861667,965
0.1002833,767
0.10195,1004
0.1036167,721
0.1052833,771
0.10695,942
0.1086167,860
0.1102833,870
0.11195,909
0.1136167,780
0.1152833,710
0.11695,864
0.1186167,730
0.1202833,864
0.12195,828
0.1236167,791
0.1252833,800
0.12695,694
0.1286167,767
0.1302833,839
0.1319667,825
0.1336167,860
0.1352833,889
0.13695,862
0.1386167,835
0.1402833,801
0.14195,838
0.1436167,876
0.1452833,739
0.14695,794
0.1486167,810
0.1502833,862
0.15195,696
0.1536167,865
0.1552833,830
0.15695,792
0.1586167,849
0.1602833,768
0.16195,687
0.1636167,972
0.1652833,1019
0.16695,977
0.1686167,786
0.1702833,911
0.17195,697
0.1736167,800
0.1752833,829
0.17695,852
0.1786167,917
0.1802833,709
0.18195,645
0.1836167,653
0.1852833,658
0.18695,663
0.1886167,677
0.1902833,761
0.19195,846
0.1936167,897
0.1952833,768
0.19695,912
0.1986167,677
0.2002833,844
0.20195,913
0.2036167,792
0.2052833,808
0.20695,988
0.2086167,951
0.2102833,1029
0.21195,682
0.2136167,1016
0.2152833,868
0.21695,838
0.2186167,823
0.2202833,988
0.22195,966
0.2236167,1059
0.2252833,958
0.22695,1114
0.2286333,1051
0.2302833,947
0.2319667,993
0.2336167,1154
0.2352833,1119
0.23695,1200
0.2386167,1040
0.2402833,1065
0.24195,806
0.2436167,1098
0.2452833,928
0.24695,1009
0.2486167,1035
0.2502833,1061
0.25195,1034
0.2536167,1008
0.2552833,1065
0.25695,1121
0.2586167,1113
0.2602833,907
0.26195,1139
0.2636333,1173
0.2652833,1120
0.26695,1146
0.2686167,1124
0.2702833,873
0.27195,1237
0.2736167,1135
0.2752833,914
0.27695,905
0.2786167,1059
0.2803,875
0.2819667,988
0.2836167,853
0.2852833,1017
0.2869667,1085
0.2886167,995
0.2902833,892
0.29195,1075
0.2936167,979
0.2952833,980
0.2969667,1083
0.2986333,1049
0.3002833,1002
0.30195,947
0.3036333,920
0.3052833,978
0.30695,959
0.3086167,939
0.3103,906
0.31195,1217
0.3136333,1301
0.3153,1141
0.31695,1165
0.3186167,1360
0.3202833,1270
0.3219667,1082
0.3236167,1061
0.3252833,1208
0.3269667,1168
0.3286167,1129
0.3303,1236
0.3319667,1174
0.3336333,1112
0.3352833,1221
0.33695,1281
0.3386333,1407
0.3403,1391
0.34195,1430
0.3436333,1451
0.3452833,1149
0.3469667,1401
0.3486167,1262
0.3503,1215
0.35195,1168
0.3536333,1156
0.3553,1143
0.3569667,1195
0.3586167,1196
0.3603,1198
0.3619667,1391
0.3636333,1666
0.3653,3393
0.3669667,4377
0.3686333,5172
0.3703,6108
0.3719667,5226
0.3736333,5439
0.3753,4837
0.3769667,3794
0.3786333,3023
0.3803,2376
0.3819667,2135
0.3836333,1382
0.3853,1490
0.3869667,1150
0.3886333,888
0.3903,837
0.3919667,729
0.3936333,598
0.3953,547
0.3969667,483
0.3986333,520
0.4003,483
0.4019667,579
0.4036333,585
0.4053,573
0.4069667,590
0.4086333,618
0.4103,647
0.4119667,645
0.4136333,644
0.4153,613
0.4169667,703
0.4186333,725
0.4203,796
0.4219667,766
0.4236333,796
0.4253,587
0.4269667,793
0.4286333,758
0.4303,754
0.4319667,755
0.4336333,779
0.4353,803
0.4369667,880
0.4386333,856
0.4403,833
0.4419667,1051
0.4436333,1109
0.4453,997
0.4469667,886
0.4486333,1110
0.4503,1122
0.4519667,1035
0.4536333,1136
0.4553,1167
0.4569667,1143
0.4586333,1119
0.4603,1030
0.4619667,1309
0.4636333,1273
0.4653,1517
0.4669667,1407
0.4686333,1300
0.4703,1413
0.4719667,1220
0.4736333,1277
0.4753,1444
0.4769667,1190
0.4786333,1258
0.4803,1073
0.4819667,1246
0.4836333,1207
0.4853,1292
0.4869667,1154
0.4886333,795
0.4903,829
0.4919667,953
0.4936333,1072
0.4953,1177
0.4969667,1010
0.4986333,1095
0.5003,727
0.5019667,783
0.5036333,930
0.5053,844
0.5069667,879
0.5086333,934
0.5103,832
0.5119666,769
0.5136333,862
0.5153,846
0.5169666,917
0.5186333,859
0.5203,801
0.5219667,753
0.5236334,889
0.5253,875
0.5269667,882
0.5286334,874
0.5303,867
0.5319667,875
0.5336334,882
0.5353,879
0.5369667,761
0.5386333,915
0.5403,800
0.5419667,705
0.5436333,916
0.5453,725
0.5469667,964
0.5486333,838
0.5503,820
0.5519667,802
0.5536333,836
0.5553,652
0.5569667,964
0.5586333,849
0.5603,889
0.5619667,698
0.5636333,888
0.5653,806
0.5669667,907
0.5686333,886
0.5703,955
0.5719666,971
0.5736333,805
0.5753,999
0.5769666,866
0.5786333,829
0.5803,997
0.5819666,749
0.5836333,983
0.5853,903
0.5869667,637
0.5886334,1142
0.5903,855
0.5919667,991
0.5936334,1170
0.5953,767
0.5969667,959
0.5986333,1008
0.6003,1015
0.6019667,1016
0.6036333,964
0.6053,960
0.6069667,911
0.6086333,927
0.6103,816
0.6119667,923
0.6136333,1031
0.6153,1001
0.6169667,899
0.6186333,1016
0.6203,963
0.6219667,819
0.6236333,1007
0.6253,947
0.6269667,911
0.6286333,933
0.6303,955
0.6319667,845
0.6336333,770
0.6353,1302
0.6369666,1287
0.6386333,923
0.6403,971
0.6419666,1270
0.6436333,1150
0.6453,1058
0.6469667,1139
0.6486334,1091
0.6503,1150
0.6519667,1060
0.6536334,1052
0.6553,943
0.6569667,1062
0.6586334,885
0.6603,1053
0.6619667,1007
0.6636333,1132
0.6653,898
0.6669667,1048
0.6686333,853
0.6703,731
0.6719667,768
0.6736333,891
0.6753,700
0.6769667,847
0.6786333,839
0.6803,800
0.6819667,762
0.6836333,719
0.6853,789
0.6869667,786
0.6886333,783
0.6903,812
0.6919667,840
0.6936333,828
0.6953,817
0.6969666,852
0.6986333,825
0.7003,799
0.7019666,615
0.7036333,869
0.7053,963
0.7069666,881
0.7086333,802
0.7103,839
0.7119667,820
0.7136334,816
0.7153,871
0.7169667,878
0.7186334,885
0.7203,865
0.7219667,844
0.7236333,891
0.7253,854
0.7269667,804
0.7286333,754
0.7303,805
0.7319667,856
0.7336333,833
0.7353,810
0.7369667,801
0.7386333,845
0.7403,889
0.7419667,861
0.7436333,883
0.7453,867
0.7469667,851
0.7486333,1024
0.7503,672
0.7519667,701
0.7536333,907
0.7553,827
0.7569667,885
0.7586333,903
0.7603,835
0.7619666,869
0.7636333,903
0.7653,707
0.7669666,756
0.7686333,828
0.7703,867
0.7719667,895
0.7736334,758
0.7753,760
0.7769667,763
0.7786334,988
0.7803,993
0.7819667,760
0.7836334,698
0.7853,839
0.7869667,655
0.7886333,800
0.7903,748
0.7919667,778
0.7936333,809
0.7953,727
0.7969667,728
0.7986333,729
0.8003,819
0.8019667,924
0.8036333,875
0.8053,802
0.8069667,985
0.8086333,1003
0.8103,1025
0.8119667,1012
0.8136333,1067
0.8153,741
0.8169667,1107
0.8186333,932
0.8203,1046
0.8219666,1092
0.8236333,761
0.8253,1011
0.8269666,851
0.8286333,994
0.8303,881
0.8319666,844
0.8336333,854
0.8353,919
0.8369667,880
0.8386334,842
0.8403,924
0.8419667,852
0.8436334,815
0.8453,929
0.8469667,784
0.8486333,936
0.8503,865
0.8519667,886
0.8536333,700
0.8553,838
0.8569667,858
0.8586333,900
0.8603,901
0.8619667,789
0.8636333,721
0.8653,984
0.8669667,1036
0.8686333,830
0.8703,1008
0.8719667,826
0.8736333,909
0.8753,904
0.8769667,934
0.8786333,963
0.8803,1030
0.8819667,1098
0.8836333,1041
0.8853,1493
0.8869666,1394
0.8886333,1227
0.8903,1446
0.8919666,1466
0.8936333,1480
0.8953,1083
0.8969667,1173
0.8986334,1354
0.9003,1279
0.9019667,1296
0.9036334,1198
0.9053,1204
0.9069667,1101
0.9086334,1195
0.9103,1254
0.9119667,1194
0.9136333,1175
0.9153,1157
0.9169667,1130
0.9186333,1152
0.9203,1174
0.9219667,1184
0.9236333,1220
0.9253,1265
0.9269667,1297
0.9286333,1072
0.9303,1057
0.9319667,1270
0.9336333,1154
0.9353,1090
0.9369667,1181
0.9386333,1142
0.9403,1098
0.9419667,1079
0.9436333,1169
0.9453,1198
0.9469666,1043
0.9486333,1081
0.9503,1118
0.9519666,1038
0.9536333,959
0.9553,956
0.9569666,978
0.9586333,1005
0.9603,1031
0.9619667,1036
0.9636334,1041
0.9653,1001
0.9669667,920
0.9686334,900
0.9703,820
0.9719667,966
0.9736333,763
0.9753,847
0.9769667,885
0.9786333,842
0.9803,747
0.9819667,915
0.9836333,785
0.9853,788
0.9869667,892
0.9886333,923
0.9903,735
0.9919667,878
0.9936333,851
0.9953,830
0.9969667,860
0.9986333,1090
1.0003,1108
1.001967,907
1.003633,750
1.0053,884
1.006967,835
1.008633,883
1.0103,914
1.011967,912
1.013633,879
1.0153,858
1.016967,838
1.018633,832
1.0203,826
1.021967,761
1.023633,888
1.0253,955
1.026967,889
1.028633,765
1.0303,861
1.031967,957
1.033633,913
1.0353,672
1.036967,933
1.038633,813
1.0403,961
1.041967,730
1.043633,956
1.0453,699
1.046967,931
1.048633,927
1.0503,842
1.051967,770
1.053633,1046
1.0553,988
1.056967,1018
1.058633,788
1.0603,975
1.061967,779
1.063633,813
1.0653,905
1.066967,884
1.068633,806
1.0703,883
1.071967,855
1.073633,797
1.0753,794
1.076967,789
1.078633,783
1.0803,772
1.081967,904
1.083633,929
1.0853,927
1.086967,778
1.088633,833
1.0903,911
1.091967,877
1.093633,777
1.0953,910
1.096967,890
1.098633,1047
1.1003,913
1.101967,780
1.103633,1017
1.1053,1084
1.106967,779
1.108633,895
1.1103,815
1.111967,879
1.113633,947
1.1153,803
1.116967,804
1.118633,945
1.1203,742
1.121967,783
1.123633,745
1.1253,781
1.126967,703
1.128633,682
1.1303,661
1.131967,722
1.133633,765
1.1353,807
1.136967,865
1.138633,862
1.1403,717
1.141967,931
1.143633,755
1.1453,772
1.146967,908
1.148633,847
1.1503,773
1.151967,618
1.153633,837
1.1553,858
1.156967,813
1.158633,886
1.1603,758
1.161967,796
1.163633,834
1.1653,788
1.166967,551
1.168633,700
1.1703,656
1.171967,659
1.173633,661
1.1753,680
1.176967,699
1.178633,687
1.1803,780
1.181967,826
1.183633,800
1.1853,794
1.186967,814
1.188633,749
1.1903,770
1.191967,784
1.193633,822
1.1953,817
1.196967,813
1.198633,570
