"SampleName","A2Rd2_01-83"
"Target Mass 1",
"Column Name","IA-3 (3um, 4.6X100)"
"Channel","QDa 1: SIR Ch2"
0.00195,485
0.003616667,568
0.005283333,591
0.00695,799
0.008616666,957
0.01028333,1110
0.01195,1020
0.01361667,878
0.01528333,911
0.01695,840
0.01861667,1022
0.02028333,1154
0.02195,1128
0.02361667,1115
0.02528333,1191
0.02695,1034
0.02861667,922
0.03028333,955
0.03195,874
0.03361667,902
0.03528333,912
0.03695,921
0.03861667,899
0.04028333,924
0.04195,949
0.04361667,934
0.04528333,935
0.04695,936
0.04861667,901
0.05028334,866
0.05195,944
0.05361667,840
0.05528333,898
0.05695,863
0.05861667,922
0.06028333,905
0.06195,889
0.06361666,932
0.06528334,975
0.06695,821
0.06861667,904
0.07028333,801
0.07195,893
0.07361667,935
0.07528333,878
0.07695,821
0.07861666,888
0.08028334,956
0.08195,703
0.08361667,747
0.08528333,861
0.08695,1131
0.08861667,1047
0.09028333,1157
0.09195,783
0.09361666,890
0.09528334,844
0.09695,971
0.09861667,902
0.1002833,833
0.10195,786
0.1036167,795
0.1052833,853
0.10695,853
0.1086167,852
0.1102833,822
0.11195,792
0.1136167,762
0.1152833,834
0.11695,810
0.1186167,786
0.1202833,765
0.12195,744
0.1236167,951
0.1252833,970
0.12695,695
0.1286167,998
0.1302833,1076
0.13195,1052
0.1336167,870
0.1352833,842
0.13695,937
0.1386167,981
0.1402833,792
0.14195,909
0.1436167,848
0.1452833,870
0.14695,799
0.1486167,738
0.1502833,770
0.15195,785
0.1536167,800
0.1552833,723
0.15695,982
0.1586167,939
0.1602833,886
0.16195,992
0.1636167,786
0.1652833,917
0.16695,918
0.1686167,821
0.1702833,814
0.17195,823
0.1736167,792
0.1752833,756
0.17695,719
0.1786167,791
0.1802833,864
0.18195,879
0.1836167,913
0.1852833,887
0.18695,916
0.1886167,944
0.1902833,764
0.19195,886
0.1936167,896
0.1952833,967
0.19695,918
0.1986167,791
0.2002833,793
0.20195,866
0.2036167,1042
0.2052833,1115
0.20695,818
0.2086167,1082
0.2102833,1105
0.21195,900
0.2136167,982
0.2152833,907
0.21695,1001
0.2186167,1076
0.2202833,1129
0.22195,881
0.2236167,902
0.2252833,1139
0.22695,876
0.2286167,1156
0.2302833,1124
0.23195,1150
0.2336167,991
0.2352833,1186
0.23695,1056
0.2386167,1147
0.2402833,1174
0.24195,1186
0.2436167,1197
0.2453,1028
0.24695,1077
0.2486167,1125
0.2502833,1115
0.25195,1104
0.2536167,1122
0.2552833,1221
0.25695,1278
0.2586167,1201
0.2602833,1003
0.26195,1192
0.2636333,1156
0.2652833,1159
0.26695,1250
0.2686167,989
0.2703,1108
0.27195,906
0.2736167,988
0.2752833,1071
0.27695,1074
0.2786167,1081
0.2803,1088
0.28195,1112
0.2836167,1132
0.2852833,979
0.28695,1120
0.2886167,1110
0.2902833,1028
0.29195,1174
0.2936167,1139
0.2952833,1068
0.29695,1080
0.2986333,1117
0.3003,955
0.30195,965
0.3036167,975
0.3052833,1032
0.30695,1089
0.3086333,1122
0.3102833,1245
0.31195,1227
0.3136167,1320
0.3153,1335
0.3169667,967
0.3186333,1404
0.3203,1141
0.3219667,1242
0.3236333,977
0.3253,1151
0.3269667,1215
0.3286167,1225
0.3302833,1238
0.33195,1235
0.3336333,1233
0.3353,1072
0.3369667,939
0.3386333,1023
0.3403,1108
0.3419667,1245
0.3436333,1185
0.3452833,1230
0.3469667,1272
0.3486167,1250
0.3503,1366
0.35195,1353
0.3536333,1085
0.3553,1378
0.3569667,1456
0.3586333,1151
0.3603,1463
0.36195,1419
0.3636333,1707
0.3652833,2850
0.3669667,3650
0.3686333,3967
0.3703,4287
0.3719667,4389
0.3736333,4352
0.3753,4259
0.3769667,4166
0.3786333,3838
0.3803,3179
0.3819667,2519
0.3836333,2249
0.3853,2092
0.3869667,1459
0.3886333,1224
0.3903,967
0.3919667,843
0.3936333,791
0.3953,651
0.3969667,509
0.3986333,601
0.4003,658
0.4019667,450
0.4036333,563
0.4053,619
0.4069667,671
0.4086333,517
0.4103,739
0.4119667,610
0.4136333,751
0.4153,812
0.4169667,730
0.4186333,825
0.4203,653
0.4219667,670
0.4236333,652
0.4253,747
0.4269667,755
0.4286333,763
0.4303,740
0.4319667,718
0.4336333,911
0.4353,1003
0.4369667,847
0.4386333,850
0.4403,830
0.4419667,1050
0.4436333,1165
0.4453,1233
0.4469667,1212
0.4486333,1055
0.4503,1114
0.4519667,1183
0.4536333,1167
0.4553,1183
0.4569667,1200
0.4586333,977
0.4603,1259
0.4619667,1325
0.4636333,1396
0.4653,1204
0.4669667,1059
0.4686333,1238
0.4703,1331
0.4719667,1405
0.4736333,1341
0.4753,1236
0.4769667,1208
0.4786333,1255
0.4803,1242
0.4819667,1229
0.4836333,1174
0.4853,1152
0.4869667,1147
0.4886333,1071
0.4903,1046
0.4919667,968
0.4936333,1065
0.4953,1103
0.4969667,1122
0.4986333,1012
0.5003,1122
0.5019667,913
0.5036333,1022
0.5053,1139
0.5069667,1172
0.5086333,973
0.5103,976
0.5119666,766
0.5136333,986
0.5153,1117
0.5169666,926
0.5186333,1110
0.5203,993
0.5219667,927
0.5236334,972
0.5253,963
0.5269667,740
0.5286334,829
0.5303,917
0.5319667,751
0.5336334,802
0.5353,852
0.5369667,840
0.5386333,855
0.5403,891
0.5419667,928
0.5436333,952
0.5453,937
0.5469667,814
0.5486333,981
0.5503,959
0.5519667,964
0.5536333,941
0.5553,851
0.5569667,1014
0.5586333,1016
0.5603,950
0.5619667,891
0.5636333,852
0.5653,991
0.5669667,975
0.5686333,1061
0.5703,836
0.5719666,883
0.5736333,946
0.5753,966
0.5769666,943
0.5786333,885
0.5803,826
0.5819666,1058
0.5836333,1018
0.5853,804
0.5869667,888
0.5886334,1008
0.5903,1096
0.5919667,985
0.5936334,826
0.5953,1086
0.5969667,1096
0.5986333,803
0.6003,898
0.6019667,842
0.6036333,835
0.6053,938
0.6069667,916
0.6086333,894
0.6103,963
0.6119667,945
0.6136333,804
0.6153,1052
0.6169667,898
0.6186333,886
0.6203,940
0.6219667,932
0.6236333,946
0.6253,947
0.6269667,923
0.6286333,899
0.6303,1008
0.6319667,985
0.6336333,786
0.6353,913
0.6369666,770
0.6386333,969
0.6403,932
0.6419666,945
0.6436333,881
0.6453,741
0.6469667,821
0.6486334,616
0.6503,762
0.6519667,882
0.6536334,950
0.6553,1028
0.6569667,1077
0.6586334,882
0.6603,723
0.6619667,833
0.6636333,827
0.6653,791
0.6669667,756
0.6686333,850
0.6703,944
0.6719667,902
0.6736333,784
0.6753,818
0.6769667,685
0.6786333,810
0.6803,757
0.6819667,718
0.6836333,865
0.6853,909
0.6869667,1005
0.6886333,833
0.6903,888
0.6919667,736
0.6936333,747
0.6953,676
0.6969666,768
0.6986333,861
0.7003,873
0.7019666,811
0.7036333,982
0.7053,945
0.7069666,677
0.7086333,978
0.7103,793
0.7119667,964
0.7136334,1006
0.7153,959
0.7169667,650
0.7186334,680
0.7203,867
0.7219667,830
0.7236333,955
0.7253,849
0.7269667,833
0.7286333,818
0.7303,732
0.7319667,904
0.7336333,939
0.7353,624
0.7369667,759
0.7386333,944
0.7403,951
0.7419667,994
0.7436333,756
0.7453,822
0.7469667,753
0.7486333,878
0.7503,839
0.7519667,905
0.7536333,889
0.7553,828
0.7569667,874
0.7586333,845
0.7603,922
0.7619666,893
0.7636333,649
0.7653,885
0.7669666,866
0.7686333,879
0.7703,797
0.7719667,830
0.7736334,799
0.7753,767
0.7769667,796
0.7786334,731
0.7803,764
0.7819667,758
0.7836334,615
0.7853,861
0.7869667,885
0.7886333,856
0.7903,836
0.7919667,757
0.7936333,795
0.7953,917
0.7969667,944
0.7986333,843
0.8003,713
0.8019667,939
0.8036333,997
0.8053,760
0.8069667,796
0.8086333,907
0.8103,949
0.8119667,1007
0.8136333,864
0.8153,795
0.8169667,803
0.8186333,767
0.8203,785
0.8219666,803
0.8236333,792
0.8253,782
0.8269666,806
0.8286333,726
0.8303,677
0.8319666,627
0.8336333,911
0.8353,925
0.8369667,1105
0.8386334,762
0.8403,834
0.8419667,715
0.8436334,706
0.8453,697
0.8469667,730
0.8486333,730
0.8503,750
0.8519667,787
0.8536333,823
0.8553,844
0.8569667,856
0.8586333,856
0.8603,855
0.8619667,733
0.8636333,853
0.8653,760
0.8669667,900
0.8686333,880
0.8703,677
0.8719667,734
0.8736333,718
0.8753,801
0.8769667,791
0.8786333,782
0.8803,884
0.8819667,1016
0.8836333,1262
0.8853,1336
0.8869666,1229
0.8886333,1281
0.8903,1226
0.8919666,1214
0.8936333,1203
0.8953,1175
0.8969667,1197
0.8986334,1219
0.9003,1314
0.9019667,1313
0.9036334,1273
0.9053,1292
0.9069667,1151
0.9086334,1367
0.9103,1095
0.9119667,1163
0.9136333,1396
0.9153,1198
0.9169667,1222
0.9186333,1121
0.9203,1236
0.9219667,1274
0.9236333,1137
0.9253,1184
0.9269667,1202
0.9286333,1223
0.9303,1244
0.9319667,1384
0.9336333,1405
0.9353,1281
0.9369667,1267
0.9386333,1227
0.9403,1150
0.9419667,1197
0.9436333,1243
0.9453,1046
0.9469666,1116
0.9486333,1186
0.9503,1165
0.9519666,1145
0.9536333,1066
0.9553,1207
0.9569666,1086
0.9586333,1249
0.9603,1148
0.9619667,1020
0.9636334,1098
0.9653,950
0.9669667,1094
0.9686334,858
0.9703,1106
0.9719667,1001
0.9736333,895
0.9753,947
0.9769667,886
0.9786333,726
0.9803,1010
0.9819667,930
0.9836333,889
0.9853,741
0.9869667,888
0.9886333,740
0.9903,845
0.9919667,899
0.9936333,838
0.9953,834
0.9969667,871
0.9986333,669
1.0003,776
1.001967,820
1.003633,821
1.0053,825
1.006967,828
1.008633,858
1.0103,887
1.011967,849
1.013633,810
1.0153,830
1.016967,915
1.018633,672
1.0203,863
1.021967,844
1.023633,826
1.0253,840
1.026967,853
1.028633,918
1.0303,914
1.031967,848
1.033633,1018
1.0353,1087
1.036967,738
1.038633,675
1.0403,893
1.041967,816
1.043633,920
1.0453,828
1.046967,902
1.048633,766
1.0503,786
1.051967,865
1.053633,835
1.0553,857
1.056967,818
1.058633,834
1.0603,850
1.061967,885
1.063633,882
1.0653,879
1.066967,675
1.068633,917
1.0703,817
1.071967,904
1.073633,890
1.0753,790
1.076967,740
1.078633,915
1.0803,885
1.081967,1023
1.083633,1025
1.0853,925
1.086967,814
1.088633,863
1.0903,834
1.091967,837
1.093633,806
1.0953,829
1.096967,851
1.098633,783
1.1003,714
1.101967,651
1.103633,720
1.1053,870
1.106967,896
1.108633,884
1.1103,657
1.111967,811
1.113633,765
1.1153,788
1.116967,811
1.118633,800
1.1203,789
1.121967,760
1.123633,847
1.1253,848
1.126967,849
1.128633,730
1.1303,660
1.131967,758
1.133633,735
1.1353,778
1.136967,748
1.138633,718
1.1403,755
1.141967,777
1.143633,799
1.1453,829
1.146967,686
1.148633,700
1.1503,715
1.151967,746
1.153633,794
1.1553,842
1.156967,670
1.158633,738
1.1603,815
1.161967,904
1.163633,871
1.1653,858
1.166967,821
1.168633,758
1.1703,794
1.171967,831
1.173633,786
1.1753,742
1.176967,776
1.178633,809
1.1803,774
1.181967,738
1.183633,759
1.1853,780
1.186967,704
1.188633,798
1.1903,647
1.191967,847
1.193633,957
1.1953,965
1.196967,984
1.198633,759
