"SampleName","A2Rd2_02-31"
"Target Mass 1",
"Column Name","IA-3 (3um, 4.6X100)"
"Channel","QDa 1: SIR Ch2"
0.00195,492
0.003616667,650
0.005283333,496
0.00695,532
0.008616666,936
0.01028333,1063
0.01195,927
0.01361667,976
0.01528333,1003
0.01695,907
0.01861667,852
0.02028333,963
0.02195,953
0.02361667,794
0.02528333,847
0.02695,900
0.02861667,863
0.03028333,857
0.03195,852
0.03361667,879
0.03528333,960
0.03695,921
0.03861667,882
0.04028333,940
0.04195,1025
0.04361667,988
0.04528333,958
0.04695,1049
0.04861667,845
0.05028334,846
0.05195,827
0.05361667,920
0.05528333,927
0.05695,758
0.05861667,945
0.06028333,1040
0.06195,1065
0.06361666,1031
0.06528334,822
0.06695,949
0.06861667,1020
0.07028333,714
0.07195,856
0.07361667,926
0.07528333,876
0.07695,912
0.07861666,948
0.08028334,902
0.08195,946
0.08361667,991
0.08528333,652
0.08695,941
0.08861667,841
0.09028333,894
0.09195,873
0.09361666,852
0.09528334,918
0.09695,820
0.09861667,913
0.1002833,849
0.10195,785
0.1036167,876
0.1052833,897
0.10695,918
0.1086167,822
0.1102833,1090
0.11195,1045
0.1136167,969
0.1152833,893
0.11695,892
0.1186167,926
0.1202833,907
0.12195,888
0.1236167,831
0.1252833,707
0.12695,937
0.1286167,789
0.1302833,872
0.13195,961
0.1336167,872
0.1352833,865
0.13695,843
0.1386167,821
0.1402833,989
0.14195,958
0.1436167,799
0.1452833,931
0.14695,907
0.1486167,767
0.1502833,857
0.15195,635
0.1536167,851
0.1552833,622
0.15695,855
0.1586167,914
0.1602833,763
0.16195,843
0.1636167,887
0.1652833,805
0.16695,927
0.1686167,729
0.1702833,947
0.17195,816
0.1736167,669
0.1752833,768
0.17695,815
0.1786167,889
0.1802833,869
0.18195,751
0.1836167,798
0.1852833,857
0.18695,836
0.1886167,815
0.1902833,705
0.19195,910
0.1936167,913
0.1952833,867
0.19695,887
0.1986167,907
0.2002833,970
0.20195,760
0.2036167,781
0.2052833,795
0.20695,861
0.2086167,889
0.2102833,918
0.21195,841
0.2136167,817
0.2152833,976
0.21695,1024
0.2186167,1068
0.2202833,846
0.22195,1083
0.2236167,995
0.2252833,1048
0.22695,927
0.2286167,1044
0.2302833,1116
0.23195,1150
0.2336167,1137
0.2352833,1273
0.23695,1317
0.2386167,1253
0.2402833,1025
0.24195,1133
0.2436167,1190
0.2452833,1142
0.24695,1181
0.2486167,1152
0.2502833,1211
0.25195,1033
0.2536167,1177
0.2552833,1206
0.25695,1233
0.2586167,1175
0.2602833,1143
0.26195,1118
0.2636167,1231
0.2653,950
0.26695,1124
0.2686167,988
0.2702833,1096
0.27195,1071
0.2736167,1066
0.2752833,1068
0.27695,1069
0.2786167,1092
0.2803,1001
0.28195,1046
0.2836167,1092
0.2852833,1024
0.28695,881
0.2886333,958
0.2902833,912
0.29195,866
0.2936167,1112
0.2952833,1096
0.29695,910
0.2986333,921
0.3002833,1138
0.30195,989
0.3036167,918
0.3052833,1261
0.30695,1188
0.3086167,1091
0.3102833,1132
0.31195,1088
0.3136333,1044
0.3153,1114
0.31695,1183
0.3186167,1207
0.3202833,1259
0.32195,1294
0.3236167,1328
0.3252833,1331
0.32695,1334
0.3286167,1273
0.3302833,1155
0.33195,1155
0.3336333,929
0.3352833,1108
0.3369667,1275
0.3386167,1198
0.3402833,1207
0.34195,1268
0.3436167,1204
0.3453,1256
0.34695,1225
0.3486167,1278
0.3503,1072
0.35195,1307
0.3536333,1194
0.3552833,1284
0.35695,1111
0.3586167,1399
0.3602833,1477
0.3619667,1448
0.3636167,1477
0.3653,1491
0.36695,2114
0.3686333,2802
0.3703,3221
0.3719667,3070
0.3736167,3058
0.3753,2795
0.37695,3084
0.3786333,2853
0.3803,2898
0.38195,3036
0.3836167,2485
0.3853,2181
0.38695,1583
0.3886333,1434
0.3902833,1176
0.3919667,1109
0.3936333,1038
0.3953,824
0.3969667,676
0.3986167,616
0.4003,582
0.4019667,537
0.4036333,609
0.4053,485
0.4069667,494
0.4086333,591
0.4103,641
0.4119667,642
0.4136333,578
0.4153,624
0.4169667,546
0.4186333,667
0.4203,652
0.4219667,435
0.4236333,866
0.4253,739
0.4269667,867
0.4286333,804
0.4303,841
0.4319667,843
0.4336333,819
0.4353,794
0.4369667,998
0.4386333,1001
0.4403,910
0.4419667,1074
0.4436333,1116
0.4453,1110
0.4469667,1033
0.4486333,935
0.4503,1055
0.4519667,1078
0.4536333,1100
0.4553,1275
0.4569667,1245
0.4586333,1216
0.4603,1181
0.4619667,1146
0.4636333,1263
0.4653,1379
0.4669667,1577
0.4686333,1428
0.4703,1483
0.4719667,1342
0.4736333,1461
0.4753,1413
0.4769667,1489
0.4786333,1407
0.4803,1102
0.4819667,1075
0.4836333,1092
0.4853,1170
0.4869667,1249
0.4886333,1145
0.4903,1041
0.4919667,1318
0.4936333,954
0.4953,914
0.4969667,1080
0.4986333,1160
0.5003,1199
0.5019667,968
0.5036333,1218
0.5053,1146
0.5069667,1030
0.5086333,910
0.5103,981
0.5119666,975
0.5136333,891
0.5153,1046
0.5169666,736
0.5186333,901
0.5203,1186
0.5219667,944
0.5236334,897
0.5253,1003
0.5269667,886
0.5286334,981
0.5303,1008
0.5319667,975
0.5336334,946
0.5353,923
0.5369667,899
0.5386333,799
0.5403,861
0.5419667,923
0.5436333,769
0.5453,1012
0.5469667,968
0.5486333,856
0.5503,1011
0.5519667,1037
0.5536333,1112
0.5553,943
0.5569667,925
0.5586333,945
0.5603,947
0.5619667,948
0.5636333,909
0.5653,934
0.5669667,811
0.5686333,910
0.5703,935
0.5719666,959
0.5736333,935
0.5753,909
0.5769666,1013
0.5786333,1037
0.5803,993
0.5819666,948
0.5836333,989
0.5853,1104
0.5869667,1077
0.5886334,1049
0.5903,971
0.5919667,834
0.5936334,739
0.5953,1229
0.5969667,1117
0.5986333,973
0.6003,1321
0.6019667,1236
0.6036333,891
0.6053,945
0.6069667,938
0.6086333,888
0.6103,838
0.6119667,732
0.6136333,1088
0.6153,1028
0.6169667,1186
0.6186333,892
0.6203,899
0.6219667,1107
0.6236333,1197
0.6253,1015
0.6269667,1096
0.6286333,1067
0.6303,1099
0.6319667,986
0.6336333,1081
0.6353,1025
0.6369666,1024
0.6386333,1022
0.6403,992
0.6419666,971
0.6436333,953
0.6453,1071
0.6469667,1004
0.6486334,938
0.6503,1089
0.6519667,1038
0.6536334,1027
0.6553,884
0.6569667,1066
0.6586334,775
0.6603,956
0.6619667,825
0.6636333,889
0.6653,952
0.6669667,879
0.6686333,958
0.6703,953
0.6719667,947
0.6736333,879
0.6753,900
0.6769667,960
0.6786333,886
0.6803,839
0.6819667,792
0.6836333,841
0.6853,874
0.6869667,907
0.6886333,749
0.6903,989
0.6919667,850
0.6936333,848
0.6953,737
0.6969666,887
0.6986333,882
0.7003,967
0.7019666,966
0.7036333,870
0.7053,917
0.7069666,906
0.7086333,831
0.7103,1031
0.7119667,1005
0.7136334,1186
0.7153,733
0.7169667,904
0.7186334,778
0.7203,795
0.7219667,773
0.7236333,752
0.7253,694
0.7269667,968
0.7286333,1008
0.7303,1141
0.7319667,968
0.7336333,990
0.7353,672
0.7369667,936
0.7386333,913
0.7403,1043
0.7419667,935
0.7436333,789
0.7453,869
0.7469667,859
0.7486333,816
0.7503,929
0.7519667,970
0.7536333,963
0.7553,859
0.7569667,797
0.7586333,982
0.7603,855
0.7619666,902
0.7636333,992
0.7653,767
0.7669666,725
0.7686333,984
0.7703,875
0.7719667,767
0.7736334,1020
0.7753,924
0.7769667,733
0.7786334,777
0.7803,901
0.7819667,921
0.7836334,923
0.7853,840
0.7869667,769
0.7886333,801
0.7903,833
0.7919667,891
0.7936333,898
0.7953,905
0.7969667,911
0.7986333,767
0.8003,712
0.8019667,943
0.8036333,915
0.8053,977
0.8069667,982
0.8086333,864
0.8103,869
0.8119667,999
0.8136333,1016
0.8153,961
0.8169667,1050
0.8186333,922
0.8203,941
0.8219666,1089
0.8236333,886
0.8253,1121
0.8269666,941
0.8286333,821
0.8303,917
0.8319666,894
0.8336333,871
0.8353,1029
0.8369667,1000
0.8386334,986
0.8403,886
0.8419667,983
0.8436334,973
0.8453,756
0.8469667,821
0.8486333,760
0.8503,626
0.8519667,703
0.8536333,781
0.8553,723
0.8569667,977
0.8586333,946
0.8603,762
0.8619667,857
0.8636333,779
0.8653,792
0.8669667,819
0.8686333,814
0.8703,809
0.8719667,824
0.8736333,820
0.8753,816
0.8769667,778
0.8786333,863
0.8803,991
0.8819667,998
0.8836333,1020
0.8853,1043
0.8869666,1133
0.8886333,1206
0.8903,1236
0.8919666,1270
0.8936333,1181
0.8953,1511
0.8969667,1532
0.8986334,1144
0.9003,1226
0.9019667,1226
0.9036334,1479
0.9053,1415
0.9069667,1584
0.9086334,1315
0.9103,1316
0.9119667,1272
0.9136333,1350
0.9153,1246
0.9169667,1350
0.9186333,1346
0.9203,1039
0.9219667,1386
0.9236333,1260
0.9253,1300
0.9269667,1327
0.9286333,1255
0.9303,1244
0.9319667,1233
0.9336333,1209
0.9353,1100
0.9369667,1304
0.9386333,1247
0.9403,1189
0.9419667,1256
0.9436333,1198
0.9453,1222
0.9469666,1199
0.9486333,1094
0.9503,1175
0.9519666,938
0.9536333,974
0.9553,1074
0.9569666,1027
0.9586333,979
0.9603,1090
0.9619667,1052
0.9636334,1088
0.9653,975
0.9669667,997
0.9686334,1072
0.9703,990
0.9719667,1074
0.9736333,908
0.9753,1017
0.9769667,861
0.9786333,820
0.9803,826
0.9819667,820
0.9836333,814
0.9853,790
0.9869667,847
0.9886333,744
0.9903,658
0.9919667,948
0.9936333,870
0.9953,868
0.9969667,849
0.9986333,869
1.0003,945
1.001967,975
1.003633,883
1.0053,848
1.006967,695
1.008633,827
1.0103,714
1.011967,880
1.013633,879
1.0153,879
1.016967,705
1.018633,714
1.0203,789
1.021967,839
1.023633,889
1.0253,870
1.026967,995
1.028633,969
1.0303,760
1.031967,768
1.033633,999
1.0353,729
1.036967,818
1.038633,800
1.0403,972
1.041967,958
1.043633,1008
1.0453,882
1.046967,781
1.048633,665
1.0503,811
1.051967,808
1.053633,803
1.0553,817
1.056967,831
1.058633,970
1.0603,598
1.061967,714
1.063633,883
1.0653,846
1.066967,1069
1.068633,995
1.0703,928
1.071967,1015
1.073633,928
1.0753,824
1.076967,720
1.078633,873
1.0803,791
1.081967,766
1.083633,791
1.0853,828
1.086967,855
1.088633,815
1.0903,775
1.091967,797
1.093633,818
1.0953,785
1.096967,752
1.098633,589
1.1003,658
1.101967,726
1.103633,931
1.1053,947
1.106967,1004
1.108633,819
1.1103,1106
1.111967,726
1.113633,914
1.1153,820
1.116967,905
1.118633,813
1.1203,731
1.121967,784
1.123633,788
1.1253,792
1.126967,886
1.128633,981
1.1303,954
1.131967,769
1.133633,709
1.1353,807
1.136967,860
1.138633,904
1.1403,894
1.141967,838
1.143633,739
1.1453,813
1.146967,727
1.148633,732
1.1503,765
1.151967,544
1.153633,648
1.1553,752
1.156967,955
1.158633,933
1.1603,1046
1.161967,767
1.163633,780
1.1653,523
1.166967,729
1.168633,906
1.1703,799
1.171967,998
1.173633,876
1.1753,784
1.176967,750
1.178633,912
1.1803,1018
1.181967,922
1.183633,744
1.1853,925
1.186967,933
1.188633,712
1.1903,1037
1.191967,1017
1.193633,828
1.1953,899
1.196967,902
1.198633,765
