"SampleName","A2Rd2_02-74"
"Target Mass 1",
"Column Name","IA-3 (3um, 4.6X100)"
"Channel","QDa 1: SIR Ch2"
0.00195,687
0.003616667,708
0.005283333,579
0.00695,625
0.008616666,863
0.01028333,946
0.01195,877
0.01361667,808
0.01528333,874
0.01695,877
0.01861667,915
0.02028333,1012
0.02195,1108
0.02361667,739
0.02528333,1016
0.02695,1025
0.02861667,858
0.03028333,1041
0.03195,830
0.03361667,1154
0.03528333,1031
0.03695,886
0.03861667,1017
0.04028333,1251
0.04195,1348
0.04361667,1030
0.04528333,984
0.04695,1127
0.04861667,1013
0.05028334,1129
0.05195,832
0.05361667,913
0.05528333,1158
0.05695,969
0.05861667,971
0.06028333,830
0.06195,928
0.06361666,997
0.06528334,817
0.06695,844
0.06861667,1066
0.07028333,995
0.07195,926
0.07361667,958
0.07528333,991
0.07695,771
0.07861666,1112
0.08028334,805
0.08195,823
0.08361667,911
0.08528333,889
0.08695,867
0.08861667,887
0.09028333,773
0.09195,830
0.09361666,931
0.09528334,958
0.09695,935
0.09861667,929
0.1002833,923
0.10195,758
0.1036167,800
0.1052833,842
0.10695,916
0.1086167,939
0.1102833,970
0.11195,1000
0.1136167,766
0.1152833,818
0.11695,800
0.1186167,892
0.1202833,867
0.12195,843
0.1236167,825
0.1252833,1014
0.12695,929
0.1286167,844
0.1302833,932
0.13195,1020
0.1336167,977
0.1352833,907
0.13695,791
0.1386167,995
0.1402833,946
0.14195,855
0.1436167,753
0.1452833,838
0.14695,812
0.1486167,785
0.1502833,842
0.15195,899
0.1536167,875
0.1552833,850
0.15695,915
0.1586167,609
0.1602833,914
0.16195,724
0.1636167,771
0.1652833,925
0.16695,954
0.1686167,737
0.1702833,846
0.17195,935
0.1736167,957
0.1752833,948
0.17695,803
0.1786167,1035
0.1802833,750
0.18195,702
0.1836167,726
0.1852833,921
0.18695,901
0.1886167,882
0.1902833,731
0.19195,856
0.1936167,667
0.1952833,851
0.19695,1068
0.1986167,947
0.2002833,695
0.20195,824
0.2036167,963
0.2052833,1009
0.20695,1013
0.2086167,965
0.2102833,917
0.21195,908
0.2136167,899
0.2152833,915
0.21695,951
0.2186167,1160
0.2202833,1089
0.22195,1017
0.2236167,1096
0.2252833,1102
0.22695,963
0.2286167,1019
0.2302833,999
0.23195,1010
0.2336167,1020
0.2352833,1241
0.23695,1336
0.2386167,1229
0.2402833,1214
0.24195,1199
0.2436167,1325
0.2452833,1330
0.24695,1195
0.2486167,1059
0.2502833,1321
0.25195,1076
0.2536167,1182
0.2552833,1291
0.25695,1008
0.2586167,1265
0.2602833,971
0.26195,1001
0.2636167,1104
0.2652833,1084
0.26695,1045
0.2686167,1016
0.2702833,1035
0.27195,1054
0.2736167,1058
0.2752833,1063
0.2769667,830
0.2786167,1030
0.2803,1035
0.28195,982
0.2836167,1012
0.2852833,991
0.28695,970
0.2886167,1004
0.2902833,1080
0.29195,1035
0.2936167,990
0.2952833,1110
0.29695,1034
0.2986333,958
0.3002833,950
0.30195,942
0.3036167,1035
0.3052833,1096
0.30695,1156
0.3086167,1014
0.3102833,1294
0.31195,1222
0.3136167,1293
0.3153,1164
0.31695,1312
0.3186167,1370
0.3202833,1347
0.32195,1360
0.3236167,1316
0.3252833,1321
0.32695,1182
0.3286167,1120
0.3302833,1142
0.33195,1175
0.3336333,1193
0.3353,1211
0.3369667,1217
0.3386333,1327
0.3402833,1402
0.34195,1358
0.3436167,1239
0.3452833,1258
0.3469667,1243
0.3486167,1227
0.3503,1148
0.35195,1156
0.3536333,1164
0.3553,1125
0.35695,1086
0.3586167,1252
0.3603,1261
0.3619667,1270
0.3636167,1428
0.3653,1999
0.36695,2867
0.3686333,3344
0.3703,3529
0.3719667,3167
0.3736167,3071
0.3752833,2990
0.37695,2733
0.3786333,2703
0.3803,2810
0.3819667,2810
0.3836333,2623
0.3853,2041
0.3869667,1953
0.3886333,1888
0.3902833,1151
0.39195,1255
0.3936167,932
0.3953,860
0.39695,485
0.3986333,476
0.4003,514
0.40195,585
0.4036333,363
0.4052833,506
0.4069667,612
0.4086167,529
0.4103,560
0.4119667,551
0.4136333,600
0.4153,678
0.4169667,696
0.4186333,512
0.4203,663
0.4219667,776
0.4236333,838
0.4253,684
0.4269667,867
0.4286333,699
0.4303,847
0.4319667,750
0.4336333,871
0.4353,851
0.4369667,919
0.4386333,794
0.4403,892
0.4419667,907
0.4436333,923
0.4453,995
0.4469667,1198
0.4486333,1172
0.4503,1122
0.4519667,1033
0.4536333,1250
0.4553,1324
0.4569667,1196
0.4586333,1396
0.4603,1350
0.4619667,1303
0.4636333,1544
0.4653,1117
0.4669667,1515
0.4686333,1247
0.4703,1374
0.4719667,1413
0.4736333,1451
0.4753,1313
0.4769667,1343
0.4786333,1372
0.4803,1330
0.4819667,1260
0.4836333,1190
0.4853,1192
0.4869667,1265
0.4886333,1205
0.4903,1217
0.4919667,1228
0.4936333,1131
0.4953,1188
0.4969667,1121
0.4986333,969
0.5003,1093
0.5019667,904
0.5036333,962
0.5053,1020
0.5069667,1039
0.5086333,929
0.5103,967
0.5119666,784
0.5136333,925
0.5153,1066
0.5169666,969
0.5186333,949
0.5203,1108
0.5219667,886
0.5236334,843
0.5253,946
0.5269667,865
0.5286334,783
0.5303,1034
0.5319667,1044
0.5336334,1059
0.5353,1022
0.5369667,1002
0.5386333,772
0.5403,761
0.5419667,777
0.5436333,844
0.5453,892
0.5469667,935
0.5486333,996
0.5503,972
0.5519667,1015
0.5536333,684
0.5553,912
0.5569667,856
0.5586333,883
0.5603,830
0.5619667,889
0.5636333,917
0.5653,945
0.5669667,968
0.5686333,838
0.5703,994
0.5719666,980
0.5736333,947
0.5753,915
0.5769666,873
0.5786333,887
0.5803,901
0.5819666,894
0.5836333,910
0.5853,927
0.5869667,1008
0.5886334,969
0.5903,931
0.5919667,943
0.5936334,772
0.5953,893
0.5969667,988
0.5986333,905
0.6003,898
0.6019667,921
0.6036333,944
0.6053,837
0.6069667,923
0.6086333,871
0.6103,842
0.6119667,911
0.6136333,831
0.6153,711
0.6169667,842
0.6186333,779
0.6203,858
0.6219667,803
0.6236333,894
0.6253,881
0.6269667,916
0.6286333,749
0.6303,913
0.6319667,937
0.6336333,718
0.6353,803
0.6369666,702
0.6386333,850
0.6403,802
0.6419666,754
0.6436333,811
0.6453,867
0.6469667,883
0.6486334,778
0.6503,827
0.6519667,920
0.6536334,864
0.6553,968
0.6569667,751
0.6586334,812
0.6603,882
0.6619667,831
0.6636333,781
0.6653,741
0.6669667,723
0.6686333,807
0.6703,892
0.6719667,889
0.6736333,858
0.6753,808
0.6769667,925
0.6786333,879
0.6803,833
0.6819667,627
0.6836333,929
0.6853,815
0.6869667,1000
0.6886333,1020
0.6903,997
0.6919667,769
0.6936333,858
0.6953,927
0.6969666,687
0.6986333,840
0.7003,771
0.7019666,802
0.7036333,743
0.7053,757
0.7069666,770
0.7086333,778
0.7103,878
0.7119667,908
0.7136334,995
0.7153,1027
0.7169667,985
0.7186334,760
0.7203,862
0.7219667,801
0.7236333,849
0.7253,744
0.7269667,762
0.7286333,780
0.7303,766
0.7319667,772
0.7336333,777
0.7353,787
0.7369667,965
0.7386333,999
0.7403,857
0.7419667,881
0.7436333,1002
0.7453,878
0.7469667,926
0.7486333,898
0.7503,891
0.7519667,870
0.7536333,922
0.7553,924
0.7569667,925
0.7586333,760
0.7603,824
0.7619666,904
0.7636333,711
0.7653,902
0.7669666,858
0.7686333,813
0.7703,873
0.7719667,762
0.7736334,791
0.7753,821
0.7769667,797
0.7786334,972
0.7803,1037
0.7819667,597
0.7836334,774
0.7853,915
0.7869667,813
0.7886333,855
0.7903,897
0.7919667,604
0.7936333,777
0.7953,889
0.7969667,845
0.7986333,908
0.8003,842
0.8019667,809
0.8036333,847
0.8053,885
0.8069667,976
0.8086333,938
0.8103,941
0.8119667,828
0.8136333,931
0.8153,752
0.8169667,775
0.8186333,797
0.8203,786
0.8219666,774
0.8236333,835
0.8253,834
0.8269666,833
0.8286333,834
0.8303,846
0.8319666,827
0.8336333,807
0.8353,858
0.8369667,838
0.8386334,916
0.8403,798
0.8419667,680
0.8436334,1037
0.8453,1098
0.8469667,794
0.8486333,909
0.8503,903
0.8519667,856
0.8536333,808
0.8553,834
0.8569667,813
0.8586333,792
0.8603,804
0.8619667,793
0.8636333,780
0.8653,767
0.8669667,808
0.8686333,809
0.8703,676
0.8719667,753
0.8736333,831
0.8753,813
0.8769667,796
0.8786333,941
0.8803,902
0.8819667,862
0.8836333,914
0.8853,966
0.8869666,1192
0.8886333,1445
0.8903,1453
0.8919666,1318
0.8936333,1235
0.8953,1050
0.8969667,1264
0.8986334,1353
0.9003,1058
0.9019667,1090
0.9036334,1217
0.9053,1083
0.9069667,1155
0.9086334,1151
0.9103,1152
0.9119667,1160
0.9136333,1168
0.9153,1165
0.9169667,1161
0.9186333,1156
0.9203,1150
0.9219667,1197
0.9236333,1172
0.9253,1146
0.9269667,1117
0.9286333,1015
0.9303,1115
0.9319667,1077
0.9336333,1040
0.9353,1110
0.9369667,1197
0.9386333,1298
0.9403,1370
0.9419667,1256
0.9436333,1093
0.9453,1154
0.9469666,1307
0.9486333,1214
0.9503,1078
0.9519666,968
0.9536333,1031
0.9553,1157
0.9569666,830
0.9586333,975
0.9603,944
0.9619667,869
0.9636334,900
0.9653,931
0.9669667,1003
0.9686334,1025
0.9703,1046
0.9719667,861
0.9736333,862
0.9753,932
0.9769667,744
0.9786333,798
0.9803,806
0.9819667,862
0.9836333,829
0.9853,845
0.9869667,839
0.9886333,798
0.9903,863
0.9919667,735
0.9936333,685
0.9953,784
0.9969667,742
0.9986333,727
1.0003,712
1.001967,666
1.003633,696
1.0053,726
1.006967,776
1.008633,834
1.0103,825
1.011967,722
1.013633,795
1.0153,860
1.016967,897
1.018633,774
1.0203,693
1.021967,770
1.023633,793
1.0253,817
1.026967,802
1.028633,787
1.0303,836
1.031967,885
1.033633,863
1.0353,925
1.036967,881
1.038633,837
1.0403,733
1.041967,735
1.043633,885
1.0453,807
1.046967,921
1.048633,935
1.0503,771
1.051967,1053
1.053633,957
1.0553,879
1.056967,989
1.058633,1033
1.0603,789
1.061967,925
1.063633,672
1.0653,920
1.066967,799
1.068633,737
1.0703,693
1.071967,886
1.073633,921
1.0753,822
1.076967,882
1.078633,857
1.0803,752
1.081967,755
1.083633,990
1.0853,1074
1.086967,916
1.088633,829
1.0903,890
1.091967,942
1.093633,954
1.0953,838
1.096967,960
1.098633,709
1.1003,893
1.101967,854
1.103633,862
1.1053,878
1.106967,863
1.108633,842
1.1103,821
1.111967,848
1.113633,805
1.1153,850
1.116967,858
1.118633,866
1.1203,864
1.121967,861
1.123633,847
1.1253,834
1.126967,909
1.128633,920
1.1303,809
1.131967,867
1.133633,880
1.1353,893
1.136967,903
1.138633,913
1.1403,797
1.141967,872
1.143633,776
1.1453,750
1.146967,889
1.148633,829
1.1503,745
1.151967,828
1.153633,823
1.1553,819
1.156967,724
1.158633,830
1.1603,832
1.161967,820
1.163633,840
1.1653,860
1.166967,893
1.168633,925
1.1703,784
1.171967,961
1.173633,926
1.1753,928
1.176967,787
1.178633,855
1.1803,979
1.181967,911
1.183633,739
1.1853,732
1.186967,978
1.188633,963
1.1903,791
1.191967,868
1.193633,875
1.1953,797
1.196967,1042
1.198633,987
