"SampleName","A2Rd2_02-67"
"Target Mass 1",
"Column Name","IA-3 (3um, 4.6X100)"
"Channel","QDa 1: SIR Ch2"
0.00195,370
0.003616667,742
0.005283333,791
0.00695,782
0.008616666,1035
0.01028333,1058
0.01195,1182
0.01361667,950
0.01528333,977
0.01695,1058
0.01861667,1042
0.02028333,1026
0.02195,1048
0.02361667,1029
0.02528333,1010
0.02695,1138
0.02861667,876
0.03028333,1053
0.03195,1100
0.03361667,1135
0.03528333,942
0.03695,1046
0.03861667,1231
0.04028333,1234
0.04195,1193
0.04361667,1130
0.04528333,1069
0.04695,988
0.04861667,1058
0.05028334,1004
0.05195,950
0.05361667,1068
0.05528333,1034
0.05695,987
0.05861667,1086
0.06028333,1025
0.06195,963
0.06361666,1035
0.06528334,1147
0.06695,1102
0.06861667,965
0.07028333,1117
0.07195,955
0.07361667,1133
0.07528333,1070
0.07695,1006
0.07861666,1110
0.08028334,991
0.08195,999
0.08361667,1155
0.08528333,1174
0.08695,1088
0.08861667,1004
0.09028333,1058
0.09195,1069
0.09361666,1018
0.09528334,832
0.09695,825
0.09861667,1071
0.1002833,1088
0.10195,1074
0.1036167,1043
0.1052833,1012
0.10695,966
0.1086167,1006
0.1102833,1045
0.11195,1123
0.1136167,1079
0.1152833,1260
0.11695,717
0.1186167,971
0.1202833,1003
0.12195,1042
0.1236167,890
0.1252833,1019
0.12695,966
0.1286167,842
0.1302833,1152
0.13195,1031
0.1336167,1071
0.1352833,1013
0.13695,1062
0.1386167,1111
0.1402833,991
0.14195,919
0.1436167,1089
0.1452833,953
0.14695,1123
0.1486167,749
0.1502833,813
0.15195,857
0.1536167,880
0.1552833,934
0.15695,901
0.1586167,922
0.1602833,942
0.16195,917
0.1636167,892
0.1652833,841
0.16695,881
0.1686167,922
0.1702833,872
0.17195,822
0.1736167,1017
0.1752833,1058
0.17695,737
0.1786167,779
0.1802833,1142
0.18195,1038
0.1836167,906
0.1852833,1005
0.18695,815
0.1886167,963
0.1902833,850
0.19195,982
0.1936167,974
0.1952833,1015
0.19695,909
0.1986167,965
0.2002833,1003
0.20195,1041
0.2036167,814
0.2052833,1029
0.20695,1158
0.2086167,850
0.2102833,1248
0.21195,1216
0.2136167,1219
0.2152833,976
0.21695,1155
0.2186167,1275
0.2202833,1137
0.22195,1270
0.2236167,1208
0.2252833,1212
0.22695,1246
0.2286167,1223
0.2302833,1199
0.23195,1171
0.2336167,1192
0.2352833,1214
0.23695,1119
0.2386167,1025
0.2402833,1112
0.24195,1225
0.2436167,1220
0.2452833,1372
0.24695,1376
0.2486167,1347
0.2502833,1420
0.25195,1354
0.2536167,1288
0.2552833,1343
0.25695,1262
0.2586167,1181
0.2602833,1170
0.26195,1113
0.2636167,1119
0.2652833,1125
0.26695,1292
0.2686167,1345
0.2702833,1199
0.27195,1200
0.2736167,1201
0.2752833,1184
0.27695,1168
0.2786167,1140
0.2802833,1228
0.28195,1095
0.2836167,1265
0.2852833,1180
0.28695,1043
0.2886167,1203
0.2902833,1097
0.29195,1140
0.2936167,1298
0.2952833,983
0.29695,1186
0.2986333,1058
0.3002833,1075
0.30195,1106
0.3036167,1273
0.3052833,1308
0.30695,1010
0.3086167,1435
0.3102833,1330
0.31195,1311
0.3136167,1303
0.3153,1265
0.3169667,1227
0.3186167,1229
0.3202833,1231
0.32195,1454
0.3236167,1434
0.3252833,1365
0.32695,1264
0.3286167,1232
0.3302833,1230
0.33195,1294
0.3336333,1075
0.3352833,1136
0.3369667,1235
0.3386167,1356
0.3402833,1291
0.34195,1225
0.3436167,1315
0.3452833,1336
0.34695,1350
0.3486167,1364
0.3503,1565
0.35195,1529
0.3536167,1493
0.3553,1520
0.35695,1280
0.3586333,1301
0.3602833,1342
0.36195,1273
0.3636167,1533
0.3652833,2474
0.3669667,3587
0.3686333,3289
0.3702833,3473
0.3719667,2974
0.3736167,3066
0.3753,3092
0.37695,2746
0.3786167,3239
0.3802833,3047
0.38195,2799
0.3836333,2883
0.3853,2420
0.3869667,1734
0.3886333,1895
0.3902833,1237
0.3919667,953
0.3936167,741
0.3952833,512
0.39695,560
0.3986167,550
0.4003,519
0.4019667,426
0.4036333,427
0.4053,545
0.4069667,526
0.4086333,521
0.4102833,505
0.41195,636
0.4136333,634
0.4152833,683
0.4169667,691
0.4186333,754
0.4203,577
0.4219667,817
0.4236333,667
0.4253,790
0.4269667,766
0.4286167,852
0.4302833,839
0.43195,943
0.4336333,963
0.4353,976
0.4369667,894
0.4386333,953
0.4403,1013
0.4419667,1083
0.4436333,1216
0.4453,1134
0.4469667,1217
0.4486333,1093
0.4503,1170
0.4519667,1137
0.4536333,1220
0.4553,1225
0.4569667,1230
0.4586333,1383
0.4603,1424
0.4619667,1387
0.4636333,1510
0.4653,1158
0.4669667,1373
0.4686333,1290
0.4703,1290
0.4719667,1300
0.4736333,1301
0.4753,1171
0.4769667,1436
0.4786333,1516
0.4803,1250
0.4819667,1299
0.4836333,1374
0.4853,1229
0.4869667,1312
0.4886333,1426
0.4903,982
0.4919667,1188
0.4936333,992
0.4953,1206
0.4969667,965
0.4986333,989
0.5003,1003
0.5019667,1017
0.5036333,1031
0.5053,890
0.5069667,1115
0.5086333,1131
0.5103,1006
0.5119666,994
0.5136333,1044
0.5153,978
0.5169666,1020
0.5186333,1072
0.5203,960
0.5219667,1096
0.5236334,1209
0.5253,882
0.5269667,1099
0.5286334,1017
0.5303,1001
0.5319667,929
0.5336334,990
0.5353,846
0.5369667,915
0.5386333,1007
0.5403,947
0.5419667,888
0.5436333,902
0.5453,917
0.5469667,954
0.5486333,961
0.5503,969
0.5519667,987
0.5536333,985
0.5553,983
0.5569667,881
0.5586333,1038
0.5603,955
0.5619667,1113
0.5636333,1035
0.5653,957
0.5669667,1071
0.5686333,1078
0.5703,823
0.5719666,910
0.5736333,898
0.5753,1003
0.5769666,982
0.5786333,1043
0.5803,933
0.5819666,1062
0.5836333,980
0.5853,1097
0.5869667,921
0.5886334,845
0.5903,1074
0.5919667,864
0.5936334,961
0.5953,876
0.5969667,882
0.5986333,888
0.6003,965
0.6019667,1058
0.6036333,1008
0.6053,856
0.6069667,1030
0.6086333,996
0.6103,1034
0.6119667,973
0.6136333,991
0.6153,1151
0.6169667,744
0.6186333,1098
0.6203,976
0.6219667,1034
0.6236333,970
0.6253,1063
0.6269667,1152
0.6286333,1121
0.6303,1091
0.6319667,1062
0.6336333,1055
0.6353,1048
0.6369666,969
0.6386333,1161
0.6403,1244
0.6419666,1220
0.6436333,1099
0.6453,993
0.6469667,1299
0.6486334,959
0.6503,1170
0.6519667,1042
0.6536334,935
0.6553,1038
0.6569667,1014
0.6586334,852
0.6603,1099
0.6619667,928
0.6636333,1002
0.6653,1157
0.6669667,1098
0.6686333,1136
0.6703,1473
0.6719667,1682
0.6736333,1706
0.6753,2305
0.6769667,2871
0.6786333,3545
0.6803,4645
0.6819667,5321
0.6836333,7127
0.6853,9520
0.6869667,10128
0.6886333,12448
0.6903,14864
0.6919667,16596
0.6936333,18940
0.6953,20272
0.6969666,22064
0.6986333,23176
0.7003,22316
0.7019666,21628
0.7036333,22084
0.7053,22264
0.7069666,22816
0.7086333,20676
0.7103,20328
0.7119667,19056
0.7136334,19080
0.7153,19920
0.7169667,19432
0.7186334,18764
0.7203,18240
0.7219667,19160
0.7236333,19044
0.7253,17196
0.7269667,17096
0.7286333,16508
0.7303,14820
0.7319667,13532
0.7336333,12012
0.7353,10496
0.7369667,10040
0.7386333,9104
0.7403,8033
0.7419667,7158
0.7436333,5996
0.7453,5428
0.7469667,4597
0.7486333,4491
0.7503,4124
0.7519667,3581
0.7536333,3768
0.7553,3126
0.7569667,2390
0.7586333,2251
0.7603,2488
0.7619666,2039
0.7636333,1889
0.7653,1995
0.7669666,1907
0.7686333,1724
0.7703,2105
0.7719667,1950
0.7736334,2219
0.7753,2861
0.7769667,2921
0.7786334,3302
0.7803,4236
0.7819667,5218
0.7836334,6042
0.7853,7884
0.7869667,9432
0.7886333,12056
0.7903,14488
0.7919667,16828
0.7936333,18472
0.7953,19784
0.7969667,24072
0.7986333,24316
0.8003,25336
0.8019667,27044
0.8036333,28512
0.8053,27156
0.8069667,27548
0.8086333,26524
0.8103,26168
0.8119667,25108
0.8136333,24772
0.8153,24216
0.8169667,23208
0.8186333,22268
0.8203,23400
0.8219666,22864
0.8236333,21824
0.8253,21972
0.8269666,21400
0.8286333,21916
0.8303,20876
0.8319666,20556
0.8336333,18824
0.8353,19020
0.8369667,17644
0.8386334,16412
0.8403,14156
0.8419667,14412
0.8436334,12740
0.8453,11600
0.8469667,10820
0.8486333,8988
0.8503,8252
0.8519667,7145
0.8536333,6531
0.8553,6214
0.8569667,5369
0.8586333,5067
0.8603,4475
0.8619667,4640
0.8636333,3579
0.8653,3272
0.8669667,3280
0.8686333,2881
0.8703,2466
0.8719667,2249
0.8736333,2289
0.8753,2422
0.8769667,2512
0.8786333,2137
0.8803,2437
0.8819667,2681
0.8836333,2389
0.8853,2622
0.8869666,2604
0.8886333,2748
0.8903,2532
0.8919666,2259
0.8936333,2328
0.8953,2157
0.8969667,2272
0.8986334,2096
0.9003,2271
0.9019667,1950
0.9036334,2140
0.9053,2068
0.9069667,2225
0.9086334,1917
0.9103,2069
0.9119667,1780
0.9136333,1892
0.9153,1843
0.9169667,1917
0.9186333,1664
0.9203,1883
0.9219667,1761
0.9236333,1897
0.9253,1725
0.9269667,1884
0.9286333,1992
0.9303,1709
0.9319667,1740
0.9336333,1578
0.9353,1677
0.9369667,1606
0.9386333,1684
0.9403,1983
0.9419667,2017
0.9436333,1974
0.9453,1930
0.9469666,2112
0.9486333,2648
0.9503,3118
0.9519666,3593
0.9536333,4434
0.9553,5475
0.9569666,6905
0.9586333,8340
0.9603,10384
0.9619667,13020
0.9636334,16404
0.9653,19764
0.9669667,24480
0.9686334,28944
0.9703,34752
0.9719667,39968
0.9736333,44912
0.9753,49888
0.9769667,54896
0.9786333,62544
0.9803,64896
0.9819667,69504
0.9836333,75328
0.9853,77248
0.9869667,79328
0.9886333,81040
0.9903,84032
0.9919667,83744
0.9936333,84240
0.9953,81760
0.9969667,78432
0.9986333,81392
1.0003,77744
1.001967,76832
1.003633,74608
1.0053,72768
1.006967,73392
1.008633,72160
1.0103,71232
1.011967,71104
1.013633,71280
1.0153,72256
1.016967,73056
1.018633,73872
1.0203,71184
1.021967,70464
1.023633,70496
1.0253,70560
1.026967,68064
1.028633,67696
1.0303,65696
1.031967,64224
1.033633,58592
1.0353,54960
1.036967,51232
1.038633,49024
1.0403,45792
1.041967,41232
1.043633,39392
1.0453,36752
1.046967,33280
1.048633,29792
1.0503,30372
1.051967,28404
1.053633,26668
1.0553,26336
1.056967,25060
1.058633,24220
1.0603,24908
1.061967,24616
1.063633,24292
1.0653,23968
1.066967,24664
1.068633,23880
1.0703,24404
1.071967,24924
1.073633,25688
1.0753,25104
1.076967,26644
1.078633,26264
1.0803,25744
1.081967,26652
1.083633,24776
1.0853,25708
1.086967,23996
1.088633,25224
1.0903,23424
1.091967,23568
1.093633,22904
1.0953,21200
1.096967,20832
1.098633,20852
1.1003,20672
1.101967,20112
1.103633,20224
1.1053,20464
1.106967,19888
1.108633,19904
1.1103,19924
1.111967,19032
1.113633,18980
1.1153,18440
1.116967,18264
1.118633,17644
1.1203,17176
1.121967,16120
1.123633,15588
1.1253,15384
1.126967,14424
1.128633,13468
1.1303,12616
1.131967,11836
1.133633,11176
1.1353,10180
1.136967,9960
1.138633,9552
1.1403,8996
1.141967,8408
1.143633,8604
1.1453,7669
1.146967,7315
1.148633,6297
1.1503,6033
1.151967,6098
1.153633,5189
1.1553,4951
1.156967,4911
1.158633,4472
1.1603,4461
1.161967,3991
1.163633,4094
1.1653,3482
1.166967,3631
1.168633,3434
1.1703,3601
1.171967,3038
1.173633,2845
1.1753,2738
1.176967,2793
1.178633,2573
1.1803,2677
1.181967,2395
1.183633,2436
1.1853,2789
1.186967,2661
1.188633,2533
1.1903,2885
1.191967,2885
1.193633,2884
1.1953,2705
1.196967,3537
1.198633,3535
