"SampleName","A2Rd2_02-21"
"Target Mass 1",
"Column Name","IA-3 (3um, 4.6X100)"
"Channel","QDa 1: SIR Ch1"
0.00195,419
0.003616667,494
0.005283333,411
0.00695,385
0.008616666,527
0.01028333,538
0.01195,441
0.01361667,540
0.01528333,414
0.01695,495
0.01861667,479
0.02028333,464
0.02195,469
0.02361667,484
0.02528333,498
0.02695,576
0.02861667,518
0.03028333,460
0.03195,628
0.03361667,542
0.03528333,513
0.03695,483
0.03861667,524
0.04028333,527
0.04195,508
0.04361667,489
0.04528333,494
0.04695,412
0.04861667,529
0.05028334,452
0.05195,539
0.05361667,509
0.05528333,656
0.05695,673
0.05861667,520
0.06028333,650
0.06195,422
0.06361666,525
0.06528334,570
0.06695,534
0.06861667,456
0.07028333,550
0.07195,536
0.07361667,560
0.07528333,464
0.07695,603
0.07861666,432
0.08028334,578
0.08195,513
0.08361667,447
0.08528333,529
0.08695,572
0.08861667,555
0.09028333,411
0.09195,468
0.09361666,426
0.09528334,418
0.09695,566
0.09861667,550
0.1002833,459
0.10195,558
0.1036167,525
0.1052833,441
0.10695,477
0.1086167,450
0.1102833,471
0.11195,461
0.1136167,430
0.1152833,565
0.11695,661
0.1186167,569
0.1202833,525
0.12195,449
0.1236167,418
0.1252833,397
0.12695,583
0.1286167,568
0.1302833,437
0.13195,544
0.1336167,610
0.1352833,498
0.13695,505
0.1386167,513
0.1402833,498
0.14195,386
0.1436167,507
0.1452833,434
0.14695,533
0.1486167,487
0.1502833,417
0.15195,428
0.1536167,518
0.1552833,485
0.15695,453
0.1586167,477
0.1602833,501
0.16195,504
0.1636167,406
0.1652833,564
0.16695,504
0.1686167,484
0.1702833,557
0.17195,539
0.1736167,522
0.1752833,606
0.17695,463
0.1786167,520
0.1802833,532
0.18195,519
0.1836167,479
0.1852833,438
0.18695,496
0.1886167,492
0.1902833,487
0.19195,473
0.1936167,490
0.1952833,385
0.19695,552
0.1986167,384
0.2002833,540
0.20195,503
0.2036167,518
0.2052833,457
0.20695,521
0.2086167,469
0.2102833,417
0.21195,523
0.2136167,564
0.2152833,366
0.21695,535
0.2186167,501
0.2202833,532
0.22195,536
0.2236167,356
0.2252833,415
0.22695,469
0.2286167,599
0.2302833,533
0.23195,614
0.2336167,594
0.2352833,510
0.23695,509
0.2386167,513
0.2402833,498
0.24195,372
0.2436167,562
0.2452833,354
0.24695,466
0.2486167,504
0.2502833,566
0.2519667,553
0.2536167,462
0.2552833,541
0.25695,484
0.2586167,436
0.2602833,413
0.26195,418
0.2636333,470
0.2652833,535
0.26695,542
0.2686167,483
0.2702833,538
0.27195,493
0.2736167,564
0.2752833,421
0.27695,558
0.2786167,433
0.2803,468
0.28195,394
0.2836167,484
0.2852833,465
0.28695,413
0.2886167,540
0.2902833,507
0.29195,474
0.2936167,541
0.2952833,528
0.29695,477
0.2986333,426
0.3003,541
0.30195,481
0.3036167,422
0.3052833,548
0.30695,543
0.3086167,479
0.3102833,543
0.31195,607
0.3136167,597
0.3153,479
0.3169667,589
0.3186167,544
0.3202833,629
0.32195,611
0.3236167,514
0.3252833,652
0.32695,558
0.3286167,435
0.3302833,551
0.33195,580
0.3336333,546
0.3353,526
0.33695,582
0.3386167,671
0.3402833,399
0.3419667,482
0.3436167,568
0.3452833,382
0.34695,590
0.3486167,511
0.3503,593
0.3519667,536
0.3536167,602
0.3552833,604
0.35695,598
0.3586333,485
0.3602833,605
0.36195,636
0.3636167,854
0.3652833,1176
0.3669667,2129
0.3686333,3297
0.3702833,3947
0.3719667,4561
0.3736167,4745
0.3753,5204
0.37695,5574
0.3786333,6548
0.3802833,6599
0.3819667,6047
0.3836333,5799
0.3853,5180
0.38695,4411
0.3886333,3989
0.3902833,3132
0.3919667,2569
0.3936167,2335
0.3953,1672
0.39695,1395
0.3986333,1319
0.4003,1187
0.4019667,1222
0.4036333,1324
0.4053,1148
0.4069667,1066
0.4086333,1331
0.4103,1168
0.4119667,1378
0.4136167,1299
0.4153,1414
0.4169667,1352
0.4186333,1662
0.4203,1664
0.4219667,1468
0.4236333,1479
0.4253,1549
0.4269667,1693
0.4286333,1711
0.4303,1508
0.4319667,1702
0.4336333,1977
0.4353,2528
0.4369667,3976
0.4386333,6116
0.4403,9708
0.4419667,14708
0.4436333,23156
0.4453,33296
0.4469667,47216
0.4486333,61392
0.4503,77344
0.4519667,92272
0.4536333,108576
0.4553,126384
0.4569667,139392
0.4586333,146944
0.4603,161600
0.4619667,163328
0.4636333,171776
0.4653,179200
0.4669667,186432
0.4686333,197312
0.4703,208896
0.4719667,223232
0.4736333,233024
0.4753,236480
0.4769667,238784
0.4786333,236480
0.4803,225088
0.4819667,212928
0.4836333,192448
0.4853,174720
0.4869667,148160
0.4886333,127584
0.4903,106848
0.4919667,88656
0.4936333,71728
0.4953,59488
0.4969667,45632
0.4986333,36704
0.5003,29140
0.5019667,23292
0.5036333,18644
0.5053,15112
0.5069667,12392
0.5086333,10164
0.5103,8564
0.5119666,7244
0.5136333,6829
0.5153,5659
0.5169666,5299
0.5186333,4807
0.5203,4192
0.5219667,4536
0.5236334,3922
0.5253,3769
0.5269667,3480
0.5286334,3349
0.5303,3225
0.5319667,3308
0.5336334,2911
0.5353,2546
0.5369667,2620
0.5386333,2709
0.5403,2564
0.5419667,2550
0.5436333,2259
0.5453,2216
0.5469667,2010
0.5486333,2403
0.5503,1769
0.5519667,1965
0.5536333,2051
0.5553,1908
0.5569667,1927
0.5586333,1676
0.5603,1617
0.5619667,1543
0.5636333,1745
0.5653,1676
0.5669667,1606
0.5686333,1652
0.5703,1281
0.5719666,1464
0.5736333,1537
0.5753,1518
0.5769666,1455
0.5786333,1372
0.5803,1486
0.5819666,1307
0.5836333,1428
0.5853,1495
0.5869667,1317
0.5886334,1205
0.5903,1379
0.5919667,1300
0.5936334,1259
0.5953,1422
0.5969667,1412
0.5986333,1402
0.6003,1480
0.6019667,1540
0.6036333,1313
0.6053,1546
0.6069667,1355
0.6086333,1346
0.6103,1324
0.6119667,1285
0.6136333,1356
0.6153,1244
0.6169667,1308
0.6186333,1444
0.6203,1378
0.6219667,1115
0.6236333,1158
0.6253,1211
0.6269667,1062
0.6286333,1123
0.6303,1012
0.6319667,1073
0.6336333,909
0.6353,931
0.6369666,963
0.6386333,1000
0.6403,1037
0.6419666,1080
0.6436333,871
0.6453,815
0.6469667,992
0.6486334,959
0.6503,1003
0.6519667,802
0.6536334,1031
0.6553,872
0.6569667,859
0.6586334,951
0.6603,979
0.6619667,933
0.6636333,730
0.6653,860
0.6669667,902
0.6686333,922
0.6703,942
0.6719667,805
0.6736333,806
0.6753,924
0.6769667,821
0.6786333,938
0.6803,875
0.6819667,870
0.6836333,808
0.6853,982
0.6869667,1090
0.6886333,585
0.6903,1013
0.6919667,791
0.6936333,851
0.6953,938
0.6969666,759
0.6986333,655
0.7003,860
0.7019666,692
0.7036333,816
0.7053,786
0.7069666,756
0.7086333,695
0.7103,723
0.7119667,780
0.7136334,625
0.7153,765
0.7169667,870
0.7186334,671
0.7203,732
0.7219667,666
0.7236333,789
0.7253,837
0.7269667,784
0.7286333,769
0.7303,713
0.7319667,742
0.7336333,774
0.7353,738
0.7369667,702
0.7386333,917
0.7403,964
0.7419667,806
0.7436333,912
0.7453,770
0.7469667,890
0.7486333,744
0.7503,637
0.7519667,791
0.7536333,680
0.7553,733
0.7569667,811
0.7586333,847
0.7603,833
0.7619666,860
0.7636333,862
0.7653,864
0.7669666,704
0.7686333,939
0.7703,796
0.7719667,878
0.7736334,782
0.7753,779
0.7769667,776
0.7786334,620
0.7803,705
0.7819667,571
0.7836334,586
0.7853,601
0.7869667,641
0.7886333,637
0.7903,633
0.7919667,676
0.7936333,908
0.7953,863
0.7969667,847
0.7986333,846
0.8003,681
0.8019667,713
0.8036333,916
0.8053,873
0.8069667,749
0.8086333,893
0.8103,716
0.8119667,852
0.8136333,858
0.8153,838
0.8169667,911
0.8186333,748
0.8203,857
0.8219666,951
0.8236333,830
0.8253,869
0.8269666,1016
0.8286333,984
0.8303,1088
0.8319666,932
0.8336333,816
0.8353,887
0.8369667,795
0.8386334,758
0.8403,1043
0.8419667,1063
0.8436334,971
0.8453,1025
0.8469667,990
0.8486333,1013
0.8503,833
0.8519667,1103
0.8536333,987
0.8553,763
0.8569667,973
0.8586333,884
0.8603,896
0.8619667,689
0.8636333,839
0.8653,900
0.8669667,603
0.8686333,899
0.8703,877
0.8719667,860
0.8736333,1038
0.8753,1049
0.8769667,1374
0.8786333,2168
0.8803,2447
0.8819667,2684
0.8836333,3028
0.8853,3203
0.8869666,3613
0.8886333,3365
0.8903,3793
0.8919666,3782
0.8936333,3918
0.8953,3847
0.8969667,3839
0.8986334,3927
0.9003,3442
0.9019667,3534
0.9036334,3430
0.9053,3643
0.9069667,3880
0.9086334,3632
0.9103,3384
0.9119667,4138
0.9136333,3938
0.9153,3577
0.9169667,3735
0.9186333,3432
0.9203,3692
0.9219667,3628
0.9236333,3607
0.9253,3137
0.9269667,3256
0.9286333,3645
0.9303,3183
0.9319667,3277
0.9336333,3641
0.9353,3404
0.9369667,3331
0.9386333,2627
0.9403,2964
0.9419667,2634
0.9436333,2717
0.9453,2693
0.9469666,2683
0.9486333,2786
0.9503,2565
0.9519666,2454
0.9536333,2167
0.9553,1831
0.9569666,2141
0.9586333,1733
0.9603,1867
0.9619667,1654
0.9636334,1737
0.9653,1702
0.9669667,1701
0.9686334,1574
0.9703,1188
0.9719667,1174
0.9736333,1052
0.9753,1267
0.9769667,1063
0.9786333,990
0.9803,1066
0.9819667,844
0.9836333,935
0.9853,852
0.9869667,820
0.9886333,692
0.9903,660
0.9919667,553
0.9936333,708
0.9953,703
0.9969667,697
0.9986333,523
1.0003,632
1.001967,704
1.003633,512
1.0053,523
1.006967,478
1.008633,621
1.0103,699
1.011967,619
1.013633,729
1.0153,606
1.016967,534
1.018633,629
1.0203,569
1.021967,637
1.023633,617
1.0253,532
1.026967,499
1.028633,602
1.0303,497
1.031967,392
1.033633,663
1.0353,509
1.036967,682
1.038633,679
1.0403,624
1.041967,642
1.043633,663
1.0453,685
1.046967,667
1.048633,615
1.0503,596
1.051967,537
1.053633,585
1.0553,634
1.056967,642
1.058633,650
1.0603,572
1.061967,524
1.063633,567
1.0653,610
1.066967,531
1.068633,453
1.0703,665
1.071967,554
1.073633,616
1.0753,735
1.076967,676
1.078633,614
1.0803,534
1.081967,759
1.083633,798
1.0853,537
1.086967,639
1.088633,552
1.0903,540
1.091967,737
1.093633,720
1.0953,613
1.096967,640
1.098633,624
1.1003,647
1.101967,681
1.103633,579
1.1053,529
1.106967,672
1.108633,597
1.1103,743
1.111967,697
1.113633,660
1.1153,734
1.116967,579
1.118633,706
1.1203,658
1.121967,598
1.123633,551
1.1253,615
1.126967,679
1.128633,647
1.1303,756
1.131967,717
1.133633,639
1.1353,532
1.136967,630
1.138633,590
1.1403,560
1.141967,530
1.143633,629
1.1453,672
1.146967,716
1.148633,739
1.1503,763
1.151967,654
1.153633,669
1.1553,735
1.156967,726
1.158633,754
1.1603,781
1.161967,713
1.163633,645
1.1653,788
1.166967,733
1.168633,678
1.1703,844
1.171967,882
1.173633,976
1.1753,811
1.176967,757
1.178633,745
1.1803,735
1.181967,725
1.183633,865
1.1853,793
1.186967,722
1.188633,836
1.1903,934
1.191967,1039
1.193633,887
1.1953,1067
1.196967,709
1.198633,1209
