"SampleName","A2Rd2_02-32"
"Target Mass 1",
"Column Name","IA-3 (3um, 4.6X100)"
"Channel","QDa 1: SIR Ch1"
0.00195,419
0.003616667,743
0.005283333,627
0.00695,610
0.008616666,799
0.01028333,552
0.01195,628
0.01361667,542
0.01528333,467
0.01695,525
0.01861667,476
0.02028333,510
0.02195,564
0.02361667,626
0.02528333,670
0.02695,564
0.02861667,444
0.03028333,512
0.03195,592
0.03361667,575
0.03528333,597
0.03695,614
0.03861667,538
0.04028333,556
0.04195,606
0.04361667,577
0.04528333,566
0.04695,579
0.04861667,431
0.05028334,538
0.05195,556
0.05361667,409
0.05528333,640
0.05695,598
0.05861667,576
0.06028333,511
0.06195,550
0.06361666,590
0.06528334,540
0.06695,491
0.06861667,605
0.07028333,581
0.07195,547
0.07361667,453
0.07528333,470
0.07695,447
0.07861666,423
0.08028334,471
0.08195,513
0.08361667,554
0.08528333,549
0.08695,544
0.08861667,526
0.09028333,490
0.09195,517
0.09361666,468
0.09528334,534
0.09695,446
0.09861667,666
0.1002833,613
0.10195,502
0.1036167,475
0.1052833,679
0.10695,586
0.1086167,620
0.1102833,602
0.11195,633
0.1136167,581
0.1152833,428
0.11695,333
0.1186167,660
0.1202833,848
0.12195,643
0.1236167,609
0.1252833,580
0.12695,514
0.1286167,518
0.1302833,560
0.13195,598
0.1336167,718
0.1352833,684
0.13695,525
0.1386167,692
0.1402833,601
0.14195,383
0.1436167,611
0.1452833,409
0.14695,631
0.1486167,599
0.1502833,480
0.15195,562
0.1536167,481
0.1552833,456
0.15695,431
0.1586167,649
0.1602833,678
0.16195,417
0.1636167,463
0.1652833,546
0.16695,496
0.1686167,472
0.1702833,533
0.17195,554
0.1736167,608
0.1752833,621
0.17695,567
0.1786167,573
0.1802833,572
0.18195,535
0.1836167,532
0.1852833,457
0.18695,519
0.1886167,513
0.1902833,615
0.19195,605
0.1936167,425
0.1952833,666
0.19695,505
0.1986167,564
0.2002833,534
0.20195,580
0.2036167,568
0.2052833,596
0.20695,576
0.2086167,555
0.2102833,436
0.21195,318
0.2136167,593
0.2152833,605
0.21695,495
0.2186167,496
0.2202833,538
0.22195,518
0.2236167,376
0.2252833,470
0.22695,557
0.2286333,474
0.2302833,544
0.23195,480
0.2336167,499
0.2352833,517
0.23695,385
0.2386167,550
0.2402833,577
0.24195,510
0.2436167,468
0.2452833,479
0.24695,374
0.2486167,433
0.2502833,473
0.25195,512
0.2536167,484
0.2552833,469
0.25695,564
0.2586167,383
0.2602833,612
0.26195,328
0.2636333,529
0.2652833,635
0.26695,584
0.2686167,468
0.2702833,567
0.27195,552
0.2736167,533
0.2752833,559
0.27695,576
0.2786167,439
0.2803,501
0.28195,421
0.2836167,472
0.2853,524
0.28695,504
0.2886167,447
0.2903,570
0.29195,548
0.2936167,648
0.2952833,586
0.29695,679
0.2986333,654
0.3002833,629
0.30195,629
0.3036167,451
0.3052833,579
0.30695,620
0.3086167,612
0.3102833,637
0.31195,642
0.3136167,641
0.3153,521
0.31695,551
0.3186167,518
0.3202833,610
0.32195,596
0.3236333,481
0.3252833,603
0.32695,633
0.3286333,572
0.3302833,563
0.3319667,555
0.3336333,522
0.3352833,542
0.33695,531
0.3386167,542
0.3403,552
0.34195,525
0.3436167,498
0.3452833,624
0.34695,632
0.3486333,562
0.3503,604
0.3519667,579
0.3536333,573
0.3553,565
0.3569667,586
0.3586333,618
0.3602833,650
0.3619667,805
0.3636167,847
0.3653,1153
0.36695,1795
0.3686333,2352
0.3702833,2905
0.3719667,3633
0.3736333,3531
0.3753,3632
0.3769667,3712
0.3786333,4331
0.3802833,5536
0.3819667,5094
0.3836167,4990
0.3853,3686
0.3869667,3864
0.3886333,3719
0.3903,3239
0.3919667,2235
0.3936333,1935
0.3953,1735
0.39695,1440
0.3986333,1433
0.4003,1044
0.4019667,1075
0.4036333,954
0.4053,985
0.4069667,1039
0.4086333,1059
0.4103,1079
0.4119667,1032
0.4136333,852
0.4153,1059
0.4169667,1078
0.4186333,1098
0.4203,1089
0.4219667,1246
0.4236333,1353
0.4253,1291
0.4269667,1145
0.4286333,957
0.4303,1157
0.4319667,1260
0.4336333,1659
0.4353,2636
0.4369667,3582
0.4386333,6150
0.4403,9488
0.4419667,16064
0.4436333,24996
0.4453,36080
0.4469667,47984
0.4486333,63840
0.4503,81536
0.4519667,96448
0.4536333,113280
0.4553,129104
0.4569667,137536
0.4586333,150656
0.4603,156928
0.4619667,165632
0.4636333,165376
0.4653,169920
0.4669667,178368
0.4686333,183616
0.4703,195264
0.4719667,204608
0.4736333,210048
0.4753,222336
0.4769667,227648
0.4786333,225984
0.4803,223872
0.4819667,210496
0.4836333,193664
0.4853,174720
0.4869667,154176
0.4886333,136960
0.4903,114752
0.4919667,96816
0.4936333,80368
0.4953,66880
0.4969667,53408
0.4986333,41552
0.5003,32896
0.5019667,26712
0.5036333,21736
0.5053,17544
0.5069667,13716
0.5086333,11308
0.5103,9916
0.5119666,8416
0.5136333,7104
0.5153,6242
0.5169666,5956
0.5186333,5373
0.5203,5095
0.5219667,4244
0.5236334,4486
0.5253,4088
0.5269667,3537
0.5286334,3021
0.5303,2919
0.5319667,3396
0.5336334,2769
0.5353,2890
0.5369667,2597
0.5386333,2512
0.5403,2759
0.5419667,2313
0.5436333,2530
0.5453,2315
0.5469667,2328
0.5486333,2341
0.5503,1939
0.5519667,2086
0.5536333,2176
0.5553,1744
0.5569667,1893
0.5586333,1800
0.5603,1758
0.5619667,1721
0.5636333,1489
0.5653,1526
0.5669667,1334
0.5686333,1405
0.5703,1508
0.5719666,1488
0.5736333,1429
0.5753,1348
0.5769666,1373
0.5786333,1467
0.5803,1259
0.5819666,1417
0.5836333,1330
0.5853,1444
0.5869667,1416
0.5886334,1213
0.5903,1351
0.5919667,1322
0.5936334,1433
0.5953,1452
0.5969667,1333
0.5986333,1215
0.6003,1421
0.6019667,1485
0.6036333,1320
0.6053,1373
0.6069667,1518
0.6086333,1352
0.6103,1275
0.6119667,1170
0.6136333,1142
0.6153,1233
0.6169667,1287
0.6186333,1230
0.6203,1145
0.6219667,1138
0.6236333,989
0.6253,1068
0.6269667,1144
0.6286333,1009
0.6303,1017
0.6319667,1083
0.6336333,928
0.6353,1006
0.6369666,1165
0.6386333,1221
0.6403,1075
0.6419666,1106
0.6436333,725
0.6453,889
0.6469667,892
0.6486334,957
0.6503,862
0.6519667,881
0.6536334,896
0.6553,996
0.6569667,967
0.6586334,938
0.6603,913
0.6619667,957
0.6636333,922
0.6653,884
0.6669667,852
0.6686333,830
0.6703,995
0.6719667,659
0.6736333,855
0.6753,874
0.6769667,901
0.6786333,922
0.6803,944
0.6819667,752
0.6836333,914
0.6853,924
0.6869667,869
0.6886333,813
0.6903,901
0.6919667,940
0.6936333,896
0.6953,802
0.6969666,913
0.6986333,734
0.7003,751
0.7019666,833
0.7036333,816
0.7053,753
0.7069666,732
0.7086333,775
0.7103,819
0.7119667,843
0.7136334,845
0.7153,827
0.7169667,804
0.7186334,735
0.7203,775
0.7219667,998
0.7236333,1022
0.7253,891
0.7269667,881
0.7286333,748
0.7303,851
0.7319667,636
0.7336333,824
0.7353,857
0.7369667,762
0.7386333,818
0.7403,812
0.7419667,834
0.7436333,856
0.7453,731
0.7469667,753
0.7486333,822
0.7503,797
0.7519667,771
0.7536333,684
0.7553,810
0.7569667,811
0.7586333,818
0.7603,750
0.7619666,761
0.7636333,773
0.7653,777
0.7669666,687
0.7686333,904
0.7703,879
0.7719667,816
0.7736334,938
0.7753,740
0.7769667,882
0.7786334,673
0.7803,823
0.7819667,769
0.7836334,820
0.7853,930
0.7869667,915
0.7886333,786
0.7903,711
0.7919667,657
0.7936333,849
0.7953,840
0.7969667,830
0.7986333,854
0.8003,837
0.8019667,819
0.8036333,759
0.8053,885
0.8069667,739
0.8086333,796
0.8103,892
0.8119667,885
0.8136333,917
0.8153,883
0.8169667,951
0.8186333,862
0.8203,773
0.8219666,813
0.8236333,892
0.8253,711
0.8269666,784
0.8286333,933
0.8303,924
0.8319666,890
0.8336333,857
0.8353,904
0.8369667,941
0.8386334,890
0.8403,840
0.8419667,843
0.8436334,847
0.8453,897
0.8469667,946
0.8486333,1009
0.8503,957
0.8519667,961
0.8536333,695
0.8553,921
0.8569667,962
0.8586333,803
0.8603,897
0.8619667,628
0.8636333,1008
0.8653,862
0.8669667,716
0.8686333,666
0.8703,851
0.8719667,767
0.8736333,858
0.8753,889
0.8769667,1002
0.8786333,1169
0.8803,1583
0.8819667,1888
0.8836333,2091
0.8853,2284
0.8869666,3045
0.8886333,3418
0.8903,3277
0.8919666,3662
0.8936333,3894
0.8953,3685
0.8969667,3845
0.8986334,4006
0.9003,4026
0.9019667,4204
0.9036334,3641
0.9053,3827
0.9069667,3810
0.9086334,3682
0.9103,3636
0.9119667,3767
0.9136333,3899
0.9153,3841
0.9169667,3783
0.9186333,3908
0.9203,3656
0.9219667,3937
0.9236333,3593
0.9253,3962
0.9269667,3897
0.9286333,3713
0.9303,3558
0.9319667,3471
0.9336333,3162
0.9353,3396
0.9369667,3396
0.9386333,3231
0.9403,2937
0.9419667,3352
0.9436333,3177
0.9453,2715
0.9469666,3013
0.9486333,2816
0.9503,2825
0.9519666,2299
0.9536333,2447
0.9553,2038
0.9569666,2308
0.9586333,2119
0.9603,2150
0.9619667,1987
0.9636334,1926
0.9653,1738
0.9669667,1213
0.9686334,1788
0.9703,1625
0.9719667,1462
0.9736333,1183
0.9753,1334
0.9769667,1271
0.9786333,1096
0.9803,1041
0.9819667,883
0.9836333,1151
0.9853,972
0.9869667,785
0.9886333,1105
0.9903,656
0.9919667,720
0.9936333,710
0.9953,690
0.9969667,614
0.9986333,672
1.0003,662
1.001967,619
1.003633,590
1.0053,694
1.006967,654
1.008633,648
1.0103,449
1.011967,639
1.013633,634
1.0153,620
1.016967,606
1.018633,706
1.0203,816
1.021967,766
1.023633,751
1.0253,670
1.026967,691
1.028633,626
1.0303,616
1.031967,606
1.033633,641
1.0353,633
1.036967,626
1.038633,602
1.0403,674
1.041967,769
1.043633,749
1.0453,618
1.046967,807
1.048633,657
1.0503,749
1.051967,711
1.053633,589
1.0553,760
1.056967,684
1.058633,600
1.0603,619
1.061967,573
1.063633,586
1.0653,678
1.066967,657
1.068633,635
1.0703,664
1.071967,651
1.073633,638
1.0753,594
1.076967,705
1.078633,490
1.0803,677
1.081967,709
1.083633,639
1.0853,653
1.086967,530
1.088633,537
1.0903,545
1.091967,607
1.093633,755
1.0953,676
1.096967,598
1.098633,728
1.1003,669
1.101967,617
1.103633,723
1.1053,704
1.106967,685
1.108633,670
1.1103,656
1.111967,686
1.113633,685
1.1153,683
1.116967,596
1.118633,686
1.1203,593
1.121967,584
1.123633,709
1.1253,726
1.126967,743
1.128633,723
1.1303,702
1.131967,694
1.133633,685
1.1353,714
1.136967,742
1.138633,728
1.1403,790
1.141967,866
1.143633,616
1.1453,715
1.146967,807
1.148633,692
1.1503,797
1.151967,797
1.153633,798
1.1553,794
1.156967,860
1.158633,895
1.1603,830
1.161967,765
1.163633,848
1.1653,932
1.166967,1004
1.168633,892
1.1703,850
1.171967,822
1.173633,860
1.1753,844
1.176967,829
1.178633,917
1.1803,952
1.181967,924
1.183633,660
1.1853,1012
1.186967,974
1.188633,711
1.1903,777
1.191967,955
1.193633,982
1.1953,953
1.196967,781
1.198633,832
