"SampleName","A2Rd2_02-37"
"Target Mass 1",
"Column Name","IA-3 (3um, 4.6X100)"
"Channel","QDa 1: SIR Ch2"
0.00195,466
0.003616667,638
0.005283333,482
0.00695,884
0.008616666,949
0.01028333,806
0.01195,909
0.01361667,894
0.01528333,936
0.01695,979
0.01861667,786
0.02028333,776
0.02195,865
0.02361667,907
0.02528333,884
0.02695,921
0.02861667,842
0.03028333,737
0.03195,977
0.03361667,928
0.03528333,962
0.03695,978
0.03861667,880
0.04028333,960
0.04195,1030
0.04361667,878
0.04528333,843
0.04695,1054
0.04861667,845
0.05028334,1077
0.05195,853
0.05361667,829
0.05528333,896
0.05695,986
0.05861667,946
0.06028333,783
0.06195,911
0.06361666,782
0.06528334,856
0.06695,937
0.06861667,1058
0.07028333,986
0.07195,898
0.07361667,1016
0.07528333,985
0.07695,933
0.07861666,1015
0.08028334,935
0.08195,923
0.08361667,960
0.08528333,811
0.08695,765
0.08861667,718
0.09028333,1011
0.09195,940
0.09361666,1044
0.09528334,1068
0.09695,1010
0.09861667,778
0.1002833,1157
0.10195,736
0.1036167,853
0.1052833,1015
0.10695,941
0.1086167,918
0.1102833,791
0.11195,898
0.1136167,863
0.1152833,829
0.11695,895
0.1186167,843
0.1202833,894
0.12195,769
0.1236167,917
0.1252833,819
0.12695,898
0.1286167,963
0.1302833,967
0.13195,881
0.1336167,890
0.1352833,881
0.13695,944
0.1386167,788
0.1402833,753
0.14195,767
0.1436167,913
0.1452833,867
0.14695,821
0.1486167,954
0.1502833,908
0.15195,768
0.1536167,818
0.1552833,740
0.15695,747
0.1586167,755
0.1602833,937
0.16195,985
0.1636167,1102
0.1652833,951
0.16695,902
0.1686167,699
0.1702833,853
0.17195,818
0.1736167,850
0.1752833,755
0.17695,834
0.1786167,852
0.1802833,870
0.18195,813
0.1836167,817
0.1852833,829
0.18695,808
0.1886167,785
0.1902833,761
0.19195,872
0.1936167,636
0.1952833,742
0.19695,847
0.1986167,920
0.2002833,761
0.20195,981
0.2036167,813
0.2052833,939
0.20695,1028
0.2086167,1047
0.2102833,919
0.21195,960
0.2136167,1000
0.2152833,1023
0.21695,1045
0.2186167,850
0.2202833,871
0.22195,892
0.2236167,904
0.2252833,1241
0.22695,1176
0.2286167,1189
0.2302833,988
0.23195,1125
0.2336167,1224
0.2352833,955
0.23695,1232
0.2386167,1124
0.2402833,974
0.24195,1204
0.2436167,1092
0.2452833,1097
0.24695,1102
0.2486167,1054
0.2502833,1329
0.25195,1334
0.2536167,937
0.2552833,875
0.25695,1118
0.2586167,1082
0.2602833,964
0.26195,1205
0.2636333,1262
0.2652833,1050
0.26695,1152
0.2686167,1043
0.2702833,1131
0.27195,1150
0.2736167,997
0.2752833,902
0.27695,1030
0.2786167,1034
0.2803,1038
0.28195,1105
0.2836333,1117
0.2852833,1129
0.28695,871
0.2886167,951
0.2902833,970
0.29195,986
0.2936167,929
0.2952833,873
0.29695,945
0.2986333,1111
0.3002833,1134
0.30195,1058
0.3036167,1120
0.3052833,1047
0.30695,864
0.3086167,1105
0.3102833,1082
0.31195,1042
0.3136167,1075
0.3153,1108
0.31695,1121
0.3186167,1284
0.3202833,1341
0.32195,1311
0.3236167,1189
0.3252833,1141
0.32695,1158
0.3286167,1174
0.3302833,1114
0.33195,1248
0.3336333,984
0.3352833,1040
0.3369667,1189
0.3386167,1361
0.3402833,1467
0.34195,1391
0.3436167,1233
0.3452833,1336
0.34695,1459
0.3486167,1017
0.3503,1311
0.35195,1313
0.3536333,1373
0.3552833,1304
0.3569667,1432
0.3586167,1088
0.3602833,1348
0.3619667,1313
0.3636333,1682
0.3653,2079
0.3669667,3000
0.3686333,3753
0.3703,3841
0.3719667,4005
0.3736333,4020
0.3752833,3976
0.3769667,3749
0.3786167,3990
0.3803,3473
0.3819667,3541
0.3836333,3110
0.3853,2660
0.3869667,2226
0.3886333,1431
0.3903,1502
0.3919667,975
0.3936333,766
0.3953,701
0.3969667,648
0.3986333,435
0.4003,572
0.40195,504
0.4036333,664
0.4053,678
0.4069667,569
0.4086167,539
0.4103,560
0.4119667,627
0.4136333,623
0.4153,695
0.4169667,698
0.4186333,702
0.4203,682
0.4219667,662
0.4236333,832
0.4253,799
0.4269667,766
0.4286333,768
0.4303,843
0.4319667,691
0.4336333,776
0.4353,904
0.4369667,926
0.4386333,885
0.4403,843
0.4419667,867
0.4436333,892
0.4453,1102
0.4469667,1220
0.4486333,1235
0.4503,1202
0.4519667,1235
0.4536333,1267
0.4553,1245
0.4569667,1270
0.4586333,1295
0.4603,1366
0.4619667,1544
0.4636333,1540
0.4653,1486
0.4669667,1261
0.4686333,1410
0.4703,1361
0.4719667,1398
0.4736333,1477
0.4753,1416
0.4769667,1356
0.4786333,1474
0.4803,1336
0.4819667,1245
0.4836333,1211
0.4853,1299
0.4869667,1170
0.4886333,1310
0.4903,1174
0.4919667,1363
0.4936333,1452
0.4953,1174
0.4969667,857
0.4986333,1024
0.5003,951
0.5019667,992
0.5036333,1033
0.5053,1079
0.5069667,1125
0.5086333,1075
0.5103,913
0.5119666,979
0.5136333,982
0.5153,977
0.5169666,979
0.5186333,982
0.5203,1070
0.5219667,1113
0.5236334,1156
0.5253,865
0.5269667,1198
0.5286334,1126
0.5303,1095
0.5319667,941
0.5336334,773
0.5353,1043
0.5369667,1055
0.5386333,681
0.5403,1075
0.5419667,938
0.5436333,912
0.5453,864
0.5469667,963
0.5486333,885
0.5503,879
0.5519667,741
0.5536333,864
0.5553,967
0.5569667,1121
0.5586333,1111
0.5603,986
0.5619667,1115
0.5636333,977
0.5653,921
0.5669667,1026
0.5686333,927
0.5703,894
0.5719666,862
0.5736333,935
0.5753,910
0.5769666,884
0.5786333,894
0.5803,904
0.5819666,1012
0.5836333,998
0.5853,984
0.5869667,932
0.5886334,880
0.5903,949
0.5919667,948
0.5936334,948
0.5953,894
0.5969667,1006
0.5986333,1020
0.6003,1034
0.6019667,1057
0.6036333,890
0.6053,913
0.6069667,1021
0.6086333,1134
0.6103,1073
0.6119667,1116
0.6136333,1158
0.6153,895
0.6169667,795
0.6186333,1115
0.6203,836
0.6219667,996
0.6236333,866
0.6253,987
0.6269667,971
0.6286333,948
0.6303,796
0.6319667,919
0.6336333,917
0.6353,914
0.6369666,940
0.6386333,886
0.6403,833
0.6419666,1076
0.6436333,616
0.6453,890
0.6469667,891
0.6486334,909
0.6503,923
0.6519667,910
0.6536334,897
0.6553,819
0.6569667,887
0.6586334,808
0.6603,826
0.6619667,1144
0.6636333,1128
0.6653,794
0.6669667,801
0.6686333,840
0.6703,802
0.6719667,912
0.6736333,1004
0.6753,1056
0.6769667,938
0.6786333,899
0.6803,881
0.6819667,811
0.6836333,977
0.6853,921
0.6869667,866
0.6886333,1068
0.6903,978
0.6919667,887
0.6936333,959
0.6953,1030
0.6969666,1198
0.6986333,1159
0.7003,1082
0.7019666,1149
0.7036333,1098
0.7053,1046
0.7069666,1127
0.7086333,1195
0.7103,1188
0.7119667,963
0.7136334,1029
0.7153,1206
0.7169667,1133
0.7186334,1014
0.7203,1038
0.7219667,1083
0.7236333,1202
0.7253,1202
0.7269667,946
0.7286333,1094
0.7303,961
0.7319667,983
0.7336333,1005
0.7353,965
0.7369667,926
0.7386333,895
0.7403,940
0.7419667,901
0.7436333,862
0.7453,874
0.7469667,886
0.7486333,841
0.7503,835
0.7519667,829
0.7536333,946
0.7553,980
0.7569667,811
0.7586333,847
0.7603,794
0.7619666,828
0.7636333,859
0.7653,888
0.7669666,917
0.7686333,924
0.7703,737
0.7719667,797
0.7736334,857
0.7753,765
0.7769667,753
0.7786334,742
0.7803,915
0.7819667,972
0.7836334,897
0.7853,757
0.7869667,871
0.7886333,898
0.7903,1065
0.7919667,1069
0.7936333,1018
0.7953,967
0.7969667,1161
0.7986333,1200
0.8003,1221
0.8019667,1242
0.8036333,1262
0.8053,1281
0.8069667,1238
0.8086333,1195
0.8103,1261
0.8119667,1327
0.8136333,1342
0.8153,1282
0.8169667,1236
0.8186333,1355
0.8203,1252
0.8219666,1246
0.8236333,1240
0.8253,1192
0.8269666,1143
0.8286333,1171
0.8303,1199
0.8319666,1174
0.8336333,1128
0.8353,1082
0.8369667,1081
0.8386334,1081
0.8403,1196
0.8419667,1226
0.8436334,1176
0.8453,1126
0.8469667,1154
0.8486333,923
0.8503,863
0.8519667,923
0.8536333,960
0.8553,998
0.8569667,997
0.8586333,922
0.8603,907
0.8619667,799
0.8636333,956
0.8653,905
0.8669667,854
0.8686333,904
0.8703,953
0.8719667,916
0.8736333,796
0.8753,790
0.8769667,888
0.8786333,716
0.8803,845
0.8819667,950
0.8836333,1054
0.8853,1117
0.8869666,1001
0.8886333,1240
0.8903,1160
0.8919666,1079
0.8936333,1078
0.8953,1078
0.8969667,1057
0.8986334,1079
0.9003,1102
0.9019667,1279
0.9036334,1234
0.9053,1262
0.9069667,1253
0.9086334,1213
0.9103,1174
0.9119667,1118
0.9136333,1151
0.9153,1005
0.9169667,1136
0.9186333,1271
0.9203,1317
0.9219667,1243
0.9236333,1003
0.9253,1151
0.9269667,1282
0.9286333,1122
0.9303,1031
0.9319667,1104
0.9336333,1177
0.9353,1271
0.9369667,1270
0.9386333,1355
0.9403,993
0.9419667,1025
0.9436333,1373
0.9453,1238
0.9469666,1144
0.9486333,1103
0.9503,1011
0.9519666,971
0.9536333,932
0.9553,1138
0.9569666,1116
0.9586333,917
0.9603,1066
0.9619667,1002
0.9636334,1019
0.9653,1093
0.9669667,1122
0.9686334,1152
0.9703,1136
0.9719667,1047
0.9736333,1215
0.9753,1122
0.9769667,1010
0.9786333,1239
0.9803,1069
0.9819667,1118
0.9836333,957
0.9853,1070
0.9869667,1072
0.9886333,1075
0.9903,1183
0.9919667,1224
0.9936333,1268
0.9953,1025
0.9969667,1008
0.9986333,1135
1.0003,1170
1.001967,1116
1.003633,1039
1.0053,922
1.006967,1163
1.008633,1255
1.0103,1390
1.011967,1245
1.013633,1081
1.0153,1358
1.016967,1460
1.018633,1148
1.0203,1103
1.021967,1282
1.023633,1154
1.0253,1004
1.026967,1326
1.028633,1220
1.0303,1111
1.031967,1067
1.033633,1140
1.0353,1094
1.036967,998
1.038633,931
1.0403,864
1.041967,931
1.043633,998
1.0453,1000
1.046967,945
1.048633,889
1.0503,963
1.051967,960
1.053633,1029
1.0553,1019
1.056967,1077
1.058633,901
1.0603,967
1.061967,848
1.063633,864
1.0653,880
1.066967,1001
1.068633,1133
1.0703,1135
1.071967,1043
1.073633,952
1.0753,1039
1.076967,1056
1.078633,1067
1.0803,1078
1.081967,1081
1.083633,1084
1.0853,1061
1.086967,1133
1.088633,807
1.0903,1198
1.091967,1125
1.093633,1067
1.0953,886
1.096967,1035
1.098633,995
1.1003,1097
1.101967,1048
1.103633,999
1.1053,1072
1.106967,1004
1.108633,965
1.1103,925
1.111967,1093
1.113633,1156
1.1153,1223
1.116967,944
1.118633,824
1.1203,1040
1.121967,1109
1.123633,1144
1.1253,1006
1.126967,1009
1.128633,798
1.1303,978
1.131967,1137
1.133633,952
1.1353,836
1.136967,1002
1.138633,920
1.1403,993
1.141967,877
1.143633,881
1.1453,870
1.146967,857
1.148633,843
1.1503,896
1.151967,950
1.153633,762
1.1553,883
1.156967,986
1.158633,697
1.1603,1039
1.161967,817
1.163633,805
1.1653,702
1.166967,750
1.168633,798
1.1703,760
1.171967,798
1.173633,835
1.1753,777
1.176967,720
1.178633,953
1.1803,1021
1.181967,897
1.183633,659
1.1853,801
1.186967,853
1.188633,859
1.1903,832
1.191967,873
1.193633,876
1.1953,871
1.196967,938
1.198633,783
