"SampleName","A2Rd2_02-45"
"Target Mass 1",
"Column Name","IA-3 (3um, 4.6X100)"
"Channel","QDa 1: SIR Ch1"
0.00195,254
0.003616667,566
0.005283333,444
0.00695,356
0.008616666,401
0.01028333,565
0.01195,656
0.01361667,613
0.01528333,508
0.01695,444
0.01861667,469
0.02028333,418
0.02195,376
0.02361667,562
0.02528333,548
0.02695,563
0.02861667,339
0.03028333,505
0.03195,485
0.03361667,466
0.03528333,497
0.03695,480
0.03861667,483
0.04028333,418
0.04195,447
0.04361667,482
0.04528333,425
0.04695,484
0.04861667,439
0.05028334,430
0.05195,421
0.05361667,447
0.05528333,543
0.05695,592
0.05861667,397
0.06028333,528
0.06195,461
0.06361666,514
0.06528334,542
0.06695,547
0.06861667,560
0.07028333,432
0.07195,420
0.07361667,438
0.07528333,324
0.07695,477
0.07861666,518
0.08028334,512
0.08195,407
0.08361667,403
0.08528333,390
0.08695,419
0.08861667,445
0.09028333,471
0.09195,498
0.09361666,526
0.09528334,542
0.09695,496
0.09861667,450
0.1002833,553
0.10195,394
0.1036167,583
0.1052833,602
0.10695,407
0.1086167,411
0.1102833,448
0.11195,307
0.1136167,376
0.1152833,459
0.11695,512
0.1186167,518
0.1202833,524
0.12195,529
0.1236167,603
0.1252833,373
0.12695,494
0.1286167,522
0.1302833,485
0.13195,533
0.1336167,479
0.1352833,509
0.13695,444
0.1386167,506
0.1402833,364
0.14195,385
0.1436167,405
0.1452833,310
0.14695,447
0.1486167,361
0.1502833,443
0.15195,419
0.1536167,440
0.1552833,346
0.15695,414
0.1586167,482
0.1602833,452
0.16195,421
0.1636167,412
0.1652833,449
0.16695,544
0.1686167,530
0.1702833,484
0.17195,447
0.1736167,409
0.1752833,403
0.17695,393
0.1786167,384
0.1802833,386
0.18195,387
0.1836167,388
0.1852833,434
0.18695,476
0.1886167,442
0.1902833,407
0.19195,488
0.1936167,427
0.1952833,366
0.19695,414
0.1986167,330
0.2002833,389
0.20195,577
0.2036167,584
0.2052833,400
0.20695,523
0.2086167,399
0.2102833,512
0.21195,422
0.2136167,470
0.2152833,438
0.21695,424
0.2186167,410
0.2202833,391
0.22195,533
0.2236167,543
0.2252833,530
0.22695,541
0.2286167,510
0.2302833,518
0.23195,475
0.2336167,518
0.2352833,386
0.23695,390
0.2386167,446
0.2402833,421
0.24195,465
0.2436167,435
0.2452833,489
0.24695,510
0.2486167,442
0.2502833,483
0.25195,447
0.2536167,333
0.2552833,471
0.25695,465
0.2586167,458
0.2602833,472
0.26195,486
0.2636333,541
0.2652833,583
0.26695,390
0.2686167,588
0.2702833,409
0.27195,496
0.2736167,480
0.2752833,474
0.27695,408
0.2786167,542
0.2803,503
0.28195,430
0.2836167,565
0.2852833,506
0.28695,592
0.2886167,473
0.2902833,520
0.29195,650
0.2936167,419
0.2952833,518
0.29695,432
0.2986333,547
0.3002833,571
0.30195,634
0.3036167,463
0.3052833,480
0.30695,444
0.3086167,474
0.3102833,458
0.31195,442
0.3136167,452
0.3153,505
0.31695,557
0.3186333,571
0.3202833,584
0.32195,543
0.3236167,682
0.3252833,414
0.32695,511
0.3286167,500
0.3302833,582
0.33195,519
0.3336333,565
0.3353,488
0.3369667,467
0.3386333,446
0.3402833,490
0.34195,500
0.3436167,435
0.3453,369
0.34695,458
0.3486167,485
0.3503,577
0.35195,544
0.3536333,557
0.3552833,569
0.35695,555
0.3586167,637
0.3602833,670
0.3619667,719
0.3636167,783
0.3653,1155
0.3669667,1726
0.3686333,3013
0.3703,3394
0.3719667,3909
0.3736167,3677
0.3753,3446
0.37695,4102
0.3786333,4264
0.3802833,4657
0.3819667,5279
0.3836167,5222
0.3853,4456
0.3869667,4027
0.3886333,3473
0.3902833,3007
0.3919667,2118
0.3936167,1890
0.3953,1540
0.3969667,1563
0.3986333,1144
0.4003,1327
0.4019667,1150
0.4036333,1330
0.4053,1113
0.4069667,1352
0.4086333,1159
0.4103,1110
0.4119667,1206
0.4136333,1194
0.4153,1252
0.4169667,1311
0.4186333,1306
0.4203,1372
0.4219667,1548
0.4236333,1584
0.4253,1543
0.4269667,1503
0.4286333,1534
0.4303,1750
0.4319667,1697
0.4336333,1645
0.4353,2929
0.4369667,5026
0.4386333,7411
0.4403,11428
0.4419667,18392
0.4436333,26712
0.4453,37840
0.4469667,49952
0.4486333,65104
0.4503,83440
0.4519667,94752
0.4536333,106608
0.4553,121952
0.4569667,131584
0.4586333,139456
0.4603,143296
0.4619667,147584
0.4636333,146752
0.4653,158272
0.4669667,157248
0.4686333,164480
0.4703,173312
0.4719667,179968
0.4736333,188352
0.4753,196992
0.4769667,193344
0.4786333,192192
0.4803,191104
0.4819667,184576
0.4836333,164480
0.4853,149952
0.4869667,132864
0.4886333,113680
0.4903,95952
0.4919667,82432
0.4936333,68496
0.4953,56592
0.4969667,44528
0.4986333,35552
0.5003,29692
0.5019667,23032
0.5036333,18492
0.5053,15032
0.5069667,12400
0.5086333,9928
0.5103,9116
0.5119666,7425
0.5136333,6382
0.5153,5827
0.5169666,5180
0.5186333,4657
0.5203,4491
0.5219667,4349
0.5236334,4041
0.5253,3270
0.5269667,3387
0.5286334,3337
0.5303,3225
0.5319667,2879
0.5336334,2967
0.5353,2608
0.5369667,2333
0.5386333,2436
0.5403,2473
0.5419667,2145
0.5436333,2267
0.5453,2044
0.5469667,1855
0.5486333,1904
0.5503,2009
0.5519667,1923
0.5536333,1781
0.5553,1668
0.5569667,1753
0.5586333,1687
0.5603,1589
0.5619667,1690
0.5636333,1607
0.5653,1280
0.5669667,1450
0.5686333,1216
0.5703,1345
0.5719666,1274
0.5736333,1314
0.5753,1435
0.5769666,1421
0.5786333,1260
0.5803,1487
0.5819666,1272
0.5836333,1341
0.5853,1296
0.5869667,1185
0.5886334,1258
0.5903,1331
0.5919667,1353
0.5936334,1362
0.5953,1488
0.5969667,1528
0.5986333,1332
0.6003,1357
0.6019667,1313
0.6036333,1419
0.6053,1375
0.6069667,1331
0.6086333,1142
0.6103,1318
0.6119667,1132
0.6136333,1337
0.6153,1247
0.6169667,1236
0.6186333,1224
0.6203,1233
0.6219667,1198
0.6236333,1163
0.6253,1230
0.6269667,1207
0.6286333,1184
0.6303,1178
0.6319667,1151
0.6336333,1088
0.6353,1093
0.6369666,1015
0.6386333,1082
0.6403,911
0.6419666,1073
0.6436333,1157
0.6453,1069
0.6469667,853
0.6486334,954
0.6503,1040
0.6519667,850
0.6536334,820
0.6553,790
0.6569667,838
0.6586334,886
0.6603,905
0.6619667,645
0.6636333,821
0.6653,845
0.6669667,665
0.6686333,1004
0.6703,985
0.6719667,805
0.6736333,887
0.6753,906
0.6769667,761
0.6786333,854
0.6803,947
0.6819667,768
0.6836333,832
0.6853,736
0.6869667,687
0.6886333,851
0.6903,834
0.6919667,817
0.6936333,912
0.6953,897
0.6969666,821
0.6986333,902
0.7003,728
0.7019666,725
0.7036333,790
0.7053,859
0.7069666,935
0.7086333,880
0.7103,870
0.7119667,784
0.7136334,691
0.7153,840
0.7169667,740
0.7186334,851
0.7203,705
0.7219667,824
0.7236333,836
0.7253,689
0.7269667,509
0.7286333,819
0.7303,869
0.7319667,795
0.7336333,888
0.7353,761
0.7369667,892
0.7386333,848
0.7403,611
0.7419667,809
0.7436333,673
0.7453,805
0.7469667,725
0.7486333,632
0.7503,854
0.7519667,818
0.7536333,782
0.7553,980
0.7569667,919
0.7586333,859
0.7603,827
0.7619666,639
0.7636333,707
0.7653,722
0.7669666,707
0.7686333,692
0.7703,711
0.7719667,730
0.7736334,773
0.7753,815
0.7769667,779
0.7786334,855
0.7803,825
0.7819667,810
0.7836334,840
0.7853,813
0.7869667,755
0.7886333,661
0.7903,672
0.7919667,907
0.7936333,856
0.7953,752
0.7969667,728
0.7986333,827
0.8003,588
0.8019667,973
0.8036333,834
0.8053,622
0.8069667,811
0.8086333,783
0.8103,825
0.8119667,845
0.8136333,697
0.8153,911
0.8169667,728
0.8186333,663
0.8203,589
0.8219666,684
0.8236333,780
0.8253,734
0.8269666,747
0.8286333,760
0.8303,792
0.8319666,824
0.8336333,776
0.8353,728
0.8369667,768
0.8386334,717
0.8403,728
0.8419667,738
0.8436334,826
0.8453,858
0.8469667,884
0.8486333,926
0.8503,938
0.8519667,888
0.8536333,812
0.8553,642
0.8569667,988
0.8586333,680
0.8603,836
0.8619667,834
0.8636333,789
0.8653,701
0.8669667,853
0.8686333,523
0.8703,659
0.8719667,781
0.8736333,680
0.8753,613
0.8769667,851
0.8786333,1076
0.8803,1404
0.8819667,1896
0.8836333,2190
0.8853,2372
0.8869666,2611
0.8886333,3285
0.8903,3232
0.8919666,3358
0.8936333,3338
0.8953,3385
0.8969667,3280
0.8986334,3534
0.9003,3750
0.9019667,3654
0.9036334,3701
0.9053,3707
0.9069667,3644
0.9086334,3589
0.9103,3901
0.9119667,3842
0.9136333,3783
0.9153,3332
0.9169667,3448
0.9186333,3280
0.9203,3287
0.9219667,3293
0.9236333,3877
0.9253,3810
0.9269667,3848
0.9286333,3651
0.9303,3815
0.9319667,3222
0.9336333,3569
0.9353,3486
0.9369667,3158
0.9386333,3134
0.9403,3394
0.9419667,2996
0.9436333,2719
0.9453,2731
0.9469666,2695
0.9486333,2479
0.9503,2640
0.9519666,2408
0.9536333,2364
0.9553,2044
0.9569666,2000
0.9586333,1926
0.9603,1630
0.9619667,1617
0.9636334,1580
0.9653,1542
0.9669667,1500
0.9686334,1391
0.9703,1459
0.9719667,1098
0.9736333,1302
0.9753,1321
0.9769667,1080
0.9786333,897
0.9803,968
0.9819667,925
0.9836333,765
0.9853,747
0.9869667,753
0.9886333,666
0.9903,646
0.9919667,729
0.9936333,699
0.9953,668
0.9969667,542
0.9986333,752
1.0003,677
1.001967,620
1.003633,599
1.0053,689
1.006967,685
1.008633,581
1.0103,663
1.011967,637
1.013633,679
1.0153,615
1.016967,552
1.018633,616
1.0203,681
1.021967,660
1.023633,714
1.0253,566
1.026967,754
1.028633,752
1.0303,645
1.031967,621
1.033633,636
1.0353,612
1.036967,599
1.038633,663
1.0403,663
1.041967,659
1.043633,665
1.0453,671
1.046967,695
1.048633,627
1.0503,558
1.051967,720
1.053633,485
1.0553,754
1.056967,680
1.058633,677
1.0603,613
1.061967,559
1.063633,554
1.0653,637
1.066967,647
1.068633,686
1.0703,727
1.071967,500
1.073633,548
1.0753,525
1.076967,522
1.078633,519
1.0803,612
1.081967,597
1.083633,651
1.0853,713
1.086967,687
1.088633,583
1.0903,609
1.091967,581
1.093633,860
1.0953,843
1.096967,644
1.098633,530
1.1003,636
1.101967,734
1.103633,655
1.1053,766
1.106967,558
1.108633,612
1.1103,635
1.111967,659
1.113633,703
1.1153,717
1.116967,605
1.118633,623
1.1203,676
1.121967,649
1.123633,657
1.1253,665
1.126967,682
1.128633,725
1.1303,598
1.131967,578
1.133633,580
1.1353,605
1.136967,598
1.138633,729
1.1403,805
1.141967,772
1.143633,801
1.1453,700
1.146967,589
1.148633,584
1.1503,695
1.151967,550
1.153633,694
1.1553,650
1.156967,586
1.158633,609
1.1603,599
1.161967,642
1.163633,762
1.1653,891
1.166967,789
1.168633,751
1.1703,619
1.171967,753
1.173633,695
1.1753,613
1.176967,650
1.178633,599
1.1803,644
1.181967,689
1.183633,699
1.1853,710
1.186967,610
1.188633,675
1.1903,732
1.191967,721
1.193633,727
1.1953,712
1.196967,697
1.198633,643
