"SampleName","A2Rd2_02-32"
"Target Mass 1",
"Column Name","IA-3 (3um, 4.6X100)"
"Channel","QDa 1: SIR Ch2"
0.00195,450
0.003616667,652
0.005283333,818
0.00695,713
0.008616666,780
0.01028333,716
0.01195,795
0.01361667,823
0.01528333,891
0.01695,822
0.01861667,971
0.02028333,861
0.02195,752
0.02361667,1054
0.02528333,865
0.02695,773
0.02861667,956
0.03028333,879
0.03195,863
0.03361667,943
0.03528333,879
0.03695,992
0.03861667,1007
0.04028333,945
0.04195,878
0.04361667,811
0.04528333,939
0.04695,865
0.04861667,792
0.05028334,860
0.05195,1013
0.05361667,882
0.05528333,751
0.05695,996
0.05861667,944
0.06028333,942
0.06195,905
0.06361666,968
0.06528334,1008
0.06695,876
0.06861667,672
0.07028333,908
0.07195,987
0.07361667,749
0.07528333,840
0.07695,795
0.07861666,878
0.08028334,726
0.08195,746
0.08361667,767
0.08528333,755
0.08695,743
0.08861667,846
0.09028333,758
0.09195,671
0.09361666,879
0.09528334,796
0.09695,927
0.09861667,917
0.1002833,866
0.10195,924
0.1036167,849
0.1052833,852
0.10695,868
0.1086167,884
0.1102833,871
0.11195,857
0.1136167,870
0.1152833,864
0.11695,845
0.1186167,826
0.1202833,802
0.12195,778
0.1236167,918
0.1252833,902
0.12695,1038
0.1286167,660
0.1302833,972
0.13195,819
0.1336167,1061
0.1352833,780
0.13695,808
0.1386167,856
0.1402833,801
0.14195,658
0.1436167,986
0.1452833,864
0.14695,681
0.1486167,1047
0.1502833,752
0.15195,1026
0.1536167,827
0.1552833,844
0.15695,871
0.1586167,787
0.1602833,703
0.16195,721
0.1636167,846
0.1652833,832
0.16695,818
0.1686167,827
0.1702833,708
0.17195,650
0.1736167,867
0.1752833,944
0.17695,794
0.1786167,866
0.1802833,938
0.18195,775
0.1836167,686
0.1852833,682
0.18695,748
0.1886167,813
0.1902833,781
0.19195,749
0.1936167,811
0.1952833,779
0.19695,799
0.1986167,868
0.2002833,953
0.20195,856
0.2036167,760
0.2052833,820
0.20695,972
0.2086167,977
0.2102833,932
0.21195,916
0.2136167,943
0.2152833,881
0.21695,1033
0.2186167,983
0.2202833,932
0.22195,988
0.2236167,1044
0.2252833,892
0.22695,981
0.2286333,1144
0.2302833,1172
0.23195,994
0.2336167,974
0.2352833,1175
0.23695,1030
0.2386167,1222
0.2402833,994
0.24195,1040
0.2436167,1031
0.2452833,1080
0.24695,1067
0.2486167,1054
0.2502833,1105
0.25195,1156
0.2536167,934
0.2552833,1121
0.25695,1118
0.2586167,1004
0.2602833,1190
0.26195,1109
0.2636333,1076
0.2652833,1128
0.26695,1141
0.2686167,994
0.2702833,739
0.27195,1209
0.2736167,924
0.2752833,1151
0.27695,974
0.2786167,980
0.2803,1120
0.28195,1098
0.2836167,973
0.2853,1082
0.28695,915
0.2886167,951
0.2903,876
0.29195,845
0.2936167,978
0.2952833,920
0.29695,1141
0.2986333,1184
0.3002833,1199
0.30195,860
0.3036167,904
0.3052833,883
0.30695,1114
0.3086167,1182
0.3102833,1011
0.31195,1230
0.3136167,1126
0.3153,1211
0.31695,1164
0.3186167,1116
0.3202833,1306
0.32195,1284
0.3236333,1207
0.3252833,1005
0.32695,1048
0.3286333,1254
0.3302833,1244
0.3319667,1318
0.3336333,1135
0.3352833,1212
0.33695,1224
0.3386167,1229
0.3403,1234
0.34195,1114
0.3436167,1301
0.3452833,1212
0.34695,1223
0.3486333,1104
0.3503,1225
0.3519667,1207
0.3536333,1185
0.3553,1411
0.3569667,1391
0.3586333,1460
0.3602833,1464
0.3619667,1272
0.3636167,1620
0.3653,1971
0.36695,2835
0.3686333,3567
0.3702833,3281
0.3719667,3251
0.3736333,3319
0.3753,3215
0.3769667,3336
0.3786333,3199
0.3802833,3021
0.3819667,2744
0.3836167,2567
0.3853,2066
0.3869667,1743
0.3886333,1413
0.3903,1083
0.3919667,800
0.3936333,627
0.3953,798
0.39695,485
0.3986333,560
0.4003,509
0.4019667,531
0.4036333,684
0.4053,691
0.4069667,668
0.4086333,337
0.4103,581
0.4119667,528
0.4136333,610
0.4153,678
0.4169667,742
0.4186333,653
0.4203,741
0.4219667,540
0.4236333,641
0.4253,667
0.4269667,693
0.4286333,689
0.4303,685
0.4319667,832
0.4336333,846
0.4353,993
0.4369667,989
0.4386333,929
0.4403,807
0.4419667,952
0.4436333,1016
0.4453,980
0.4469667,966
0.4486333,1096
0.4503,1094
0.4519667,1091
0.4536333,1136
0.4553,1152
0.4569667,1119
0.4586333,1087
0.4603,1139
0.4619667,1191
0.4636333,1368
0.4653,1328
0.4669667,1398
0.4686333,1035
0.4703,1351
0.4719667,1498
0.4736333,1353
0.4753,1352
0.4769667,1411
0.4786333,1270
0.4803,1187
0.4819667,1270
0.4836333,1200
0.4853,1231
0.4869667,1261
0.4886333,1207
0.4903,1153
0.4919667,1137
0.4936333,1179
0.4953,1277
0.4969667,1246
0.4986333,1147
0.5003,1081
0.5019667,1187
0.5036333,1029
0.5053,924
0.5069667,851
0.5086333,1079
0.5103,1057
0.5119666,1151
0.5136333,880
0.5153,833
0.5169666,963
0.5186333,1003
0.5203,1014
0.5219667,969
0.5236334,1005
0.5253,1040
0.5269667,1035
0.5286334,894
0.5303,1093
0.5319667,690
0.5336334,972
0.5353,953
0.5369667,912
0.5386333,996
0.5403,976
0.5419667,956
0.5436333,903
0.5453,987
0.5469667,954
0.5486333,1058
0.5503,1015
0.5519667,743
0.5536333,1136
0.5553,896
0.5569667,1000
0.5586333,1042
0.5603,722
0.5619667,1000
0.5636333,1043
0.5653,735
0.5669667,697
0.5686333,1040
0.5703,844
0.5719666,865
0.5736333,844
0.5753,856
0.5769666,869
0.5786333,858
0.5803,1019
0.5819666,1049
0.5836333,882
0.5853,961
0.5869667,988
0.5886334,725
0.5903,1002
0.5919667,978
0.5936334,1086
0.5953,796
0.5969667,1041
0.5986333,921
0.6003,927
0.6019667,902
0.6036333,877
0.6053,979
0.6069667,797
0.6086333,824
0.6103,852
0.6119667,828
0.6136333,1002
0.6153,1079
0.6169667,1040
0.6186333,951
0.6203,926
0.6219667,924
0.6236333,909
0.6253,768
0.6269667,843
0.6286333,983
0.6303,986
0.6319667,868
0.6336333,1034
0.6353,897
0.6369666,850
0.6386333,831
0.6403,951
0.6419666,608
0.6436333,997
0.6453,983
0.6469667,929
0.6486334,901
0.6503,768
0.6519667,849
0.6536334,870
0.6553,891
0.6569667,870
0.6586334,849
0.6603,835
0.6619667,852
0.6636333,870
0.6653,723
0.6669667,940
0.6686333,909
0.6703,1076
0.6719667,888
0.6736333,920
0.6753,887
0.6769667,890
0.6786333,849
0.6803,809
0.6819667,921
0.6836333,989
0.6853,945
0.6869667,873
0.6886333,1076
0.6903,1072
0.6919667,986
0.6936333,1172
0.6953,1173
0.6969666,1175
0.6986333,1152
0.7003,1130
0.7019666,1162
0.7036333,1175
0.7053,1238
0.7069666,1302
0.7086333,1257
0.7103,1285
0.7119667,1245
0.7136334,1194
0.7153,1310
0.7169667,1123
0.7186334,1331
0.7203,1162
0.7219667,1349
0.7236333,872
0.7253,1435
0.7269667,1287
0.7286333,1017
0.7303,1080
0.7319667,1113
0.7336333,916
0.7353,1159
0.7369667,1116
0.7386333,1098
0.7403,915
0.7419667,883
0.7436333,893
0.7453,985
0.7469667,891
0.7486333,798
0.7503,993
0.7519667,991
0.7536333,929
0.7553,842
0.7569667,932
0.7586333,934
0.7603,906
0.7619666,703
0.7636333,1055
0.7653,852
0.7669666,1002
0.7686333,1082
0.7703,880
0.7719667,1048
0.7736334,943
0.7753,923
0.7769667,1060
0.7786334,1023
0.7803,1072
0.7819667,815
0.7836334,965
0.7853,1074
0.7869667,976
0.7886333,1069
0.7903,1274
0.7919667,1304
0.7936333,1379
0.7953,1271
0.7969667,1148
0.7986333,1257
0.8003,1375
0.8019667,1574
0.8036333,1526
0.8053,1425
0.8069667,1501
0.8086333,1378
0.8103,1256
0.8119667,1440
0.8136333,1526
0.8153,1421
0.8169667,1411
0.8186333,1401
0.8203,1552
0.8219666,1451
0.8236333,1350
0.8253,1258
0.8269666,1546
0.8286333,1584
0.8303,1294
0.8319666,1560
0.8336333,1512
0.8353,1224
0.8369667,1117
0.8386334,991
0.8403,1256
0.8419667,1050
0.8436334,1276
0.8453,1169
0.8469667,991
0.8486333,951
0.8503,1160
0.8519667,1209
0.8536333,861
0.8553,1011
0.8569667,918
0.8586333,880
0.8603,865
0.8619667,895
0.8636333,853
0.8653,813
0.8669667,699
0.8686333,871
0.8703,903
0.8719667,864
0.8736333,905
0.8753,651
0.8769667,792
0.8786333,859
0.8803,872
0.8819667,978
0.8836333,1094
0.8853,1115
0.8869666,1136
0.8886333,1072
0.8903,1044
0.8919666,1321
0.8936333,1342
0.8953,909
0.8969667,1317
0.8986334,1426
0.9003,1109
0.9019667,1173
0.9036334,1269
0.9053,1266
0.9069667,1264
0.9086334,1127
0.9103,1144
0.9119667,1160
0.9136333,1354
0.9153,1314
0.9169667,1276
0.9186333,1334
0.9203,1149
0.9219667,943
0.9236333,1099
0.9253,1123
0.9269667,1041
0.9286333,1132
0.9303,1107
0.9319667,1169
0.9336333,1148
0.9353,1127
0.9369667,1000
0.9386333,1071
0.9403,1286
0.9419667,1201
0.9436333,1135
0.9453,1076
0.9469666,1239
0.9486333,1132
0.9503,1270
0.9519666,1134
0.9536333,1124
0.9553,1062
0.9569666,991
0.9586333,1139
0.9603,1103
0.9619667,1066
0.9636334,979
0.9653,1153
0.9669667,1012
0.9686334,1074
0.9703,929
0.9719667,941
0.9736333,954
0.9753,967
0.9769667,1317
0.9786333,1281
0.9803,1027
0.9819667,1190
0.9836333,1208
0.9853,1190
0.9869667,1173
0.9886333,1120
0.9903,1067
0.9919667,1509
0.9936333,1418
0.9953,1460
0.9969667,1564
0.9986333,1366
1.0003,1411
1.001967,1296
1.003633,1325
1.0053,1340
1.006967,1249
1.008633,1478
1.0103,1486
1.011967,1494
1.013633,1441
1.0153,1425
1.016967,1510
1.018633,1379
1.0203,1504
1.021967,1367
1.023633,1486
1.0253,1383
1.026967,1285
1.028633,1413
1.0303,1247
1.031967,1362
1.033633,1055
1.0353,1395
1.036967,1378
1.038633,1158
1.0403,1112
1.041967,1189
1.043633,1144
1.0453,1100
1.046967,1122
1.048633,1244
1.0503,981
1.051967,1105
1.053633,1049
1.0553,1061
1.056967,1064
1.058633,1001
1.0603,1032
1.061967,1056
1.063633,1079
1.0653,1123
1.066967,958
1.068633,1040
1.0703,960
1.071967,1030
1.073633,1099
1.0753,1200
1.076967,1179
1.078633,905
1.0803,1135
1.081967,1058
1.083633,1098
1.0853,1087
1.086967,948
1.088633,1218
1.0903,1209
1.091967,1105
1.093633,1289
1.0953,1220
1.096967,1291
1.098633,1291
1.1003,1155
1.101967,1346
1.103633,1138
1.1053,1317
1.106967,1149
1.108633,962
1.1103,1448
1.111967,1299
1.113633,1392
1.1153,1001
1.116967,1139
1.118633,1026
1.1203,988
1.121967,971
1.123633,1055
1.1253,1138
1.126967,1133
1.128633,1091
1.1303,997
1.131967,949
1.133633,941
1.1353,930
1.136967,919
1.138633,991
1.1403,994
1.141967,908
1.143633,1080
1.1453,845
1.146967,827
1.148633,929
1.1503,856
1.151967,782
1.153633,842
1.1553,787
1.156967,795
1.158633,803
1.1603,795
1.161967,788
1.163633,734
1.1653,681
1.166967,749
1.168633,816
1.1703,883
1.171967,850
1.173633,817
1.1753,812
1.176967,800
1.178633,788
1.1803,784
1.181967,781
1.183633,760
1.1853,890
1.186967,866
1.188633,843
1.1903,897
1.191967,896
1.193633,895
1.1953,886
1.196967,936
1.198633,718
