"SampleName","A2Rd2_02-72"
"Target Mass 1",
"Column Name","IA-3 (3um, 4.6X100)"
"Channel","QDa 1: SIR Ch2"
0.00195,482
0.003616667,658
0.005283333,586
0.00695,716
0.008616666,772
0.01028333,828
0.01195,898
0.01361667,1097
0.01528333,1088
0.01695,891
0.01861667,998
0.02028333,840
0.02195,924
0.02361667,843
0.02528333,752
0.02695,887
0.02861667,1021
0.03028333,959
0.03195,1029
0.03361667,856
0.03528333,1021
0.03695,1152
0.03861667,834
0.04028333,974
0.04195,1016
0.04361667,972
0.04528333,927
0.04695,881
0.04861667,898
0.05028334,881
0.05195,864
0.05361667,848
0.05528333,1069
0.05695,1121
0.05861667,857
0.06028333,957
0.06195,984
0.06361666,1114
0.06528334,1102
0.06695,1114
0.06861667,1126
0.07028333,1120
0.07195,1014
0.07361667,1001
0.07528333,823
0.07695,875
0.07861666,974
0.08028334,872
0.08195,842
0.08361667,811
0.08528333,1036
0.08695,1082
0.08861667,1037
0.09028333,801
0.09195,939
0.09361666,733
0.09528334,769
0.09695,805
0.09861667,715
0.1002833,794
0.10195,831
0.1036167,868
0.1052833,910
0.10695,952
0.1086167,924
0.1102833,867
0.11195,851
0.1136167,792
0.1152833,922
0.11695,1052
0.1186167,1014
0.1202833,1182
0.12195,807
0.1236167,834
0.1252833,917
0.12695,937
0.1286167,947
0.1302833,939
0.13195,930
0.1336167,967
0.1352833,1003
0.13695,823
0.1386167,1039
0.1402833,1188
0.14195,753
0.1436167,890
0.1452833,888
0.14695,803
0.1486167,908
0.1502833,973
0.15195,930
0.1536167,838
0.1552833,807
0.15695,777
0.1586167,859
0.1602833,1093
0.16195,1043
0.1636167,804
0.1652833,881
0.16695,884
0.1686167,940
0.1702833,753
0.17195,802
0.1736167,851
0.1752833,940
0.17695,1004
0.1786167,981
0.1802833,807
0.18195,1133
0.1836167,649
0.1852833,833
0.18695,734
0.1886167,920
0.1902833,784
0.19195,991
0.1936167,875
0.1952833,949
0.19695,856
0.1986167,936
0.2002833,838
0.20195,1089
0.2036167,1047
0.2052833,1031
0.20695,714
0.2086167,1032
0.2102833,943
0.21195,957
0.2136167,943
0.2152833,929
0.21695,1053
0.2186167,1097
0.2202833,1047
0.22195,997
0.2236167,1129
0.2252833,1160
0.22695,1110
0.2286167,1184
0.2302833,1179
0.23195,1222
0.2336167,1185
0.2352833,1082
0.23695,1237
0.2386167,1059
0.2402833,995
0.24195,1410
0.2436167,1433
0.2452833,1285
0.24695,1227
0.2486167,1372
0.2502833,1034
0.25195,1008
0.2536167,1071
0.2552833,935
0.25695,962
0.2586167,989
0.2602833,1042
0.26195,999
0.2636167,956
0.2652833,994
0.26695,983
0.2686167,973
0.2702833,996
0.27195,998
0.2736167,1001
0.2752833,1024
0.27695,1046
0.2786167,1017
0.2803,987
0.28195,969
0.2836167,950
0.2852833,988
0.28695,969
0.2886167,949
0.2902833,925
0.29195,855
0.2936167,827
0.2952833,1020
0.29695,1055
0.2986333,1141
0.3002833,1060
0.30195,1207
0.3036167,1133
0.3052833,1059
0.30695,1020
0.3086167,1242
0.3102833,1277
0.3119667,1515
0.3136167,1328
0.3153,1230
0.31695,1233
0.3186167,1239
0.3202833,1245
0.32195,1402
0.3236167,1370
0.3252833,1334
0.32695,1275
0.3286167,1334
0.3302833,1164
0.33195,1171
0.3336333,1142
0.3352833,1161
0.3369667,1142
0.3386167,1122
0.3402833,1318
0.3419667,1375
0.3436167,1114
0.3453,1399
0.34695,1320
0.3486167,1347
0.3503,1219
0.35195,1325
0.3536333,1244
0.3552833,1284
0.35695,1324
0.3586333,1412
0.3602833,1439
0.3619667,1509
0.3636167,1579
0.3652833,2187
0.36695,2814
0.3686333,3098
0.3703,3125
0.3719667,3194
0.3736167,2559
0.3753,2989
0.3769667,2670
0.3786333,2668
0.3803,2852
0.3819667,2632
0.3836167,2466
0.3853,2454
0.3869667,1774
0.3886333,1599
0.3902833,1377
0.3919667,1143
0.3936333,936
0.3953,809
0.39695,772
0.3986333,456
0.4002833,596
0.40195,529
0.4036333,484
0.4053,596
0.4069667,644
0.4086333,581
0.4103,437
0.4119667,742
0.4136167,773
0.4153,685
0.41695,748
0.4186333,653
0.4203,554
0.4219667,614
0.4236333,674
0.4253,848
0.4269667,1051
0.4286333,909
0.4303,804
0.4319667,813
0.4336333,976
0.4353,961
0.4369667,979
0.4386333,998
0.4403,1040
0.4419667,1155
0.4436333,1174
0.4453,1192
0.4469667,1285
0.4486333,1291
0.4503,1005
0.4519667,1110
0.4536333,1115
0.4553,1121
0.4569667,1330
0.4586333,1291
0.4603,1252
0.4619667,1340
0.4636333,1326
0.4653,1312
0.4669667,1559
0.4686333,1638
0.4703,1338
0.4719667,1593
0.4736333,1368
0.4753,1599
0.4769667,1389
0.4786333,1308
0.4803,1595
0.4819667,1433
0.4836333,1512
0.4853,1277
0.4869667,1203
0.4886333,1422
0.4903,1143
0.4919667,1182
0.4936333,1047
0.4953,1035
0.4969667,1023
0.4986333,1052
0.5003,1080
0.5019667,987
0.5036333,1018
0.5053,1048
0.5069667,885
0.5086333,921
0.5103,957
0.5119666,975
0.5136333,992
0.5153,970
0.5169666,854
0.5186333,941
0.5203,875
0.5219667,808
0.5236334,870
0.5253,940
0.5269667,867
0.5286334,795
0.5303,798
0.5319667,801
0.5336334,953
0.5353,1127
0.5369667,1027
0.5386333,1059
0.5403,962
0.5419667,934
0.5436333,922
0.5453,886
0.5469667,922
0.5486333,958
0.5503,849
0.5519667,1006
0.5536333,1035
0.5553,1070
0.5569667,1037
0.5586333,961
0.5603,1044
0.5619667,1083
0.5636333,953
0.5653,823
0.5669667,1035
0.5686333,999
0.5703,941
0.5719666,953
0.5736333,952
0.5753,890
0.5769666,827
0.5786333,907
0.5803,1126
0.5819666,1088
0.5836333,889
0.5853,1262
0.5869667,1087
0.5886334,1138
0.5903,1048
0.5919667,903
0.5936334,1219
0.5953,969
0.5969667,1038
0.5986333,974
0.6003,989
0.6019667,1004
0.6036333,917
0.6053,1098
0.6069667,1144
0.6086333,998
0.6103,852
0.6119667,1062
0.6136333,1068
0.6153,1085
0.6169667,988
0.6186333,1061
0.6203,1073
0.6219667,978
0.6236333,1008
0.6253,1015
0.6269667,1130
0.6286333,840
0.6303,974
0.6319667,909
0.6336333,883
0.6353,857
0.6369666,845
0.6386333,833
0.6403,817
0.6419666,977
0.6436333,980
0.6453,983
0.6469667,1012
0.6486334,1041
0.6503,1045
0.6519667,850
0.6536334,1001
0.6553,793
0.6569667,702
0.6586334,888
0.6603,905
0.6619667,1003
0.6636333,855
0.6653,847
0.6669667,840
0.6686333,797
0.6703,858
0.6719667,919
0.6736333,958
0.6753,891
0.6769667,823
0.6786333,857
0.6803,931
0.6819667,939
0.6836333,752
0.6853,852
0.6869667,846
0.6886333,945
0.6903,999
0.6919667,775
0.6936333,1019
0.6953,1042
0.6969666,822
0.6986333,1022
0.7003,824
0.7019666,743
0.7036333,1118
0.7053,1017
0.7069666,970
0.7086333,1086
0.7103,890
0.7119667,815
0.7136334,842
0.7153,910
0.7169667,924
0.7186334,948
0.7203,869
0.7219667,1053
0.7236333,1013
0.7253,929
0.7269667,818
0.7286333,741
0.7303,827
0.7319667,977
0.7336333,941
0.7353,952
0.7369667,964
0.7386333,961
0.7403,718
0.7419667,914
0.7436333,739
0.7453,948
0.7469667,1024
0.7486333,858
0.7503,957
0.7519667,864
0.7536333,1118
0.7553,1087
0.7569667,977
0.7586333,767
0.7603,760
0.7619666,1040
0.7636333,1020
0.7653,750
0.7669666,700
0.7686333,989
0.7703,955
0.7719667,953
0.7736334,667
0.7753,840
0.7769667,811
0.7786334,713
0.7803,905
0.7819667,980
0.7836334,906
0.7853,957
0.7869667,884
0.7886333,871
0.7903,857
0.7919667,896
0.7936333,895
0.7953,895
0.7969667,944
0.7986333,935
0.8003,927
0.8019667,769
0.8036333,943
0.8053,966
0.8069667,913
0.8086333,827
0.8103,1027
0.8119667,797
0.8136333,948
0.8153,975
0.8169667,1081
0.8186333,746
0.8203,745
0.8219666,1074
0.8236333,843
0.8253,1065
0.8269666,929
0.8286333,1035
0.8303,888
0.8319666,1038
0.8336333,815
0.8353,918
0.8369667,1056
0.8386334,914
0.8403,811
0.8419667,784
0.8436334,834
0.8453,980
0.8469667,941
0.8486333,869
0.8503,859
0.8519667,843
0.8536333,827
0.8553,849
0.8569667,888
0.8586333,848
0.8603,807
0.8619667,1024
0.8636333,996
0.8653,1038
0.8669667,831
0.8686333,878
0.8703,994
0.8719667,853
0.8736333,760
0.8753,895
0.8769667,830
0.8786333,1043
0.8803,1063
0.8819667,1040
0.8836333,986
0.8853,1106
0.8869666,1193
0.8886333,1199
0.8903,1120
0.8919666,1199
0.8936333,1100
0.8953,1071
0.8969667,1122
0.8986334,1130
0.9003,1016
0.9019667,1393
0.9036334,1339
0.9053,1079
0.9069667,1292
0.9086334,1124
0.9103,1164
0.9119667,1246
0.9136333,1291
0.9153,1258
0.9169667,1225
0.9186333,1118
0.9203,1104
0.9219667,1181
0.9236333,1131
0.9253,1129
0.9269667,1198
0.9286333,1267
0.9303,888
0.9319667,1024
0.9336333,1246
0.9353,1149
0.9369667,1131
0.9386333,1041
0.9403,1036
0.9419667,1032
0.9436333,1234
0.9453,1242
0.9469666,1271
0.9486333,1093
0.9503,1322
0.9519666,1179
0.9536333,1046
0.9553,1099
0.9569666,1041
0.9586333,1102
0.9603,941
0.9619667,979
0.9636334,1016
0.9653,944
0.9669667,984
0.9686334,1023
0.9703,1002
0.9719667,997
0.9736333,991
0.9753,1007
0.9769667,1022
0.9786333,878
0.9803,842
0.9819667,669
0.9836333,826
0.9853,929
0.9869667,821
0.9886333,889
0.9903,898
0.9919667,907
0.9936333,1015
0.9953,912
0.9969667,810
0.9986333,1021
1.0003,980
1.001967,969
1.003633,916
1.0053,884
1.006967,891
1.008633,827
1.0103,1023
1.011967,996
1.013633,969
1.0153,1087
1.016967,705
1.018633,880
1.0203,951
1.021967,798
1.023633,923
1.0253,937
1.026967,994
1.028633,892
1.0303,864
1.031967,829
1.033633,795
1.0353,767
1.036967,953
1.038633,1068
1.0403,945
1.041967,880
1.043633,889
1.0453,959
1.046967,916
1.048633,873
1.0503,868
1.051967,849
1.053633,896
1.0553,943
1.056967,914
1.058633,956
1.0603,964
1.061967,835
1.063633,935
1.0653,864
1.066967,1036
1.068633,1031
1.0703,858
1.071967,1036
1.073633,868
1.0753,766
1.076967,966
1.078633,900
1.0803,721
1.081967,816
1.083633,785
1.0853,873
1.086967,1022
1.088633,1034
1.0903,698
1.091967,947
1.093633,909
1.0953,750
1.096967,805
1.098633,940
1.1003,911
1.101967,930
1.103633,977
1.1053,1023
1.106967,770
1.108633,694
1.1103,893
1.111967,982
1.113633,935
1.1153,792
1.116967,965
1.118633,962
1.1203,1023
1.121967,920
1.123633,934
1.1253,844
1.126967,804
1.128633,722
1.1303,803
1.131967,883
1.133633,879
1.1353,875
1.136967,853
1.138633,857
1.1403,916
1.141967,861
1.143633,807
1.1453,819
1.146967,831
1.148633,877
1.1503,841
1.151967,805
1.153633,874
1.1553,840
1.156967,806
1.158633,925
1.1603,906
1.161967,838
1.163633,887
1.1653,734
1.166967,792
1.168633,850
1.1703,846
1.171967,842
1.173633,848
1.1753,855
1.176967,531
1.178633,960
1.1803,812
1.181967,1103
1.183633,853
1.1853,1080
1.186967,792
1.188633,853
1.1903,954
1.191967,935
1.193633,900
1.1953,747
1.196967,821
1.198633,790
