"SampleName","A2Rd2_02-83"
"Target Mass 1",
"Column Name","IA-3 (3um, 4.6X100)"
"Channel","QDa 1: SIR Ch2"
0.00195,545
0.003616667,632
0.005283333,612
0.00695,793
0.008616666,933
0.01028333,865
0.01195,876
0.01361667,870
0.01528333,916
0.01695,950
0.01861667,983
0.02028333,928
0.02195,933
0.02361667,938
0.02528333,775
0.02695,1043
0.02861667,858
0.03028333,795
0.03195,832
0.03361667,997
0.03528333,1003
0.03695,878
0.03861667,983
0.04028333,1089
0.04195,1112
0.04361667,934
0.04528333,989
0.04695,1128
0.04861667,1126
0.05028334,1032
0.05195,863
0.05361667,1011
0.05528333,1151
0.05695,1107
0.05861667,1000
0.06028333,864
0.06195,990
0.06361666,901
0.06528334,818
0.06695,974
0.06861667,1074
0.07028333,1102
0.07195,1053
0.07361667,1003
0.07528333,886
0.07695,1074
0.07861666,920
0.08028334,845
0.08195,1021
0.08361667,990
0.08528333,1107
0.08695,968
0.08861667,955
0.09028333,808
0.09195,916
0.09361666,875
0.09528334,903
0.09695,944
0.09861667,959
0.1002833,902
0.10195,844
0.1036167,860
0.1052833,892
0.10695,925
0.1086167,894
0.1102833,863
0.11195,836
0.1136167,810
0.1152833,860
0.11695,911
0.1186167,856
0.1202833,801
0.12195,798
0.1236167,796
0.1252833,658
0.12695,1019
0.1286167,1037
0.1302833,746
0.13195,1152
0.1336167,888
0.1352833,861
0.13695,1072
0.1386167,829
0.1402833,850
0.14195,1010
0.1436167,860
0.1452833,917
0.14695,771
0.1486167,986
0.1502833,902
0.15195,817
0.1536167,852
0.1552833,811
0.15695,951
0.1586167,961
0.1602833,824
0.16195,911
0.1636167,799
0.1652833,779
0.16695,788
0.1686167,800
0.1702833,812
0.17195,824
0.1736167,730
0.1752833,880
0.17695,909
0.1786167,820
0.1802833,815
0.18195,884
0.1836167,620
0.1852833,942
0.18695,939
0.1886167,764
0.1902833,902
0.19195,986
0.1936167,894
0.1952833,949
0.19695,1003
0.1986167,829
0.2002833,924
0.20195,821
0.2036167,851
0.2052833,1009
0.20695,1059
0.2086167,991
0.2102833,950
0.21195,995
0.2136167,987
0.2152833,979
0.21695,998
0.2186167,1017
0.2202833,942
0.22195,1076
0.2236167,1065
0.2252833,1136
0.22695,932
0.2286167,1290
0.2302833,1269
0.23195,1179
0.2336167,959
0.2352833,1083
0.23695,1152
0.2386167,1098
0.2402833,1083
0.24195,1115
0.2436167,1118
0.2452833,1187
0.24695,1255
0.2486167,1281
0.2502833,1226
0.25195,970
0.2536167,1059
0.2552833,1197
0.25695,1207
0.2586167,1244
0.2602833,1081
0.26195,1030
0.2636333,1203
0.2652833,1031
0.26695,1006
0.2686167,1079
0.2702833,1093
0.27195,1107
0.2736167,1023
0.2752833,1053
0.27695,1111
0.2786167,982
0.2803,1053
0.28195,989
0.2836167,981
0.2852833,986
0.28695,991
0.2886167,1029
0.2902833,1008
0.29195,988
0.2936333,1052
0.2952833,1137
0.29695,1188
0.2986333,974
0.3002833,1047
0.30195,1086
0.3036167,971
0.3052833,967
0.30695,964
0.3086167,1044
0.3102833,1087
0.31195,1086
0.3136167,1085
0.3153,1417
0.31695,1413
0.3186333,1613
0.3202833,1388
0.32195,1416
0.3236167,1215
0.3252833,1358
0.3269667,1230
0.3286167,1040
0.3302833,1149
0.3319667,1191
0.3336333,1234
0.3353,1226
0.3369667,1218
0.3386167,1265
0.3402833,1348
0.34195,1362
0.3436333,1234
0.3452833,1245
0.34695,1391
0.3486333,1326
0.3503,1098
0.3519667,1214
0.3536333,1261
0.3553,1308
0.35695,1162
0.3586167,1425
0.3603,1588
0.36195,1452
0.3636333,1521
0.3653,2386
0.3669667,3124
0.3686333,3173
0.3703,2969
0.3719667,2830
0.3736333,2472
0.3753,2522
0.3769667,2364
0.3786167,2239
0.3803,2554
0.3819667,2497
0.3836333,1929
0.3853,1975
0.3869667,1693
0.3886333,1256
0.3903,1011
0.3919667,898
0.3936333,677
0.3952833,742
0.3969667,584
0.3986333,536
0.4003,450
0.4019667,509
0.4036333,514
0.4053,549
0.4069667,555
0.4086333,561
0.4103,575
0.4119667,589
0.4136333,648
0.4153,632
0.4169667,616
0.4186333,598
0.4203,579
0.4219667,591
0.4236333,604
0.4253,549
0.4269667,495
0.4286333,867
0.4303,832
0.4319667,837
0.4336333,716
0.4353,922
0.4369667,948
0.4386333,1004
0.4403,759
0.4419667,833
0.4436333,1011
0.4453,1047
0.4469667,1172
0.4486333,1233
0.4503,1283
0.4519667,1225
0.4536333,1212
0.4553,1243
0.4569667,1312
0.4586333,1262
0.4603,1212
0.4619667,1211
0.4636333,1207
0.4653,1395
0.4669667,1565
0.4686333,1543
0.4703,1178
0.4719667,1545
0.4736333,1391
0.4753,1276
0.4769667,1375
0.4786333,1420
0.4803,1602
0.4819667,1525
0.4836333,1234
0.4853,1279
0.4869667,1288
0.4886333,1209
0.4903,1130
0.4919667,1299
0.4936333,1179
0.4953,1183
0.4969667,1124
0.4986333,1125
0.5003,1063
0.5019667,1007
0.5036333,889
0.5053,924
0.5069667,1114
0.5086333,1125
0.5103,991
0.5119666,951
0.5136333,1083
0.5153,993
0.5169666,910
0.5186333,1073
0.5203,1015
0.5219667,958
0.5236334,941
0.5253,909
0.5269667,959
0.5286334,946
0.5303,1012
0.5319667,939
0.5336334,866
0.5353,1006
0.5369667,814
0.5386333,861
0.5403,1028
0.5419667,1061
0.5436333,1036
0.5453,1004
0.5469667,787
0.5486333,1013
0.5503,947
0.5519667,1025
0.5536333,964
0.5553,1025
0.5569667,996
0.5586333,831
0.5603,957
0.5619667,1093
0.5636333,1018
0.5653,953
0.5669667,895
0.5686333,1073
0.5703,1143
0.5719666,1080
0.5736333,708
0.5753,869
0.5769666,889
0.5786333,882
0.5803,1020
0.5819666,959
0.5836333,897
0.5853,941
0.5869667,875
0.5886334,880
0.5903,885
0.5919667,871
0.5936334,857
0.5953,948
0.5969667,985
0.5986333,932
0.6003,1013
0.6019667,1094
0.6036333,1086
0.6053,1056
0.6069667,992
0.6086333,1010
0.6103,1027
0.6119667,1003
0.6136333,1011
0.6153,1019
0.6169667,1031
0.6186333,1103
0.6203,1090
0.6219667,1002
0.6236333,1227
0.6253,1228
0.6269667,1155
0.6286333,900
0.6303,1263
0.6319667,1213
0.6336333,1176
0.6353,1100
0.6369666,1090
0.6386333,1081
0.6403,1083
0.6419666,1086
0.6436333,1140
0.6453,1193
0.6469667,1145
0.6486334,1098
0.6503,974
0.6519667,1020
0.6536334,1066
0.6553,1099
0.6569667,1131
0.6586334,1020
0.6603,1113
0.6619667,1108
0.6636333,1033
0.6653,759
0.6669667,955
0.6686333,1012
0.6703,1052
0.6719667,1050
0.6736333,1004
0.6753,881
0.6769667,861
0.6786333,841
0.6803,1023
0.6819667,984
0.6836333,945
0.6853,916
0.6869667,796
0.6886333,906
0.6903,919
0.6919667,960
0.6936333,920
0.6953,814
0.6969666,819
0.6986333,955
0.7003,1019
0.7019666,748
0.7036333,731
0.7053,957
0.7069666,899
0.7086333,966
0.7103,928
0.7119667,900
0.7136334,886
0.7153,871
0.7169667,895
0.7186334,919
0.7203,914
0.7219667,910
0.7236333,892
0.7253,875
0.7269667,881
0.7286333,886
0.7303,885
0.7319667,884
0.7336333,838
0.7353,728
0.7369667,975
0.7386333,974
0.7403,968
0.7419667,967
0.7436333,1030
0.7453,837
0.7469667,902
0.7486333,1056
0.7503,843
0.7519667,944
0.7536333,943
0.7553,952
0.7569667,980
0.7586333,1076
0.7603,685
0.7619666,1036
0.7636333,735
0.7653,800
0.7669666,895
0.7686333,759
0.7703,788
0.7719667,1093
0.7736334,1062
0.7753,773
0.7769667,934
0.7786334,965
0.7803,1041
0.7819667,826
0.7836334,990
0.7853,971
0.7869667,1026
0.7886333,868
0.7903,858
0.7919667,852
0.7936333,946
0.7953,981
0.7969667,1016
0.7986333,1017
0.8003,942
0.8019667,1011
0.8036333,982
0.8053,1020
0.8069667,924
0.8086333,875
0.8103,897
0.8119667,918
0.8136333,862
0.8153,806
0.8169667,1042
0.8186333,1002
0.8203,774
0.8219666,988
0.8236333,994
0.8253,830
0.8269666,828
0.8286333,1069
0.8303,1031
0.8319666,1034
0.8336333,795
0.8353,1033
0.8369667,891
0.8386334,886
0.8403,1000
0.8419667,901
0.8436334,799
0.8453,897
0.8469667,825
0.8486333,862
0.8503,872
0.8519667,863
0.8536333,816
0.8553,742
0.8569667,798
0.8586333,853
0.8603,837
0.8619667,1041
0.8636333,1013
0.8653,1059
0.8669667,1028
0.8686333,896
0.8703,982
0.8719667,975
0.8736333,748
0.8753,920
0.8769667,1102
0.8786333,1202
0.8803,1065
0.8819667,1230
0.8836333,1396
0.8853,1351
0.8869666,1745
0.8886333,1712
0.8903,1578
0.8919666,1604
0.8936333,1511
0.8953,1624
0.8969667,1572
0.8986334,1531
0.9003,1489
0.9019667,1400
0.9036334,1469
0.9053,1454
0.9069667,1447
0.9086334,1441
0.9103,1445
0.9119667,1449
0.9136333,1594
0.9153,1540
0.9169667,1485
0.9186333,1408
0.9203,1282
0.9219667,1303
0.9236333,1332
0.9253,1341
0.9269667,1351
0.9286333,1387
0.9303,1363
0.9319667,1338
0.9336333,1274
0.9353,1261
0.9369667,1250
0.9386333,1279
0.9403,1290
0.9419667,1301
0.9436333,1248
0.9453,1195
0.9469666,1246
0.9486333,1306
0.9503,1239
0.9519666,1173
0.9536333,1319
0.9553,1289
0.9569666,1226
0.9586333,1238
0.9603,1242
0.9619667,1182
0.9636334,1122
0.9653,1087
0.9669667,1020
0.9686334,952
0.9703,1101
0.9719667,1031
0.9736333,898
0.9753,1031
0.9769667,930
0.9786333,1032
0.9803,911
0.9819667,895
0.9836333,1008
0.9853,942
0.9869667,947
0.9886333,822
0.9903,889
0.9919667,846
0.9936333,885
0.9953,924
0.9969667,954
0.9986333,745
1.0003,867
1.001967,849
1.003633,758
1.0053,833
1.006967,829
1.008633,801
1.0103,772
1.011967,743
1.013633,809
1.0153,797
1.016967,784
1.018633,761
1.0203,811
1.021967,808
1.023633,806
1.0253,794
1.026967,783
1.028633,875
1.0303,872
1.031967,905
1.033633,938
1.0353,779
1.036967,971
1.038633,1015
1.0403,834
1.041967,940
1.043633,1025
1.0453,937
1.046967,849
1.048633,707
1.0503,960
1.051967,760
1.053633,746
1.0553,732
1.056967,768
1.058633,804
1.0603,804
1.061967,803
1.063633,863
1.0653,893
1.066967,870
1.068633,791
1.0703,764
1.071967,737
1.073633,762
1.0753,771
1.076967,780
1.078633,806
1.0803,748
1.081967,690
1.083633,924
1.0853,852
1.086967,928
1.088633,651
1.0903,956
1.091967,792
1.093633,701
1.0953,879
1.096967,797
1.098633,857
1.1003,917
1.101967,893
1.103633,746
1.1053,599
1.106967,785
1.108633,863
1.1103,828
1.111967,847
1.113633,866
1.1153,698
1.116967,846
1.118633,831
1.1203,815
1.121967,855
1.123633,847
1.1253,838
1.126967,843
1.128633,822
1.1303,800
1.131967,898
1.133633,904
1.1353,687
1.136967,825
1.138633,956
1.1403,926
1.141967,791
1.143633,992
1.1453,913
1.146967,980
1.148633,945
1.1503,891
1.151967,799
1.153633,791
1.1553,866
1.156967,811
1.158633,883
1.1603,888
1.161967,988
1.163633,711
1.1653,968
1.166967,648
1.168633,762
1.1703,857
1.171967,925
1.173633,744
1.1753,911
1.176967,776
1.178633,1003
1.1803,1095
1.181967,748
1.183633,820
1.1853,700
1.186967,735
1.188633,769
1.1903,842
1.191967,919
1.193633,917
1.1953,874
1.196967,831
1.198633,795
