"SampleName","A2Rd2_02-60"
"Target Mass 1",
"Column Name","IA-3 (3um, 4.6X100)"
"Channel","QDa 1: SIR Ch2"
0.00195,596
0.003616667,531
0.005283333,865
0.00695,722
0.008616666,813
0.01028333,717
0.01195,955
0.01361667,915
0.01528333,863
0.01695,934
0.01861667,905
0.02028333,665
0.02195,836
0.02361667,895
0.02528333,1008
0.02695,1012
0.02861667,895
0.03028333,853
0.03195,866
0.03361667,1061
0.03528333,1066
0.03695,1028
0.03861667,1008
0.04028333,1000
0.04195,968
0.04361667,936
0.04528333,917
0.04695,899
0.04861667,923
0.05028334,849
0.05195,845
0.05361667,840
0.05528333,885
0.05695,1142
0.05861667,1163
0.06028333,955
0.06195,1138
0.06361666,978
0.06528334,810
0.06695,903
0.06861667,935
0.07028333,977
0.07195,955
0.07361667,971
0.07528333,951
0.07695,870
0.07861666,1016
0.08028334,992
0.08195,972
0.08361667,953
0.08528333,916
0.08695,911
0.08861667,837
0.09028333,1059
0.09195,1019
0.09361666,1005
0.09528334,825
0.09695,882
0.09861667,1066
0.1002833,1015
0.10195,961
0.1036167,1019
0.1052833,1003
0.10695,849
0.1086167,784
0.1102833,857
0.11195,976
0.1136167,1040
0.1152833,857
0.11695,871
0.1186167,906
0.1202833,885
0.12195,864
0.1236167,865
0.1252833,865
0.12695,955
0.1286167,971
0.1302833,986
0.13195,1135
0.1336167,703
0.1352833,899
0.13695,708
0.1386167,917
0.1402833,948
0.14195,921
0.1436167,933
0.1452833,863
0.14695,871
0.1486167,932
0.1502833,1020
0.15195,1015
0.1536167,895
0.1552833,823
0.15695,926
0.1586167,893
0.1602833,929
0.16195,965
0.1636167,868
0.1652833,801
0.16695,961
0.1686167,858
0.1702833,830
0.17195,929
0.1736167,910
0.1752833,891
0.17695,805
0.1786167,989
0.1802833,934
0.18195,845
0.1836167,798
0.1852833,825
0.18695,850
0.1886167,875
0.1902833,836
0.19195,798
0.1936167,854
0.1952833,891
0.19695,1001
0.1986167,1016
0.2002833,1025
0.20195,1074
0.2036167,1137
0.2052833,761
0.20695,1062
0.2086167,824
0.2102833,1030
0.21195,1019
0.2136167,1078
0.2152833,969
0.21695,1157
0.2186167,862
0.2202833,1082
0.22195,1281
0.2236167,870
0.2252833,1080
0.22695,1060
0.2286167,1245
0.2302833,1105
0.23195,1050
0.2336167,1166
0.2352833,1131
0.23695,1097
0.2386167,1121
0.2402833,1153
0.24195,1140
0.2436167,1126
0.2452833,1334
0.24695,862
0.2486167,1428
0.2502833,1145
0.25195,1289
0.2536167,1457
0.2552833,1259
0.25695,1299
0.2586167,1153
0.2602833,1211
0.26195,1020
0.2636333,1312
0.2652833,894
0.26695,1225
0.2686167,1069
0.2702833,1078
0.27195,952
0.2736167,831
0.2752833,1119
0.2769667,720
0.2786167,1206
0.2803,1146
0.28195,1174
0.2836167,1119
0.2852833,887
0.28695,1097
0.2886167,923
0.2902833,1047
0.29195,1099
0.2936167,946
0.2952833,922
0.29695,1086
0.2986333,1027
0.3002833,885
0.30195,834
0.3036167,1250
0.3053,1133
0.30695,1022
0.3086167,1177
0.3102833,1054
0.31195,1322
0.3136333,1227
0.3153,1230
0.31695,1399
0.3186167,1349
0.3202833,1269
0.3219667,1267
0.3236167,1248
0.3252833,1289
0.3269667,1257
0.3286167,1224
0.3303,1307
0.33195,1143
0.3336333,1307
0.3352833,1279
0.3369667,1357
0.3386333,1340
0.3402833,1323
0.34195,1177
0.3436167,1230
0.3452833,1284
0.3469667,1399
0.3486167,1331
0.3503,1263
0.3519667,1187
0.3536167,1112
0.3553,1316
0.35695,1281
0.3586333,1414
0.3602833,1394
0.3619667,1370
0.3636333,1449
0.3653,2163
0.36695,3000
0.3686333,3487
0.3702833,3521
0.3719667,3823
0.3736167,3241
0.3753,3552
0.3769667,3823
0.3786333,3645
0.3803,4014
0.38195,4237
0.3836333,4187
0.3853,3251
0.3869667,2378
0.3886333,1696
0.3903,1520
0.3919667,1127
0.3936333,944
0.3952833,681
0.3969667,612
0.3986333,485
0.4003,590
0.40195,487
0.4036333,456
0.4053,540
0.4069667,598
0.4086333,554
0.4103,564
0.4119667,581
0.4136333,519
0.4153,400
0.4169667,596
0.4186333,724
0.4203,758
0.4219667,805
0.4236333,758
0.4253,696
0.4269667,650
0.4286333,614
0.4303,579
0.4319667,649
0.4336333,823
0.4353,842
0.4369667,771
0.4386333,701
0.4403,923
0.4419667,891
0.4436333,1024
0.4453,888
0.4469667,866
0.4486333,934
0.4503,983
0.4519667,1116
0.4536333,1042
0.4553,1010
0.4569667,1009
0.4586333,955
0.4603,1219
0.4619667,1195
0.4636333,1157
0.4653,1160
0.4669667,909
0.4686333,848
0.4703,878
0.4719667,1058
0.4736333,989
0.4753,921
0.4769667,1043
0.4786333,811
0.4803,1046
0.4819667,999
0.4836333,953
0.4853,1023
0.4869667,1012
0.4886333,972
0.4903,932
0.4919667,981
0.4936333,814
0.4953,992
0.4969667,642
0.4986333,1053
0.5003,845
0.5019667,807
0.5036333,801
0.5053,799
0.5069667,798
0.5086333,796
0.5103,793
0.5119666,791
0.5136333,869
0.5153,811
0.5169666,754
0.5186333,867
0.5203,981
0.5219667,941
0.5236334,905
0.5253,1143
0.5269667,1139
0.5286334,989
0.5303,1041
0.5319667,919
0.5336334,1024
0.5353,1004
0.5369667,1092
0.5386333,1026
0.5403,960
0.5419667,963
0.5436333,932
0.5453,964
0.5469667,943
0.5486333,922
0.5503,855
0.5519667,787
0.5536333,1035
0.5553,996
0.5569667,861
0.5586333,977
0.5603,863
0.5619667,868
0.5636333,892
0.5653,934
0.5669667,943
0.5686333,1020
0.5703,769
0.5719666,861
0.5736333,809
0.5753,806
0.5769666,931
0.5786333,898
0.5803,865
0.5819666,860
0.5836333,773
0.5853,805
0.5869667,836
0.5886334,921
0.5903,888
0.5919667,946
0.5936334,797
0.5953,970
0.5969667,880
0.5986333,965
0.6003,947
0.6019667,883
0.6036333,924
0.6053,958
0.6069667,891
0.6086333,795
0.6103,806
0.6119667,771
0.6136333,708
0.6153,873
0.6169667,942
0.6186333,1044
0.6203,750
0.6219667,581
0.6236333,814
0.6253,739
0.6269667,837
0.6286333,902
0.6303,967
0.6319667,908
0.6336333,972
0.6353,850
0.6369666,868
0.6386333,994
0.6403,1023
0.6419666,848
0.6436333,800
0.6453,1053
0.6469667,762
0.6486334,866
0.6503,688
0.6519667,786
0.6536334,797
0.6553,834
0.6569667,816
0.6586334,798
0.6603,737
0.6619667,780
0.6636333,879
0.6653,888
0.6669667,670
0.6686333,939
0.6703,723
0.6719667,972
0.6736333,633
0.6753,953
0.6769667,883
0.6786333,693
0.6803,965
0.6819667,724
0.6836333,864
0.6853,573
0.6869667,760
0.6886333,867
0.6903,721
0.6919667,860
0.6936333,724
0.6953,874
0.6969666,752
0.6986333,763
0.7003,823
0.7019666,799
0.7036333,776
0.7053,810
0.7069666,843
0.7086333,826
0.7103,696
0.7119667,869
0.7136334,905
0.7153,855
0.7169667,764
0.7186334,674
0.7203,882
0.7219667,725
0.7236333,942
0.7253,930
0.7269667,799
0.7286333,867
0.7303,892
0.7319667,815
0.7336333,739
0.7353,761
0.7369667,868
0.7386333,934
0.7403,998
0.7419667,958
0.7436333,880
0.7453,753
0.7469667,848
0.7486333,904
0.7503,940
0.7519667,826
0.7536333,752
0.7553,591
0.7569667,998
0.7586333,876
0.7603,797
0.7619666,788
0.7636333,819
0.7653,807
0.7669666,794
0.7686333,761
0.7703,807
0.7719667,807
0.7736334,806
0.7753,880
0.7769667,905
0.7786334,774
0.7803,772
0.7819667,564
0.7836334,938
0.7853,941
0.7869667,821
0.7886333,981
0.7903,721
0.7919667,832
0.7936333,868
0.7953,945
0.7969667,978
0.7986333,1009
0.8003,810
0.8019667,799
0.8036333,896
0.8053,844
0.8069667,901
0.8086333,919
0.8103,906
0.8119667,758
0.8136333,980
0.8153,906
0.8169667,937
0.8186333,635
0.8203,907
0.8219666,951
0.8236333,1007
0.8253,1010
0.8269666,898
0.8286333,781
0.8303,898
0.8319666,957
0.8336333,803
0.8353,912
0.8369667,859
0.8386334,888
0.8403,864
0.8419667,841
0.8436334,822
0.8453,755
0.8469667,837
0.8486333,831
0.8503,824
0.8519667,840
0.8536333,831
0.8553,823
0.8569667,852
0.8586333,882
0.8603,867
0.8619667,853
0.8636333,921
0.8653,849
0.8669667,778
0.8686333,855
0.8703,914
0.8719667,884
0.8736333,663
0.8753,891
0.8769667,953
0.8786333,1302
0.8803,1281
0.8819667,1252
0.8836333,1006
0.8853,1026
0.8869666,1233
0.8886333,1247
0.8903,1226
0.8919666,1240
0.8936333,1253
0.8953,1187
0.8969667,1120
0.8986334,1109
0.9003,1097
0.9019667,1081
0.9036334,1080
0.9053,1079
0.9069667,1228
0.9086334,1377
0.9103,1275
0.9119667,1267
0.9136333,1320
0.9153,1384
0.9169667,1449
0.9186333,1167
0.9203,1410
0.9219667,1220
0.9236333,1328
0.9253,1306
0.9269667,1384
0.9286333,1352
0.9303,1321
0.9319667,1341
0.9336333,1396
0.9353,1380
0.9369667,1364
0.9386333,1074
0.9403,1208
0.9419667,1414
0.9436333,1116
0.9453,1288
0.9469666,1190
0.9486333,1074
0.9503,1248
0.9519666,1116
0.9536333,1417
0.9553,1360
0.9569666,1238
0.9586333,1316
0.9603,1179
0.9619667,1045
0.9636334,1177
0.9653,1022
0.9669667,1041
0.9686334,1013
0.9703,1038
0.9719667,1064
0.9736333,951
0.9753,858
0.9769667,963
0.9786333,1039
0.9803,983
0.9819667,838
0.9836333,863
0.9853,874
0.9869667,816
0.9886333,780
0.9903,856
0.9919667,726
0.9936333,714
0.9953,833
0.9969667,832
0.9986333,880
1.0003,675
1.001967,812
1.003633,798
1.0053,841
1.006967,724
1.008633,863
1.0103,750
1.011967,888
1.013633,845
1.0153,801
1.016967,898
1.018633,859
1.0203,810
1.021967,873
1.023633,661
1.0253,863
1.026967,955
1.028633,988
1.0303,928
1.031967,845
1.033633,930
1.0353,892
1.036967,916
1.038633,880
1.0403,819
1.041967,851
1.043633,875
1.0453,814
1.046967,901
1.048633,867
1.0503,900
1.051967,741
1.053633,907
1.0553,914
1.056967,1010
1.058633,842
1.0603,881
1.061967,969
1.063633,1052
1.0653,738
1.066967,805
1.068633,914
1.0703,971
1.071967,780
1.073633,862
1.0753,900
1.076967,991
1.078633,927
1.0803,864
1.081967,976
1.083633,927
1.0853,879
1.086967,780
1.088633,931
1.0903,869
1.091967,875
1.093633,722
1.0953,795
1.096967,858
1.098633,851
1.1003,903
1.101967,864
1.103633,902
1.1053,878
1.106967,855
1.108633,889
1.1103,853
1.111967,816
1.113633,780
1.1153,758
1.116967,879
1.118633,925
1.1203,865
1.121967,824
1.123633,782
1.1253,855
1.126967,702
1.128633,924
1.1303,829
1.131967,948
1.133633,988
1.1353,1005
1.136967,857
1.138633,1014
1.1403,939
1.141967,961
1.143633,862
1.1453,971
1.146967,888
1.148633,990
1.1503,878
1.151967,855
1.153633,967
1.1553,964
1.156967,946
1.158633,949
1.1603,867
1.161967,947
1.163633,798
1.1653,794
1.166967,882
1.168633,934
1.1703,1004
1.171967,895
1.173633,851
1.1753,833
1.176967,906
1.178633,874
1.1803,842
1.181967,805
1.183633,769
1.1853,731
1.186967,770
1.188633,764
1.1903,758
1.191967,904
1.193633,876
1.1953,848
1.196967,819
1.198633,823
