"SampleName","A2Rd2_02-49"
"Target Mass 1",
"Column Name","IA-3 (3um, 4.6X100)"
"Channel","QDa 1: SIR Ch1"
0.00195,412
0.003616667,523
0.005283333,529
0.00695,521
0.008616666,512
0.01028333,658
0.01195,629
0.01361667,629
0.01528333,658
0.01695,634
0.01861667,611
0.02028333,506
0.02195,651
0.02361667,514
0.02528333,498
0.02695,483
0.02861667,564
0.03028333,578
0.03195,523
0.03361667,595
0.03528333,594
0.03695,594
0.03861667,585
0.04028333,563
0.04195,601
0.04361667,599
0.04528333,597
0.04695,575
0.04861667,563
0.05028334,552
0.05195,570
0.05361667,598
0.05528333,511
0.05695,544
0.05861667,626
0.06028333,575
0.06195,523
0.06361666,512
0.06528334,500
0.06695,604
0.06861667,545
0.07028333,485
0.07195,458
0.07361667,544
0.07528333,541
0.07695,567
0.07861666,593
0.08028334,607
0.08195,353
0.08361667,455
0.08528333,490
0.08695,493
0.08861667,630
0.09028333,638
0.09195,538
0.09361666,518
0.09528334,596
0.09695,644
0.09861667,608
0.1002833,464
0.10195,550
0.1036167,475
0.1052833,523
0.10695,571
0.1086167,502
0.1102833,498
0.11195,625
0.1136167,606
0.1152833,570
0.11695,455
0.1186167,479
0.1202833,492
0.12195,514
0.1236167,516
0.1252833,517
0.12695,514
0.1286167,512
0.1302833,637
0.13195,724
0.1336167,737
0.1352833,514
0.13695,715
0.1386167,581
0.1402833,620
0.14195,581
0.1436167,465
0.1452833,594
0.14695,574
0.1486167,477
0.1502833,542
0.15195,607
0.1536167,569
0.1552833,588
0.15695,518
0.1586167,453
0.1602833,515
0.16195,506
0.1636167,497
0.1652833,571
0.16695,554
0.1686167,484
0.1702833,509
0.17195,534
0.1736167,492
0.1752833,613
0.17695,623
0.1786167,512
0.1802833,712
0.18195,396
0.1836167,506
0.1852833,543
0.18695,540
0.1886167,441
0.1902833,505
0.19195,435
0.1936167,448
0.1952833,441
0.19695,447
0.1986167,569
0.2002833,587
0.20195,526
0.2036167,554
0.2052833,598
0.20695,549
0.2086167,601
0.2103,648
0.21195,512
0.2136167,543
0.2152833,598
0.21695,441
0.2186167,469
0.2202833,542
0.22195,492
0.2236167,442
0.2252833,571
0.22695,569
0.2286333,513
0.2302833,558
0.23195,450
0.2336167,552
0.2352833,547
0.2369667,552
0.2386167,560
0.2402833,568
0.2419667,417
0.2436167,413
0.2453,555
0.24695,510
0.2486167,555
0.2502833,598
0.25195,462
0.2536167,518
0.2552833,585
0.25695,540
0.2586167,539
0.2602833,538
0.26195,509
0.2636333,498
0.2652833,504
0.26695,470
0.2686333,435
0.2702833,487
0.27195,441
0.2736167,395
0.2752833,380
0.27695,364
0.2786167,725
0.2803,650
0.2819667,606
0.2836333,541
0.2853,607
0.2869667,629
0.2886333,715
0.2903,675
0.2919667,638
0.2936333,526
0.2953,684
0.2969667,523
0.2986333,540
0.3003,474
0.3019667,520
0.3036333,566
0.3053,655
0.3069667,626
0.3086333,576
0.3103,525
0.3119667,527
0.3136333,529
0.3153,412
0.3169667,611
0.3186333,516
0.3203,462
0.3219667,574
0.3236333,565
0.3253,597
0.3269667,528
0.3286333,550
0.3303,485
0.3319667,420
0.3336333,461
0.3353,494
0.3369667,501
0.3386333,533
0.3403,565
0.3419667,540
0.3436333,446
0.3453,595
0.3469667,513
0.3486333,368
0.3503,586
0.3519667,564
0.3536333,511
0.3553,503
0.3569667,626
0.3586333,716
0.3603,664
0.3619667,715
0.3636333,718
0.3653,1294
0.3669667,1862
0.3686333,2834
0.3703,4085
0.3719667,4188
0.3736333,4407
0.3753,4977
0.3769667,5038
0.3786333,5481
0.3803,6070
0.3819667,5999
0.3836333,5580
0.3853,4951
0.3869667,4283
0.3886333,3287
0.3903,2926
0.3919667,2434
0.3936333,1897
0.3953,1572
0.3969667,1427
0.3986333,1108
0.4003,1214
0.4019667,1060
0.4036333,1161
0.4053,1157
0.4069667,957
0.4086333,1038
0.4103,1119
0.4119667,921
0.4136333,1198
0.4153,1185
0.4169667,1256
0.4186333,1265
0.4203,1274
0.4219667,1213
0.4236333,1248
0.4253,1283
0.4269667,1568
0.4286333,1537
0.4303,1235
0.4319667,1652
0.4336333,2373
0.4353,2730
0.4369667,4381
0.4386333,6193
0.4403,9320
0.4419667,15888
0.4436333,23840
0.4453,33968
0.4469667,45472
0.4486333,60432
0.4503,74672
0.4519667,87936
0.4536333,103312
0.4553,115584
0.4569667,124816
0.4586333,135168
0.4603,136128
0.4619667,140864
0.4636333,144192
0.4653,149760
0.4669667,148480
0.4686333,157120
0.4703,159296
0.4719667,168704
0.4736333,177728
0.4753,186816
0.4769667,189312
0.4786333,192192
0.4803,188864
0.4819667,186304
0.4836333,175872
0.4853,160384
0.4869667,142912
0.4886333,127680
0.4903,107488
0.4919667,92368
0.4936333,75888
0.4953,65360
0.4969667,52368
0.4986333,41952
0.5003,34304
0.5019667,28308
0.5036333,22152
0.5053,17868
0.5069667,13900
0.5086333,12904
0.5103,10432
0.5119666,8824
0.5136333,7368
0.5153,6616
0.5169666,5539
0.5186333,4391
0.5203,4764
0.5219667,4171
0.5236334,4086
0.5253,3858
0.5269667,3684
0.5286334,3479
0.5303,2731
0.5319667,2990
0.5336334,3249
0.5353,3434
0.5369667,2514
0.5386333,2963
0.5403,2561
0.5419667,2461
0.5436333,2226
0.5453,2036
0.5469667,2274
0.5486333,2362
0.5503,2179
0.5519667,2255
0.5536333,1925
0.5553,1648
0.5569667,1900
0.5586333,1715
0.5603,1785
0.5619667,1827
0.5636333,1573
0.5653,1318
0.5669667,1572
0.5686333,1710
0.5703,1458
0.5719666,1586
0.5736333,1411
0.5753,1461
0.5769666,1308
0.5786333,1135
0.5803,1502
0.5819666,1232
0.5836333,1370
0.5853,1049
0.5869667,1052
0.5886334,1337
0.5903,1257
0.5919667,1190
0.5936334,1338
0.5953,1287
0.5969667,1334
0.5986333,1382
0.6003,1148
0.6019667,1326
0.6036333,1189
0.6053,1227
0.6069667,1262
0.6086333,1276
0.6103,1251
0.6119667,1155
0.6136333,1350
0.6153,1264
0.6169667,1269
0.6186333,1180
0.6203,1135
0.6219667,1076
0.6236333,958
0.6253,1191
0.6269667,1183
0.6286333,1176
0.6303,1105
0.6319667,931
0.6336333,1141
0.6353,1010
0.6369666,1168
0.6386333,887
0.6403,907
0.6419666,947
0.6436333,819
0.6453,815
0.6469667,928
0.6486334,836
0.6503,868
0.6519667,901
0.6536334,835
0.6553,769
0.6569667,725
0.6586334,894
0.6603,909
0.6619667,937
0.6636333,920
0.6653,874
0.6669667,976
0.6686333,803
0.6703,905
0.6719667,836
0.6736333,883
0.6753,882
0.6769667,850
0.6786333,782
0.6803,918
0.6819667,718
0.6836333,728
0.6853,863
0.6869667,829
0.6886333,865
0.6903,831
0.6919667,761
0.6936333,847
0.6953,649
0.6969666,734
0.6986333,633
0.7003,585
0.7019666,707
0.7036333,623
0.7053,729
0.7069666,686
0.7086333,643
0.7103,682
0.7119667,721
0.7136334,533
0.7153,653
0.7169667,675
0.7186334,642
0.7203,653
0.7219667,664
0.7236333,631
0.7253,597
0.7269667,762
0.7286333,726
0.7303,780
0.7319667,707
0.7336333,667
0.7353,720
0.7369667,696
0.7386333,651
0.7403,706
0.7419667,713
0.7436333,721
0.7453,736
0.7469667,634
0.7486333,705
0.7503,667
0.7519667,573
0.7536333,616
0.7553,652
0.7569667,594
0.7586333,548
0.7603,678
0.7619666,715
0.7636333,734
0.7653,667
0.7669666,526
0.7686333,618
0.7703,628
0.7719667,638
0.7736334,693
0.7753,690
0.7769667,687
0.7786334,683
0.7803,713
0.7819667,653
0.7836334,592
0.7853,592
0.7869667,591
0.7886333,603
0.7903,538
0.7919667,541
0.7936333,544
0.7953,597
0.7969667,577
0.7986333,556
0.8003,559
0.8019667,588
0.8036333,616
0.8053,606
0.8069667,597
0.8086333,705
0.8103,755
0.8119667,694
0.8136333,600
0.8153,775
0.8169667,572
0.8186333,567
0.8203,584
0.8219666,591
0.8236333,598
0.8253,514
0.8269666,643
0.8286333,605
0.8303,578
0.8319666,625
0.8336333,474
0.8353,577
0.8369667,551
0.8386334,558
0.8403,602
0.8419667,611
0.8436334,619
0.8453,624
0.8469667,540
0.8486333,660
0.8503,652
0.8519667,645
0.8536333,619
0.8553,710
0.8569667,739
0.8586333,545
0.8603,574
0.8619667,632
0.8636333,584
0.8653,566
0.8669667,540
0.8686333,558
0.8703,497
0.8719667,608
0.8736333,586
0.8753,705
0.8769667,830
0.8786333,953
0.8803,1053
0.8819667,1316
0.8836333,1173
0.8853,1634
0.8869666,1553
0.8886333,1748
0.8903,1642
0.8919666,1536
0.8936333,1717
0.8953,1965
0.8969667,1950
0.8986334,1940
0.9003,1970
0.9019667,2000
0.9036334,1646
0.9053,1957
0.9069667,1985
0.9086334,1980
0.9103,2116
0.9119667,2067
0.9136333,2018
0.9153,1921
0.9169667,1987
0.9186333,1907
0.9203,1880
0.9219667,1853
0.9236333,1921
0.9253,1899
0.9269667,1790
0.9286333,1883
0.9303,1962
0.9319667,2035
0.9336333,1648
0.9353,1938
0.9369667,1755
0.9386333,1813
0.9403,1838
0.9419667,1557
0.9436333,1572
0.9453,1766
0.9469666,1800
0.9486333,1386
0.9503,1497
0.9519666,1475
0.9536333,1518
0.9553,1356
0.9569666,1416
0.9586333,1393
0.9603,1085
0.9619667,1262
0.9636334,1110
0.9653,1100
0.9669667,1177
0.9686334,1058
0.9703,1017
0.9719667,839
0.9736333,821
0.9753,702
0.9769667,709
0.9786333,727
0.9803,716
0.9819667,706
0.9836333,606
0.9853,696
0.9869667,690
0.9886333,582
0.9903,629
0.9919667,530
0.9936333,576
0.9953,615
0.9969667,526
0.9986333,501
1.0003,523
1.001967,484
1.003633,472
1.0053,518
1.006967,504
1.008633,490
1.0103,448
1.011967,532
1.013633,499
1.0153,486
1.016967,485
1.018633,485
1.0203,470
1.021967,413
1.023633,513
1.0253,388
1.026967,495
1.028633,446
1.0303,465
1.031967,486
1.033633,480
1.0353,510
1.036967,502
1.038633,493
1.0403,440
1.041967,493
1.043633,548
1.0453,581
1.046967,446
1.048633,540
1.0503,519
1.051967,612
1.053633,548
1.0553,588
1.056967,394
1.058633,422
1.0603,547
1.061967,501
1.063633,447
1.0653,548
1.066967,425
1.068633,456
1.0703,387
1.071967,569
1.073633,566
1.0753,574
1.076967,482
1.078633,564
1.0803,532
1.081967,393
1.083633,566
1.0853,522
1.086967,532
1.088633,600
1.0903,441
1.091967,650
1.093633,513
1.0953,642
1.096967,440
1.098633,572
1.1003,538
1.101967,573
1.103633,378
1.1053,485
1.106967,582
1.108633,480
1.1103,601
1.111967,447
1.113633,625
1.1153,317
1.116967,539
1.118633,551
1.1203,641
1.121967,580
1.123633,568
1.1253,631
1.126967,403
1.128633,456
1.1303,547
1.131967,431
1.133633,413
1.1353,423
1.136967,442
1.138633,511
1.1403,490
1.141967,469
1.143633,504
1.1453,540
1.146967,545
1.148633,550
1.1503,450
1.151967,456
1.153633,563
1.1553,550
1.156967,501
1.158633,472
1.1603,490
1.161967,508
1.163633,511
1.1653,514
1.166967,606
1.168633,554
1.1703,502
1.171967,568
1.173633,559
1.1753,550
1.176967,499
1.178633,511
1.1803,523
1.181967,511
1.183633,544
1.1853,421
1.186967,540
1.188633,490
1.1903,440
1.191967,347
1.193633,684
1.1953,592
1.196967,568
1.198633,586
