"SampleName","A2Rd2_02-18"
"Target Mass 1",
"Column Name","IA-3 (3um, 4.6X100)"
"Channel","QDa 1: SIR Ch2"
0.00195,474
0.003616667,596
0.005283333,550
0.00695,651
0.008616666,850
0.01028333,810
0.01195,865
0.01361667,919
0.01528333,905
0.01695,891
0.01861667,924
0.02028333,959
0.02195,995
0.02361667,800
0.02528333,1104
0.02695,1036
0.02861667,888
0.03028333,1088
0.03195,965
0.03361667,916
0.03528333,991
0.03695,1005
0.03861667,1020
0.04028333,766
0.04195,1010
0.04361667,1128
0.04528333,1086
0.04695,910
0.04861667,825
0.05028334,846
0.05195,931
0.05361667,902
0.05528333,873
0.05695,861
0.05861667,849
0.06028333,887
0.06195,926
0.06361666,956
0.06528334,1066
0.06695,1059
0.06861667,1052
0.07028333,807
0.07195,927
0.07361667,950
0.07528333,883
0.07695,994
0.07861666,962
0.08028334,754
0.08195,937
0.08361667,969
0.08528333,1042
0.08695,854
0.08861667,709
0.09028333,823
0.09195,790
0.09361666,996
0.09528334,985
0.09695,941
0.09861667,920
0.1002833,1041
0.10195,777
0.1036167,910
0.1052833,847
0.10695,951
0.1086167,840
0.1102833,1017
0.11195,1038
0.1136167,913
0.1152833,953
0.11695,886
0.1186167,991
0.1202833,993
0.12195,913
0.1236167,968
0.1252833,790
0.12695,761
0.1286167,808
0.1302833,839
0.13195,870
0.1336167,781
0.1352833,901
0.13695,922
0.1386167,838
0.1402833,767
0.14195,898
0.1436167,806
0.1452833,816
0.14695,826
0.1486167,964
0.1502833,1020
0.15195,1106
0.1536167,863
0.1552833,933
0.15695,912
0.1586167,919
0.1602833,788
0.16195,1059
0.1636167,1013
0.1652833,916
0.16695,900
0.1686167,805
0.1702833,939
0.17195,916
0.1736167,892
0.1752833,938
0.17695,760
0.1786167,687
0.1802833,898
0.18195,1018
0.1836167,909
0.1852833,901
0.18695,878
0.1886167,812
0.1902833,820
0.19195,746
0.1936167,957
0.1952833,988
0.19695,865
0.1986167,892
0.2002833,865
0.20195,837
0.2036167,905
0.2052833,974
0.20695,1017
0.2086167,1119
0.2102833,1135
0.21195,1010
0.2136167,847
0.2152833,975
0.21695,1002
0.2186167,1107
0.2202833,1075
0.22195,1043
0.2236167,1101
0.2252833,1083
0.22695,1066
0.2286167,1084
0.2302833,1084
0.23195,1084
0.2336167,1062
0.2352833,1140
0.23695,1121
0.2386167,1131
0.2402833,1141
0.24195,1152
0.2436167,999
0.2452833,1316
0.24695,1268
0.2486167,1204
0.2502833,1068
0.25195,1082
0.2536167,1195
0.2552833,1133
0.25695,1142
0.2586167,1151
0.2602833,1110
0.26195,1106
0.2636333,1102
0.2652833,1035
0.26695,968
0.2686167,948
0.2702833,926
0.27195,983
0.2736167,1040
0.2752833,976
0.27695,912
0.2786333,954
0.2803,1102
0.28195,1102
0.2836167,901
0.2852833,942
0.28695,1027
0.2886167,909
0.2902833,985
0.29195,1061
0.2936167,1031
0.2952833,765
0.29695,1196
0.2986333,1044
0.3002833,1006
0.30195,1169
0.3036167,1096
0.3052833,1126
0.30695,1279
0.3086167,1272
0.3102833,1265
0.31195,1153
0.3136167,1082
0.3153,1193
0.31695,1174
0.3186167,1154
0.3202833,1149
0.32195,1231
0.3236167,1216
0.3252833,960
0.32695,1211
0.3286167,1014
0.3303,1184
0.3319667,1171
0.3336333,1143
0.3353,1115
0.3369667,1261
0.3386333,1271
0.3402833,1280
0.34195,1237
0.3436167,1194
0.3453,1579
0.3469667,1597
0.3486333,1268
0.3503,1335
0.3519667,1285
0.3536167,1313
0.3553,1394
0.35695,1355
0.3586333,1317
0.3602833,1343
0.3619667,1362
0.3636333,1387
0.3653,2000
0.36695,3313
0.3686333,3151
0.3702833,3665
0.3719667,3893
0.3736167,3670
0.3753,3411
0.3769667,3573
0.3786333,3439
0.3803,3634
0.3819667,3086
0.3836167,2340
0.3853,2071
0.3869667,1590
0.3886333,1526
0.3903,1126
0.3919667,1034
0.3936333,531
0.3953,663
0.3969667,493
0.3986333,513
0.4003,533
0.4019667,453
0.4036333,541
0.4053,610
0.4069667,661
0.4086333,647
0.4103,588
0.4119667,684
0.4136333,659
0.4153,765
0.4169667,728
0.4186333,707
0.4203,739
0.4219667,689
0.4236333,639
0.4253,705
0.4269667,673
0.4286333,642
0.4303,713
0.4319667,784
0.4336333,959
0.4353,866
0.4369667,879
0.4386333,890
0.4403,901
0.4419667,998
0.4436333,1095
0.4453,1062
0.4469667,1112
0.4486333,1132
0.4503,1152
0.4519667,1117
0.4536333,1399
0.4553,1368
0.4569667,1418
0.4586333,1242
0.4603,1220
0.4619667,1354
0.4636333,1344
0.4653,1336
0.4669667,1519
0.4686333,1535
0.4703,1244
0.4719667,1497
0.4736333,1441
0.4753,1379
0.4769667,1574
0.4786333,1611
0.4803,1247
0.4819667,1372
0.4836333,1198
0.4853,1096
0.4869667,1331
0.4886333,1234
0.4903,1137
0.4919667,1134
0.4936333,1172
0.4953,1080
0.4969667,1054
0.4986333,1029
0.5003,1110
0.5019667,1063
0.5036333,1016
0.5053,1247
0.5069667,1190
0.5086333,1030
0.5103,945
0.5119666,1060
0.5136333,986
0.5153,912
0.5169666,897
0.5186333,977
0.5203,863
0.5219667,1067
0.5236334,1061
0.5253,900
0.5269667,1141
0.5286334,925
0.5303,984
0.5319667,1016
0.5336334,1077
0.5353,859
0.5369667,873
0.5386333,987
0.5403,930
0.5419667,924
0.5436333,947
0.5453,970
0.5469667,1008
0.5486333,1038
0.5503,1006
0.5519667,1002
0.5536333,848
0.5553,1032
0.5569667,942
0.5586333,722
0.5603,935
0.5619667,929
0.5636333,1041
0.5653,999
0.5669667,917
0.5686333,1066
0.5703,768
0.5719666,952
0.5736333,890
0.5753,969
0.5769666,914
0.5786333,995
0.5803,981
0.5819666,968
0.5836333,829
0.5853,1082
0.5869667,1001
0.5886334,919
0.5903,974
0.5919667,1028
0.5936334,1019
0.5953,870
0.5969667,1049
0.5986333,826
0.6003,951
0.6019667,917
0.6036333,881
0.6053,931
0.6069667,980
0.6086333,998
0.6103,886
0.6119667,1095
0.6136333,1029
0.6153,963
0.6169667,916
0.6186333,889
0.6203,824
0.6219667,870
0.6236333,891
0.6253,871
0.6269667,851
0.6286333,886
0.6303,761
0.6319667,911
0.6336333,1031
0.6353,953
0.6369666,892
0.6386333,1085
0.6403,964
0.6419666,891
0.6436333,788
0.6453,794
0.6469667,890
0.6486334,947
0.6503,986
0.6519667,724
0.6536334,914
0.6553,893
0.6569667,774
0.6586334,872
0.6603,852
0.6619667,909
0.6636333,965
0.6653,777
0.6669667,895
0.6686333,881
0.6703,949
0.6719667,997
0.6736333,986
0.6753,976
0.6769667,822
0.6786333,798
0.6803,850
0.6819667,883
0.6836333,874
0.6853,918
0.6869667,815
0.6886333,799
0.6903,801
0.6919667,1011
0.6936333,994
0.6953,717
0.6969666,880
0.6986333,880
0.7003,898
0.7019666,915
0.7036333,723
0.7053,927
0.7069666,785
0.7086333,699
0.7103,702
0.7119667,805
0.7136334,923
0.7153,973
0.7169667,715
0.7186334,691
0.7203,950
0.7219667,907
0.7236333,742
0.7253,814
0.7269667,977
0.7286333,1091
0.7303,938
0.7319667,958
0.7336333,853
0.7353,874
0.7369667,937
0.7386333,852
0.7403,876
0.7419667,901
0.7436333,678
0.7453,598
0.7469667,777
0.7486333,970
0.7503,1035
0.7519667,765
0.7536333,791
0.7553,742
0.7569667,856
0.7586333,856
0.7603,875
0.7619666,893
0.7636333,911
0.7653,909
0.7669666,907
0.7686333,846
0.7703,785
0.7719667,865
0.7736334,868
0.7753,931
0.7769667,650
0.7786334,797
0.7803,871
0.7819667,867
0.7836334,951
0.7853,985
0.7869667,998
0.7886333,659
0.7903,827
0.7919667,809
0.7936333,822
0.7953,884
0.7969667,874
0.7986333,843
0.8003,811
0.8019667,839
0.8036333,661
0.8053,990
0.8069667,917
0.8086333,859
0.8103,861
0.8119667,817
0.8136333,774
0.8153,881
0.8169667,774
0.8186333,864
0.8203,840
0.8219666,913
0.8236333,950
0.8253,724
0.8269666,903
0.8286333,758
0.8303,800
0.8319666,932
0.8336333,939
0.8353,936
0.8369667,797
0.8386334,869
0.8403,888
0.8419667,803
0.8436334,871
0.8453,954
0.8469667,893
0.8486333,696
0.8503,1047
0.8519667,652
0.8536333,939
0.8553,770
0.8569667,865
0.8586333,972
0.8603,821
0.8619667,887
0.8636333,970
0.8653,790
0.8669667,730
0.8686333,843
0.8703,851
0.8719667,838
0.8736333,800
0.8753,902
0.8769667,687
0.8786333,947
0.8803,859
0.8819667,770
0.8836333,1062
0.8853,1296
0.8869666,1222
0.8886333,1208
0.8903,1130
0.8919666,1106
0.8936333,1193
0.8953,1120
0.8969667,1046
0.8986334,1274
0.9003,1327
0.9019667,1215
0.9036334,1162
0.9053,1159
0.9069667,1138
0.9086334,1118
0.9103,1196
0.9119667,1220
0.9136333,1354
0.9153,1299
0.9169667,1234
0.9186333,1295
0.9203,1275
0.9219667,1276
0.9236333,1111
0.9253,1259
0.9269667,1305
0.9286333,1252
0.9303,1318
0.9319667,1187
0.9336333,1265
0.9353,1210
0.9369667,1146
0.9386333,1081
0.9403,1120
0.9419667,1181
0.9436333,1118
0.9453,1054
0.9469666,1151
0.9486333,1069
0.9503,962
0.9519666,1237
0.9536333,1100
0.9553,1105
0.9569666,1307
0.9586333,1027
0.9603,977
0.9619667,1159
0.9636334,914
0.9653,1087
0.9669667,1153
0.9686334,1008
0.9703,802
0.9719667,955
0.9736333,929
0.9753,924
0.9769667,804
0.9786333,1001
0.9803,855
0.9819667,948
0.9836333,715
0.9853,1012
0.9869667,958
0.9886333,726
0.9903,872
0.9919667,887
0.9936333,800
0.9953,867
0.9969667,905
0.9986333,816
1.0003,909
1.001967,786
1.003633,737
1.0053,708
1.006967,787
1.008633,865
1.0103,895
1.011967,896
1.013633,801
1.0153,721
1.016967,944
1.018633,1056
1.0203,908
1.021967,815
1.023633,961
1.0253,844
1.026967,895
1.028633,946
1.0303,760
1.031967,876
1.033633,875
1.0353,873
1.036967,710
1.038633,787
1.0403,865
1.041967,709
1.043633,763
1.0453,817
1.046967,926
1.048633,912
1.0503,830
1.051967,1041
1.053633,695
1.0553,880
1.056967,1023
1.058633,698
1.0603,911
1.061967,845
1.063633,713
1.0653,761
1.066967,874
1.068633,798
1.0703,849
1.071967,900
1.073633,705
1.0753,856
1.076967,716
1.078633,995
1.0803,942
1.081967,715
1.083633,915
1.0853,998
1.086967,917
1.088633,1054
1.0903,805
1.091967,716
1.093633,843
1.0953,809
1.096967,774
1.098633,823
1.1003,783
1.101967,743
1.103633,788
1.1053,834
1.106967,833
1.108633,833
1.1103,746
1.111967,800
1.113633,812
1.1153,778
1.116967,725
1.118633,706
1.1203,688
1.121967,790
1.123633,804
1.1253,819
1.126967,836
1.128633,853
1.1303,1000
1.131967,963
1.133633,801
1.1353,869
1.136967,851
1.138633,903
1.1403,782
1.141967,807
1.143633,846
1.1453,853
1.146967,796
1.148633,740
1.1503,808
1.151967,842
1.153633,676
1.1553,902
1.156967,987
1.158633,803
1.1603,719
1.161967,1025
1.163633,829
1.1653,766
1.166967,793
1.168633,957
1.1703,989
1.171967,1012
1.173633,819
1.1753,913
1.176967,793
1.178633,872
1.1803,961
1.181967,870
1.183633,978
1.1853,902
1.186967,928
1.188633,760
1.1903,745
1.191967,871
1.193633,775
1.1953,825
1.196967,886
1.198633,871
