"SampleName","A2Rd2_02-45"
"Target Mass 1",
"Column Name","IA-3 (3um, 4.6X100)"
"Channel","QDa 1: SIR Ch2"
0.00195,459
0.003616667,622
0.005283333,706
0.00695,804
0.008616666,1001
0.01028333,1035
0.01195,945
0.01361667,1088
0.01528333,915
0.01695,976
0.01861667,967
0.02028333,919
0.02195,871
0.02361667,945
0.02528333,914
0.02695,918
0.02861667,970
0.03028333,958
0.03195,947
0.03361667,910
0.03528333,874
0.03695,895
0.03861667,877
0.04028333,860
0.04195,932
0.04361667,934
0.04528333,937
0.04695,926
0.04861667,916
0.05028334,1068
0.05195,1059
0.05361667,1132
0.05528333,1039
0.05695,876
0.05861667,1071
0.06028333,1111
0.06195,1075
0.06361666,788
0.06528334,969
0.06695,1053
0.06861667,1138
0.07028333,846
0.07195,976
0.07361667,855
0.07528333,959
0.07695,979
0.07861666,999
0.08028334,993
0.08195,988
0.08361667,973
0.08528333,960
0.08695,947
0.08861667,935
0.09028333,954
0.09195,925
0.09361666,897
0.09528334,1113
0.09695,1121
0.09861667,891
0.1002833,795
0.10195,779
0.1036167,972
0.1052833,958
0.10695,1026
0.1086167,782
0.1102833,1168
0.11195,1001
0.1136167,923
0.1152833,1138
0.11695,1101
0.1186167,867
0.1202833,804
0.12195,1008
0.1236167,976
0.1252833,980
0.12695,1009
0.1286167,967
0.1302833,989
0.13195,737
0.1336167,1045
0.1352833,919
0.13695,906
0.1386167,893
0.1402833,883
0.14195,873
0.1436167,877
0.1452833,880
0.14695,852
0.1486167,803
0.1502833,905
0.15195,841
0.1536167,885
0.1552833,854
0.15695,890
0.1586167,919
0.1602833,850
0.16195,781
0.1636167,746
0.1652833,1034
0.16695,989
0.1686167,1018
0.1702833,960
0.17195,918
0.1736167,983
0.1752833,890
0.17695,931
0.1786167,769
0.1802833,930
0.18195,834
0.1836167,941
0.1852833,817
0.18695,956
0.1886167,783
0.1902833,794
0.19195,748
0.1936167,913
0.1952833,1077
0.19695,1130
0.1986167,935
0.2002833,1187
0.20195,975
0.2036167,1110
0.2052833,1114
0.20695,1080
0.2086167,995
0.2102833,941
0.21195,937
0.2136167,1093
0.2152833,1052
0.21695,1012
0.2186167,977
0.2202833,1142
0.22195,1253
0.2236167,1248
0.2252833,1089
0.22695,1260
0.2286167,1372
0.2302833,1408
0.23195,1195
0.2336167,1361
0.2352833,1157
0.23695,1118
0.2386167,1202
0.2402833,1190
0.24195,1177
0.2436167,1267
0.2452833,1303
0.24695,1339
0.2486167,1201
0.2502833,1131
0.25195,1202
0.2536167,1055
0.2552833,1113
0.25695,1171
0.2586167,1098
0.2602833,1025
0.26195,1224
0.2636333,1356
0.2652833,1234
0.26695,1228
0.2686167,1107
0.2702833,1111
0.27195,1046
0.2736167,1047
0.2752833,1048
0.27695,1113
0.2786167,1061
0.2803,1008
0.28195,1167
0.2836167,1094
0.2852833,1078
0.28695,1084
0.2886167,1091
0.2902833,971
0.29195,975
0.2936167,1145
0.2952833,1147
0.29695,1045
0.2986333,1104
0.3002833,1043
0.30195,1105
0.3036167,1225
0.3052833,1178
0.30695,1152
0.3086167,1127
0.3102833,1212
0.31195,1270
0.3136167,1445
0.3153,1449
0.31695,1444
0.3186333,1206
0.3202833,1461
0.32195,1485
0.3236167,1483
0.3252833,1237
0.32695,1307
0.3286167,1092
0.3302833,1240
0.33195,1258
0.3336333,1405
0.3353,1328
0.3369667,1165
0.3386333,1204
0.3402833,1238
0.34195,1246
0.3436167,1254
0.3453,1228
0.34695,1202
0.3486167,1478
0.3503,1446
0.35195,1389
0.3536333,1420
0.3552833,1405
0.35695,1390
0.3586167,1566
0.3602833,1566
0.3619667,1531
0.3636167,1866
0.3653,2050
0.3669667,3123
0.3686333,3282
0.3703,3667
0.3719667,3255
0.3736167,3256
0.3753,3088
0.37695,3067
0.3786333,3027
0.3802833,2999
0.3819667,2970
0.3836167,2612
0.3853,2447
0.3869667,2106
0.3886333,1637
0.3902833,1221
0.3919667,1140
0.3936167,613
0.3953,660
0.3969667,521
0.3986333,507
0.4003,485
0.4019667,418
0.4036333,445
0.4053,472
0.4069667,507
0.4086333,543
0.4103,521
0.4119667,584
0.4136333,567
0.4153,605
0.4169667,642
0.4186333,645
0.4203,647
0.4219667,668
0.4236333,693
0.4253,717
0.4269667,699
0.4286333,681
0.4303,801
0.4319667,800
0.4336333,799
0.4353,780
0.4369667,761
0.4386333,1093
0.4403,1044
0.4419667,1117
0.4436333,1034
0.4453,1048
0.4469667,1064
0.4486333,1080
0.4503,1249
0.4519667,1221
0.4536333,1239
0.4553,1255
0.4569667,1271
0.4586333,1386
0.4603,1352
0.4619667,1318
0.4636333,1514
0.4653,1638
0.4669667,1507
0.4686333,1438
0.4703,1595
0.4719667,1504
0.4736333,1601
0.4753,1477
0.4769667,1404
0.4786333,1347
0.4803,1469
0.4819667,1440
0.4836333,1203
0.4853,1310
0.4869667,1274
0.4886333,1238
0.4903,1263
0.4919667,989
0.4936333,1298
0.4953,1021
0.4969667,993
0.4986333,1181
0.5003,1017
0.5019667,1112
0.5036333,1069
0.5053,1003
0.5069667,900
0.5086333,1118
0.5103,910
0.5119666,1113
0.5136333,805
0.5153,1119
0.5169666,991
0.5186333,1089
0.5203,1053
0.5219667,832
0.5236334,1031
0.5253,1106
0.5269667,1168
0.5286334,901
0.5303,1095
0.5319667,1034
0.5336334,1230
0.5353,1124
0.5369667,1083
0.5386333,1067
0.5403,961
0.5419667,1151
0.5436333,1178
0.5453,1046
0.5469667,1130
0.5486333,1097
0.5503,1021
0.5519667,1134
0.5536333,1067
0.5553,1028
0.5569667,1101
0.5586333,890
0.5603,885
0.5619667,1002
0.5636333,982
0.5653,1014
0.5669667,1056
0.5686333,1098
0.5703,1125
0.5719666,1153
0.5736333,1238
0.5753,878
0.5769666,975
0.5786333,1202
0.5803,1207
0.5819666,1104
0.5836333,1007
0.5853,1039
0.5869667,1121
0.5886334,1010
0.5903,964
0.5919667,963
0.5936334,994
0.5953,932
0.5969667,926
0.5986333,997
0.6003,1037
0.6019667,863
0.6036333,884
0.6053,1039
0.6069667,941
0.6086333,805
0.6103,933
0.6119667,912
0.6136333,809
0.6153,972
0.6169667,827
0.6186333,929
0.6203,962
0.6219667,962
0.6236333,992
0.6253,850
0.6269667,894
0.6286333,986
0.6303,1012
0.6319667,973
0.6336333,893
0.6353,1041
0.6369666,837
0.6386333,926
0.6403,1014
0.6419666,912
0.6436333,943
0.6453,1086
0.6469667,1101
0.6486334,761
0.6503,982
0.6519667,951
0.6536334,858
0.6553,928
0.6569667,1001
0.6586334,1008
0.6603,901
0.6619667,947
0.6636333,845
0.6653,1134
0.6669667,1072
0.6686333,959
0.6703,982
0.6719667,1018
0.6736333,1055
0.6753,1330
0.6769667,1449
0.6786333,1391
0.6803,1465
0.6819667,1921
0.6836333,1899
0.6853,2236
0.6869667,2784
0.6886333,3148
0.6903,3498
0.6919667,3685
0.6936333,3740
0.6953,4593
0.6969666,4328
0.6986333,4907
0.7003,4614
0.7019666,4602
0.7036333,4686
0.7053,4769
0.7069666,4718
0.7086333,4451
0.7103,4823
0.7119667,4947
0.7136334,4743
0.7153,4518
0.7169667,4664
0.7186334,4913
0.7203,4378
0.7219667,4441
0.7236333,4284
0.7253,4374
0.7269667,3866
0.7286333,3826
0.7303,3575
0.7319667,3156
0.7336333,2614
0.7353,2826
0.7369667,2372
0.7386333,2309
0.7403,1923
0.7419667,1620
0.7436333,1959
0.7453,1574
0.7469667,1538
0.7486333,1286
0.7503,1284
0.7519667,1302
0.7536333,1381
0.7553,1363
0.7569667,1247
0.7586333,1043
0.7603,945
0.7619666,1070
0.7636333,1086
0.7653,1102
0.7669666,1022
0.7686333,1067
0.7703,1034
0.7719667,1157
0.7736334,1119
0.7753,1080
0.7769667,1428
0.7786334,1826
0.7803,1930
0.7819667,2405
0.7836334,2820
0.7853,2939
0.7869667,3670
0.7886333,4296
0.7903,5213
0.7919667,5723
0.7936333,6430
0.7953,7284
0.7969667,7379
0.7986333,8460
0.8003,8604
0.8019667,10052
0.8036333,9388
0.8053,9944
0.8069667,9444
0.8086333,9136
0.8103,9156
0.8119667,9140
0.8136333,8316
0.8153,8496
0.8169667,8126
0.8186333,8404
0.8203,8432
0.8219666,8460
0.8236333,8632
0.8253,8804
0.8269666,8708
0.8286333,7492
0.8303,9256
0.8319666,7070
0.8336333,7187
0.8353,6298
0.8369667,6657
0.8386334,6221
0.8403,5641
0.8419667,4708
0.8436334,4539
0.8453,3755
0.8469667,3917
0.8486333,3342
0.8503,2958
0.8519667,2782
0.8536333,2714
0.8553,2631
0.8569667,2046
0.8586333,2607
0.8603,1828
0.8619667,1811
0.8636333,1829
0.8653,1507
0.8669667,1841
0.8686333,1433
0.8703,1263
0.8719667,1309
0.8736333,1235
0.8753,1240
0.8769667,1263
0.8786333,1286
0.8803,1155
0.8819667,1635
0.8836333,1566
0.8853,1978
0.8869666,1608
0.8886333,1760
0.8903,1552
0.8919666,1761
0.8936333,1770
0.8953,1493
0.8969667,1360
0.8986334,1882
0.9003,1371
0.9019667,1489
0.9036334,1705
0.9053,1512
0.9069667,1484
0.9086334,1302
0.9103,1362
0.9119667,1620
0.9136333,1567
0.9153,1348
0.9169667,1350
0.9186333,1552
0.9203,1598
0.9219667,1562
0.9236333,1466
0.9253,1392
0.9269667,1272
0.9286333,1377
0.9303,1649
0.9319667,1573
0.9336333,1317
0.9353,1218
0.9369667,1304
0.9386333,1355
0.9403,1423
0.9419667,1405
0.9436333,1288
0.9453,1378
0.9469666,1468
0.9486333,1525
0.9503,1530
0.9519666,1523
0.9536333,1581
0.9553,1639
0.9569666,1723
0.9586333,2056
0.9603,2241
0.9619667,2084
0.9636334,2068
0.9653,2340
0.9669667,3022
0.9686334,3503
0.9703,3367
0.9719667,4077
0.9736333,4810
0.9753,5036
0.9769667,5647
0.9786333,5356
0.9803,6632
0.9819667,6879
0.9836333,6915
0.9853,7612
0.9869667,8464
0.9886333,8054
0.9903,7923
0.9919667,8196
0.9936333,7794
0.9953,8232
0.9969667,8240
0.9986333,8248
1.0003,8185
1.001967,8540
1.003633,7609
1.0053,7951
1.006967,7775
1.008633,7637
1.0103,7831
1.011967,7815
1.013633,7988
1.0153,7279
1.016967,7741
1.018633,8017
1.0203,7897
1.021967,7588
1.023633,7479
1.0253,7552
1.026967,7593
1.028633,6992
1.0303,6827
1.031967,6426
1.033633,5944
1.0353,5353
1.036967,5120
1.038633,5095
1.0403,4822
1.041967,4462
1.043633,4070
1.0453,4031
1.046967,3356
1.048633,3378
1.0503,3124
1.051967,3135
1.053633,3147
1.0553,3111
1.056967,3159
1.058633,3233
1.0603,3209
1.061967,3185
1.063633,3200
1.0653,3926
1.066967,3936
1.068633,3398
1.0703,3523
1.071967,4105
1.073633,3831
1.0753,4203
1.076967,4065
1.078633,4202
1.0803,3827
1.081967,4170
1.083633,3548
1.0853,4139
1.086967,4085
1.088633,4081
1.0903,4059
1.091967,3988
1.093633,3917
1.0953,4164
1.096967,3640
1.098633,3716
1.1003,3402
1.101967,3654
1.103633,3905
1.1053,3708
1.106967,3861
1.108633,3760
1.1103,3777
1.111967,3909
1.113633,3602
1.1153,3365
1.116967,3843
1.118633,3687
1.1203,3082
1.121967,3051
1.123633,3071
1.1253,2787
1.126967,2976
1.128633,2593
1.1303,2414
1.131967,2406
1.133633,2288
1.1353,2104
1.136967,2089
1.138633,2309
1.1403,2110
1.141967,2094
1.143633,1823
1.1453,1983
1.146967,1704
1.148633,1746
1.1503,1783
1.151967,1257
1.153633,1524
1.1553,1289
1.156967,1518
1.158633,1447
1.1603,1383
1.161967,1469
1.163633,1304
1.1653,1416
1.166967,1409
1.168633,1312
1.1703,1117
1.171967,1258
1.173633,1285
1.1753,1166
1.176967,1285
1.178633,1165
1.1803,857
1.181967,1035
1.183633,1074
1.1853,1177
1.186967,1053
1.188633,1114
1.1903,1020
1.191967,1085
1.193633,933
1.1953,1120
1.196967,1110
1.198633,1123
