"SampleName","A2Rd2_02-31"
"Target Mass 1",
"Column Name","IA-3 (3um, 4.6X100)"
"Channel","QDa 1: SIR Ch1"
0.00195,425
0.003616667,599
0.005283333,499
0.00695,549
0.008616666,572
0.01028333,581
0.01195,559
0.01361667,537
0.01528333,602
0.01695,645
0.01861667,676
0.02028333,504
0.02195,581
0.02361667,552
0.02528333,522
0.02695,436
0.02861667,425
0.03028333,637
0.03195,656
0.03361667,503
0.03528333,525
0.03695,516
0.03861667,535
0.04028333,554
0.04195,573
0.04361667,534
0.04528333,495
0.04695,587
0.04861667,545
0.05028334,440
0.05195,503
0.05361667,599
0.05528333,532
0.05695,583
0.05861667,567
0.06028333,560
0.06195,552
0.06361666,568
0.06528334,539
0.06695,550
0.06861667,563
0.07028333,539
0.07195,515
0.07361667,555
0.07528333,532
0.07695,509
0.07861666,511
0.08028334,513
0.08195,449
0.08361667,546
0.08528333,553
0.08695,549
0.08861667,571
0.09028333,513
0.09195,522
0.09361666,531
0.09528334,545
0.09695,544
0.09861667,542
0.1002833,617
0.10195,621
0.1036167,514
0.1052833,556
0.10695,516
0.1086167,531
0.1102833,561
0.11195,536
0.1136167,585
0.1152833,600
0.11695,545
0.1186167,459
0.1202833,563
0.12195,497
0.1236167,570
0.1252833,558
0.12695,630
0.1286167,621
0.1302833,630
0.13195,345
0.1336167,508
0.1352833,538
0.13695,565
0.1386167,492
0.1402833,538
0.14195,531
0.1436167,523
0.1452833,568
0.14695,573
0.1486167,571
0.1502833,630
0.15195,484
0.1536167,628
0.1552833,609
0.15695,394
0.1586167,614
0.1602833,696
0.16195,594
0.1636167,619
0.1652833,643
0.16695,515
0.1686167,498
0.1702833,626
0.17195,514
0.1736167,551
0.1752833,429
0.17695,454
0.1786167,478
0.1802833,502
0.18195,503
0.1836167,480
0.1852833,512
0.18695,554
0.1886167,521
0.1902833,488
0.19195,591
0.1936167,574
0.1952833,494
0.19695,590
0.1986167,512
0.2002833,435
0.20195,386
0.2036167,551
0.2052833,451
0.20695,555
0.2086167,592
0.2102833,509
0.21195,451
0.2136167,552
0.2152833,549
0.21695,547
0.2186167,496
0.2202833,500
0.22195,423
0.2236167,459
0.2252833,495
0.22695,563
0.2286167,575
0.2302833,587
0.23195,528
0.2336167,512
0.2352833,583
0.23695,444
0.2386167,678
0.2402833,610
0.24195,541
0.2436167,568
0.2452833,598
0.24695,568
0.2486167,606
0.2502833,469
0.25195,670
0.2536167,577
0.2552833,516
0.25695,477
0.2586167,588
0.2602833,470
0.26195,505
0.2636167,467
0.2653,467
0.26695,516
0.2686167,462
0.2702833,548
0.27195,425
0.2736167,591
0.2752833,604
0.27695,539
0.2786167,610
0.2803,538
0.28195,586
0.2836167,559
0.2852833,612
0.28695,601
0.2886333,695
0.2902833,478
0.29195,671
0.2936167,408
0.2952833,652
0.29695,551
0.2986333,599
0.3002833,573
0.30195,658
0.3036167,666
0.3052833,690
0.30695,523
0.3086167,450
0.3102833,619
0.31195,498
0.3136333,676
0.3153,738
0.31695,615
0.3186167,617
0.3202833,576
0.32195,557
0.3236167,496
0.3252833,560
0.32695,586
0.3286167,589
0.3302833,564
0.33195,539
0.3336333,597
0.3352833,568
0.3369667,562
0.3386167,540
0.3402833,537
0.34195,534
0.3436167,454
0.3453,466
0.34695,478
0.3486167,541
0.3503,491
0.35195,441
0.3536333,513
0.3552833,542
0.35695,499
0.3586167,558
0.3602833,567
0.3619667,575
0.3636167,690
0.3653,978
0.36695,1337
0.3686333,1872
0.3703,2421
0.3719667,3029
0.3736167,3054
0.3753,3356
0.37695,3910
0.3786333,3872
0.3803,3947
0.38195,4538
0.3836167,4444
0.3853,4365
0.38695,3997
0.3886333,3374
0.3902833,3020
0.3919667,2689
0.3936333,2262
0.3953,1714
0.3969667,1830
0.3986167,1247
0.4003,1241
0.4019667,1211
0.4036333,1229
0.4053,1378
0.4069667,1400
0.4086333,1288
0.4103,1458
0.4119667,1443
0.4136333,1451
0.4153,1378
0.4169667,1546
0.4186333,1536
0.4203,1590
0.4219667,1604
0.4236333,1514
0.4253,1425
0.4269667,1641
0.4286333,1558
0.4303,1644
0.4319667,1609
0.4336333,1553
0.4353,1823
0.4369667,2865
0.4386333,3990
0.4403,6049
0.4419667,10772
0.4436333,15996
0.4453,24760
0.4469667,35712
0.4486333,50080
0.4503,64432
0.4519667,84368
0.4536333,101312
0.4553,117136
0.4569667,130576
0.4586333,139648
0.4603,153472
0.4619667,162048
0.4636333,168192
0.4653,170944
0.4669667,176896
0.4686333,189504
0.4703,199040
0.4719667,206080
0.4736333,220672
0.4753,229824
0.4769667,231552
0.4786333,231104
0.4803,223040
0.4819667,205120
0.4836333,188928
0.4853,169344
0.4869667,148032
0.4886333,124464
0.4903,106192
0.4919667,88560
0.4936333,69456
0.4953,57632
0.4969667,46880
0.4986333,35520
0.5003,28664
0.5019667,21588
0.5036333,17444
0.5053,14920
0.5069667,11732
0.5086333,9780
0.5103,8852
0.5119666,6961
0.5136333,6649
0.5153,5631
0.5169666,4858
0.5186333,4512
0.5203,4047
0.5219667,4352
0.5236334,3753
0.5253,3371
0.5269667,3228
0.5286334,3295
0.5303,3519
0.5319667,2868
0.5336334,2908
0.5353,3021
0.5369667,2538
0.5386333,2564
0.5403,2258
0.5419667,2320
0.5436333,2518
0.5453,2106
0.5469667,2595
0.5486333,2137
0.5503,1901
0.5519667,1883
0.5536333,1874
0.5553,1855
0.5569667,1459
0.5586333,1726
0.5603,1824
0.5619667,1449
0.5636333,1376
0.5653,1788
0.5669667,1545
0.5686333,1287
0.5703,1505
0.5719666,1580
0.5736333,1454
0.5753,1299
0.5769666,1273
0.5786333,1186
0.5803,1190
0.5819666,1210
0.5836333,1229
0.5853,1304
0.5869667,1244
0.5886334,1184
0.5903,1247
0.5919667,1311
0.5936334,1419
0.5953,1401
0.5969667,1384
0.5986333,1477
0.6003,1444
0.6019667,1410
0.6036333,1486
0.6053,1444
0.6069667,1477
0.6086333,1509
0.6103,1642
0.6119667,1213
0.6136333,1487
0.6153,1442
0.6169667,1406
0.6186333,1484
0.6203,1324
0.6219667,1535
0.6236333,1409
0.6253,1408
0.6269667,1192
0.6286333,1301
0.6303,1302
0.6319667,1322
0.6336333,1080
0.6353,1188
0.6369666,1101
0.6386333,1119
0.6403,1054
0.6419666,937
0.6436333,1007
0.6453,996
0.6469667,986
0.6486334,915
0.6503,823
0.6519667,1080
0.6536334,1027
0.6553,958
0.6569667,889
0.6586334,1041
0.6603,1033
0.6619667,845
0.6636333,772
0.6653,1081
0.6669667,857
0.6686333,802
0.6703,942
0.6719667,777
0.6736333,773
0.6753,815
0.6769667,939
0.6786333,899
0.6803,771
0.6819667,1015
0.6836333,836
0.6853,996
0.6869667,865
0.6886333,939
0.6903,796
0.6919667,945
0.6936333,886
0.6953,774
0.6969666,902
0.6986333,943
0.7003,809
0.7019666,979
0.7036333,711
0.7053,722
0.7069666,817
0.7086333,661
0.7103,717
0.7119667,950
0.7136334,888
0.7153,893
0.7169667,870
0.7186334,927
0.7203,820
0.7219667,753
0.7236333,879
0.7253,595
0.7269667,888
0.7286333,779
0.7303,815
0.7319667,927
0.7336333,953
0.7353,830
0.7369667,815
0.7386333,802
0.7403,853
0.7419667,571
0.7436333,893
0.7453,817
0.7469667,958
0.7486333,885
0.7503,806
0.7519667,818
0.7536333,639
0.7553,728
0.7569667,643
0.7586333,730
0.7603,900
0.7619666,886
0.7636333,775
0.7653,882
0.7669666,804
0.7686333,918
0.7703,633
0.7719667,800
0.7736334,693
0.7753,749
0.7769667,804
0.7786334,752
0.7803,769
0.7819667,785
0.7836334,752
0.7853,668
0.7869667,713
0.7886333,654
0.7903,561
0.7919667,622
0.7936333,684
0.7953,694
0.7969667,754
0.7986333,814
0.8003,808
0.8019667,802
0.8036333,725
0.8053,825
0.8069667,706
0.8086333,740
0.8103,775
0.8119667,788
0.8136333,788
0.8153,788
0.8169667,767
0.8186333,783
0.8203,799
0.8219666,808
0.8236333,903
0.8253,866
0.8269666,830
0.8286333,873
0.8303,734
0.8319666,746
0.8336333,975
0.8353,589
0.8369667,819
0.8386334,689
0.8403,749
0.8419667,720
0.8436334,827
0.8453,818
0.8469667,809
0.8486333,830
0.8503,850
0.8519667,816
0.8536333,781
0.8553,652
0.8569667,841
0.8586333,866
0.8603,729
0.8619667,862
0.8636333,666
0.8653,894
0.8669667,794
0.8686333,677
0.8703,806
0.8719667,701
0.8736333,641
0.8753,738
0.8769667,645
0.8786333,674
0.8803,1097
0.8819667,1284
0.8836333,1718
0.8853,2149
0.8869666,2488
0.8886333,2843
0.8903,3213
0.8919666,3438
0.8936333,3517
0.8953,3453
0.8969667,3743
0.8986334,3988
0.9003,3912
0.9019667,3837
0.9036334,3902
0.9053,3895
0.9069667,3883
0.9086334,3633
0.9103,4018
0.9119667,4014
0.9136333,3946
0.9153,3495
0.9169667,4093
0.9186333,4216
0.9203,3588
0.9219667,3507
0.9236333,4054
0.9253,3564
0.9269667,4037
0.9286333,3750
0.9303,3679
0.9319667,3796
0.9336333,3834
0.9353,3520
0.9369667,3364
0.9386333,3374
0.9403,3330
0.9419667,3068
0.9436333,3120
0.9453,3184
0.9469666,3335
0.9486333,2335
0.9503,2508
0.9519666,2539
0.9536333,2354
0.9553,2110
0.9569666,2086
0.9586333,1908
0.9603,2017
0.9619667,2054
0.9636334,1946
0.9653,2017
0.9669667,1492
0.9686334,1562
0.9703,1342
0.9719667,1290
0.9736333,1187
0.9753,1126
0.9769667,1175
0.9786333,1264
0.9803,951
0.9819667,904
0.9836333,1035
0.9853,885
0.9869667,636
0.9886333,888
0.9903,979
0.9919667,765
0.9936333,676
0.9953,687
0.9969667,714
0.9986333,496
1.0003,642
1.001967,747
1.003633,445
1.0053,515
1.006967,633
1.008633,699
1.0103,805
1.011967,724
1.013633,470
1.0153,684
1.016967,530
1.018633,634
1.0203,524
1.021967,546
1.023633,633
1.0253,590
1.026967,547
1.028633,620
1.0303,577
1.031967,659
1.033633,619
1.0353,580
1.036967,630
1.038633,634
1.0403,639
1.041967,685
1.043633,526
1.0453,616
1.046967,738
1.048633,667
1.0503,623
1.051967,797
1.053633,757
1.0553,702
1.056967,722
1.058633,679
1.0603,694
1.061967,792
1.063633,815
1.0653,554
1.066967,588
1.068633,734
1.0703,774
1.071967,536
1.073633,476
1.0753,656
1.076967,543
1.078633,698
1.0803,697
1.081967,569
1.083633,749
1.0853,691
1.086967,843
1.088633,829
1.0903,660
1.091967,675
1.093633,603
1.0953,668
1.096967,734
1.098633,576
1.1003,552
1.101967,802
1.103633,801
1.1053,586
1.106967,796
1.108633,629
1.1103,475
1.111967,732
1.113633,712
1.1153,691
1.116967,699
1.118633,706
1.1203,457
1.121967,811
1.123633,913
1.1253,714
1.126967,642
1.128633,628
1.1303,705
1.131967,576
1.133633,742
1.1353,709
1.136967,699
1.138633,662
1.1403,779
1.141967,838
1.143633,843
1.1453,785
1.146967,732
1.148633,678
1.1503,692
1.151967,719
1.153633,547
1.1553,601
1.156967,709
1.158633,592
1.1603,670
1.161967,748
1.163633,511
1.1653,661
1.166967,634
1.168633,605
1.1703,587
1.171967,781
1.173633,783
1.1753,654
1.176967,610
1.178633,699
1.1803,684
1.181967,806
1.183633,759
1.1853,817
1.186967,771
1.188633,745
1.1903,766
1.191967,720
1.193633,549
1.1953,787
1.196967,703
1.198633,671
