"SampleName","A2Rd2_02-77"
"Target Mass 1",
"Column Name","IA-3 (3um, 4.6X100)"
"Channel","QDa 1: SIR Ch1"
0.00195,366
0.003616667,566
0.005283333,412
0.00695,546
0.008616666,537
0.01028333,438
0.01195,504
0.01361667,571
0.01528333,553
0.01695,490
0.01861667,472
0.02028333,483
0.02195,494
0.02361667,580
0.02528333,557
0.02695,611
0.02861667,441
0.03028333,303
0.03195,487
0.03361667,568
0.03528333,549
0.03695,554
0.03861667,474
0.04028333,512
0.04195,538
0.04361667,423
0.04528333,516
0.04695,452
0.04861667,387
0.05028334,529
0.05195,449
0.05361667,555
0.05528333,491
0.05695,469
0.05861667,568
0.06028333,452
0.06195,568
0.06361666,632
0.06528334,465
0.06695,523
0.06861667,583
0.07028333,429
0.07195,472
0.07361667,546
0.07528333,499
0.07695,465
0.07861666,528
0.08028334,489
0.08195,502
0.08361667,482
0.08528333,463
0.08695,541
0.08861667,535
0.09028333,541
0.09195,553
0.09361666,565
0.09528334,499
0.09695,393
0.09861667,639
0.1002833,539
0.10195,526
0.1036167,498
0.1052833,501
0.10695,356
0.1086167,545
0.1102833,540
0.11195,513
0.1136167,486
0.1152833,497
0.11695,474
0.1186167,449
0.1202833,402
0.12195,535
0.1236167,495
0.1252833,567
0.12695,516
0.1286167,590
0.1302833,618
0.13195,439
0.1336167,408
0.1352833,612
0.13695,480
0.1386167,515
0.1402833,496
0.14195,477
0.1436167,574
0.1452833,375
0.14695,485
0.1486167,494
0.1502833,507
0.15195,519
0.1536167,503
0.1552833,487
0.15695,359
0.1586167,455
0.1602833,514
0.16195,363
0.1636167,507
0.1652833,555
0.16695,409
0.1686167,403
0.1702833,668
0.17195,631
0.1736167,493
0.1752833,554
0.17695,510
0.1786167,379
0.1802833,515
0.18195,455
0.1836167,396
0.1852833,411
0.18695,426
0.1886167,395
0.1902833,363
0.19195,496
0.1936167,442
0.1952833,387
0.19695,391
0.1986167,396
0.2002833,390
0.20195,501
0.2036167,516
0.2052833,547
0.20695,462
0.2086167,477
0.2102833,493
0.21195,497
0.2136167,498
0.2152833,506
0.21695,514
0.2186167,440
0.2202833,549
0.22195,359
0.2236167,545
0.2252833,354
0.22695,466
0.2286167,497
0.2302833,448
0.23195,442
0.2336167,585
0.2352833,563
0.23695,499
0.2386167,624
0.2402833,482
0.24195,585
0.2436167,487
0.2453,536
0.24695,586
0.2486167,371
0.2502833,406
0.25195,408
0.2536167,417
0.2552833,426
0.25695,389
0.2586167,424
0.2602833,458
0.26195,439
0.2636333,420
0.2652833,437
0.26695,454
0.2686167,451
0.2702833,443
0.27195,436
0.2736167,419
0.2752833,402
0.27695,444
0.2786167,416
0.2803,389
0.2819667,440
0.2836167,481
0.2852833,455
0.28695,376
0.2886167,491
0.2902833,459
0.29195,427
0.2936167,497
0.2952833,530
0.29695,523
0.2986333,424
0.3002833,458
0.3019667,577
0.3036333,543
0.3052833,484
0.30695,504
0.3086167,494
0.3102833,537
0.31195,410
0.3136167,531
0.3153,525
0.31695,381
0.3186333,376
0.3203,461
0.32195,549
0.3236167,582
0.3252833,554
0.32695,433
0.3286333,400
0.3302833,563
0.3319667,563
0.3336333,423
0.3353,469
0.3369667,553
0.3386167,574
0.3403,529
0.34195,498
0.3436333,553
0.3452833,510
0.3469667,548
0.3486333,544
0.3503,540
0.3519667,399
0.3536333,493
0.3552833,487
0.3569667,480
0.3586167,422
0.3603,365
0.36195,587
0.3636333,668
0.3653,1091
0.3669667,1717
0.3686333,1955
0.3703,2189
0.3719667,3072
0.3736333,2902
0.3753,2618
0.3769667,3279
0.3786333,3204
0.3803,3743
0.3819667,4099
0.3836333,3921
0.3853,3696
0.3869667,3778
0.3886333,3860
0.3903,3053
0.3919667,2370
0.3936333,2013
0.3953,1491
0.3969667,1626
0.3986333,1277
0.4003,1296
0.4019667,1206
0.4036333,1118
0.4053,1200
0.4069667,1267
0.4086333,874
0.4103,1159
0.4119667,1114
0.4136333,1029
0.4153,1054
0.4169667,1008
0.4186333,813
0.4203,1068
0.4219667,1104
0.4236333,947
0.4253,810
0.4269667,900
0.4286333,990
0.4303,1001
0.4319667,1015
0.4336333,1088
0.4353,1553
0.4369667,1913
0.4386333,2862
0.4403,5244
0.4419667,9392
0.4436333,15644
0.4453,24408
0.4469667,37344
0.4486333,52912
0.4503,70800
0.4519667,91504
0.4536333,111376
0.4553,126240
0.4569667,144640
0.4586333,151104
0.4603,162176
0.4619667,167040
0.4636333,173504
0.4653,176960
0.4669667,175424
0.4686333,176000
0.4703,172096
0.4719667,176832
0.4736333,183232
0.4753,190720
0.4769667,195072
0.4786333,197760
0.4803,197760
0.4819667,196096
0.4836333,181120
0.4853,175104
0.4869667,160064
0.4886333,145152
0.4903,126608
0.4919667,107984
0.4936333,91040
0.4953,77344
0.4969667,62512
0.4986333,53104
0.5003,42720
0.5019667,36096
0.5036333,27336
0.5053,22628
0.5069667,18784
0.5086333,15280
0.5103,12744
0.5119666,10800
0.5136333,8920
0.5153,8452
0.5169666,6704
0.5186333,6064
0.5203,5686
0.5219667,4590
0.5236334,4357
0.5253,3831
0.5269667,3924
0.5286334,4011
0.5303,3488
0.5319667,3221
0.5336334,3182
0.5353,2883
0.5369667,2630
0.5386333,2506
0.5403,2341
0.5419667,2381
0.5436333,2545
0.5453,2282
0.5469667,2352
0.5486333,2230
0.5503,1995
0.5519667,2090
0.5536333,2088
0.5553,1646
0.5569667,1810
0.5586333,1884
0.5603,1717
0.5619667,1714
0.5636333,1712
0.5653,1535
0.5669667,1482
0.5686333,1437
0.5703,1436
0.5719666,1434
0.5736333,1272
0.5753,1317
0.5769666,1363
0.5786333,1407
0.5803,1251
0.5819666,1397
0.5836333,1510
0.5853,1005
0.5869667,1241
0.5886334,1371
0.5903,1354
0.5919667,1356
0.5936334,1479
0.5953,1495
0.5969667,1124
0.5986333,1175
0.6003,1251
0.6019667,1046
0.6036333,1170
0.6053,1281
0.6069667,1215
0.6086333,1149
0.6103,1244
0.6119667,1238
0.6136333,1158
0.6153,1158
0.6169667,1158
0.6186333,1133
0.6203,1109
0.6219667,1184
0.6236333,928
0.6253,1273
0.6269667,786
0.6286333,1127
0.6303,1146
0.6319667,951
0.6336333,1071
0.6353,1079
0.6369666,1004
0.6386333,1047
0.6403,941
0.6419666,959
0.6436333,978
0.6453,953
0.6469667,693
0.6486334,994
0.6503,1041
0.6519667,967
0.6536334,803
0.6553,845
0.6569667,786
0.6586334,843
0.6603,901
0.6619667,738
0.6636333,887
0.6653,895
0.6669667,851
0.6686333,875
0.6703,912
0.6719667,881
0.6736333,834
0.6753,787
0.6769667,914
0.6786333,889
0.6803,865
0.6819667,883
0.6836333,901
0.6853,835
0.6869667,938
0.6886333,889
0.6903,695
0.6919667,860
0.6936333,758
0.6953,782
0.6969666,806
0.6986333,813
0.7003,700
0.7019666,745
0.7036333,763
0.7053,771
0.7069666,779
0.7086333,767
0.7103,780
0.7119667,883
0.7136334,860
0.7153,803
0.7169667,611
0.7186334,717
0.7203,972
0.7219667,1005
0.7236333,760
0.7253,838
0.7269667,778
0.7286333,623
0.7303,724
0.7319667,737
0.7336333,782
0.7353,659
0.7369667,613
0.7386333,761
0.7403,715
0.7419667,712
0.7436333,755
0.7453,780
0.7469667,804
0.7486333,868
0.7503,685
0.7519667,794
0.7536333,773
0.7553,811
0.7569667,825
0.7586333,774
0.7603,769
0.7619666,758
0.7636333,747
0.7653,756
0.7669666,766
0.7686333,650
0.7703,753
0.7719667,778
0.7736334,802
0.7753,621
0.7769667,747
0.7786334,776
0.7803,804
0.7819667,683
0.7836334,775
0.7853,698
0.7869667,621
0.7886333,625
0.7903,630
0.7919667,725
0.7936333,708
0.7953,682
0.7969667,656
0.7986333,777
0.8003,805
0.8019667,785
0.8036333,766
0.8053,726
0.8069667,697
0.8086333,817
0.8103,811
0.8119667,805
0.8136333,855
0.8153,867
0.8169667,879
0.8186333,745
0.8203,724
0.8219666,775
0.8236333,867
0.8253,892
0.8269666,837
0.8286333,846
0.8303,831
0.8319666,876
0.8336333,884
0.8353,892
0.8369667,1043
0.8386334,1043
0.8403,768
0.8419667,1104
0.8436334,1051
0.8453,813
0.8469667,780
0.8486333,872
0.8503,881
0.8519667,1022
0.8536333,1009
0.8553,783
0.8569667,791
0.8586333,837
0.8603,826
0.8619667,815
0.8636333,867
0.8653,876
0.8669667,886
0.8686333,681
0.8703,644
0.8719667,743
0.8736333,726
0.8753,708
0.8769667,845
0.8786333,990
0.8803,1245
0.8819667,1425
0.8836333,1988
0.8853,1859
0.8869666,2490
0.8886333,2564
0.8903,3216
0.8919666,3165
0.8936333,3147
0.8953,3193
0.8969667,3130
0.8986334,3227
0.9003,3324
0.9019667,3284
0.9036334,3340
0.9053,3220
0.9069667,3281
0.9086334,3274
0.9103,3267
0.9119667,3289
0.9136333,3555
0.9153,3505
0.9169667,3345
0.9186333,3218
0.9203,3229
0.9219667,3012
0.9236333,3053
0.9253,3095
0.9269667,3323
0.9286333,3291
0.9303,3121
0.9319667,3303
0.9336333,2912
0.9353,3057
0.9369667,3255
0.9386333,3085
0.9403,2790
0.9419667,2628
0.9436333,2805
0.9453,2742
0.9469666,2380
0.9486333,2554
0.9503,2654
0.9519666,2225
0.9536333,2315
0.9553,1954
0.9569666,2013
0.9586333,1921
0.9603,1753
0.9619667,1985
0.9636334,1992
0.9653,1634
0.9669667,1607
0.9686334,1828
0.9703,1588
0.9719667,1329
0.9736333,1460
0.9753,1457
0.9769667,1064
0.9786333,1125
0.9803,1231
0.9819667,1012
0.9836333,858
0.9853,832
0.9869667,742
0.9886333,877
0.9903,725
0.9919667,812
0.9936333,671
0.9953,738
0.9969667,607
0.9986333,707
1.0003,636
1.001967,564
1.003633,448
1.0053,675
1.006967,736
1.008633,822
1.0103,703
1.011967,496
1.013633,719
1.0153,504
1.016967,649
1.018633,635
1.0203,595
1.021967,634
1.023633,624
1.0253,614
1.026967,641
1.028633,613
1.0303,585
1.031967,506
1.033633,792
1.0353,721
1.036967,717
1.038633,647
1.0403,749
1.041967,689
1.043633,630
1.0453,650
1.046967,601
1.048633,651
1.0503,650
1.051967,649
1.053633,663
1.0553,678
1.056967,658
1.058633,638
1.0603,676
1.061967,733
1.063633,563
1.0653,667
1.066967,669
1.068633,574
1.0703,618
1.071967,662
1.073633,622
1.0753,662
1.076967,702
1.078633,701
1.0803,699
1.081967,789
1.083633,530
1.0853,557
1.086967,669
1.088633,665
1.0903,661
1.091967,688
1.093633,688
1.0953,698
1.096967,709
1.098633,737
1.1003,799
1.101967,752
1.103633,704
1.1053,776
1.106967,586
1.108633,688
1.1103,638
1.111967,636
1.113633,683
1.1153,685
1.116967,621
1.118633,624
1.1203,626
1.121967,566
1.123633,506
1.1253,567
1.126967,709
1.128633,669
1.1303,641
1.131967,707
1.133633,668
1.1353,629
1.136967,663
1.138633,661
1.1403,659
1.141967,523
1.143633,660
1.1453,634
1.146967,607
1.148633,649
1.1503,691
1.151967,658
1.153633,625
1.1553,691
1.156967,757
1.158633,754
1.1603,764
1.161967,638
1.163633,631
1.1653,649
1.166967,711
1.168633,796
1.1703,798
1.171967,687
1.173633,819
1.1753,717
1.176967,809
1.178633,763
1.1803,870
1.181967,865
1.183633,953
1.1853,937
1.186967,895
1.188633,783
1.1903,749
1.191967,719
1.193633,809
1.1953,802
1.196967,795
1.198633,844
