"SampleName","A2Rd2_02-3"
"Target Mass 1",
"Column Name","IA-3 (3um, 4.6X100)"
"Channel","QDa 1: SIR Ch2"
0.00195,604
0.003616667,801
0.005283333,801
0.00695,771
0.008616666,1090
0.01028333,1047
0.01195,1278
0.01361667,1195
0.01528333,1031
0.01695,986
0.01861667,1065
0.02028333,1062
0.02195,1056
0.02361667,1050
0.02528333,857
0.02695,1001
0.02861667,1023
0.03028333,1044
0.03195,957
0.03361667,1061
0.03528333,881
0.03695,968
0.03861667,1107
0.04028333,1075
0.04195,1196
0.04361667,1163
0.04528333,1234
0.04695,904
0.04861667,1183
0.05028334,1068
0.05195,1121
0.05361667,886
0.05528333,1077
0.05695,891
0.05861667,925
0.06028333,960
0.06195,955
0.06361666,962
0.06528334,969
0.06695,942
0.06861667,944
0.07028333,945
0.07195,777
0.07361667,863
0.07528333,948
0.07695,1001
0.07861666,1025
0.08028334,1034
0.08195,1118
0.08361667,804
0.08528333,1032
0.08695,831
0.08861667,995
0.09028333,913
0.09195,1130
0.09361666,1044
0.09528334,1026
0.09695,997
0.09861667,814
0.1002833,1059
0.10195,1016
0.1036167,937
0.1052833,911
0.10695,764
0.1086167,1022
0.1102833,1034
0.11195,1041
0.1136167,941
0.1152833,857
0.11695,1104
0.1186167,901
0.1202833,942
0.12195,1100
0.1236167,811
0.1252833,763
0.12695,880
0.1286167,953
0.1302833,924
0.13195,880
0.1336167,826
0.1352833,940
0.13695,821
0.1386167,923
0.1402833,877
0.14195,834
0.1436167,787
0.1452833,950
0.14695,943
0.1486167,935
0.1502833,967
0.15195,965
0.1536167,962
0.1552833,873
0.15695,778
0.1586167,1061
0.1602833,1078
0.16195,931
0.1636167,965
0.1652833,934
0.16695,912
0.1686167,981
0.1702833,964
0.17195,947
0.1736167,871
0.1752833,910
0.17695,945
0.1786167,980
0.1802833,981
0.18195,891
0.1836167,998
0.1852833,988
0.18695,933
0.1886167,867
0.1902833,937
0.19195,798
0.1936167,949
0.1952833,951
0.19695,808
0.1986167,903
0.2002833,997
0.20195,1040
0.2036167,905
0.2052833,1073
0.20695,1202
0.2086167,1081
0.2102833,1194
0.21195,1156
0.2136167,1283
0.2152833,1245
0.21695,1349
0.2186167,1133
0.2202833,1067
0.22195,1294
0.2236167,1286
0.2252833,1372
0.22695,1202
0.2286167,1299
0.2302833,1309
0.2319667,1320
0.2336167,1376
0.2352833,1433
0.23695,1240
0.2386167,1357
0.2402833,1593
0.24195,1643
0.2436167,1413
0.2452833,1281
0.24695,1345
0.2486167,1422
0.2502833,1499
0.25195,1443
0.2536167,1480
0.2552833,1517
0.25695,1354
0.2586167,1687
0.2602833,1649
0.26195,1310
0.2636167,1361
0.2652833,1514
0.26695,1304
0.2686167,1346
0.2702833,1218
0.27195,1412
0.2736167,1136
0.2752833,1385
0.27695,1535
0.2786167,1260
0.2803,1215
0.28195,1164
0.2836167,1264
0.2853,1235
0.28695,1354
0.2886167,1399
0.2902833,1304
0.29195,1358
0.2936167,1441
0.2952833,1263
0.29695,1161
0.2986333,1311
0.3002833,1145
0.30195,1395
0.3036167,1414
0.3052833,1439
0.30695,1223
0.3086167,1341
0.3102833,1342
0.31195,1476
0.3136167,1449
0.3153,1391
0.31695,1332
0.3186167,1626
0.3202833,1652
0.32195,1305
0.3236167,1379
0.3252833,1334
0.32695,1348
0.3286167,1252
0.3302833,1331
0.33195,1351
0.3336333,1339
0.3353,1299
0.33695,1259
0.3386167,1307
0.3402833,1341
0.34195,1375
0.3436167,1238
0.3452833,1448
0.34695,1238
0.3486167,1174
0.3503,1110
0.3519667,1467
0.3536167,1512
0.3552833,1197
0.35695,1471
0.3586167,1345
0.3603,1381
0.36195,1145
0.3636167,1525
0.3652833,2442
0.36695,3453
0.3686333,4144
0.3703,4399
0.37195,4474
0.3736167,4393
0.3752833,4375
0.3769667,4000
0.3786167,3885
0.3802833,3561
0.3819667,2880
0.3836167,2631
0.3853,2032
0.3869667,1654
0.3886333,1446
0.3902833,1069
0.39195,1062
0.3936333,754
0.3952833,629
0.3969667,548
0.3986333,615
0.4003,539
0.4019667,464
0.4036333,472
0.4052833,538
0.4069667,521
0.4086167,505
0.4103,587
0.4119667,778
0.4136333,741
0.4153,729
0.4169667,659
0.4186333,672
0.4203,629
0.4219667,724
0.4236333,522
0.4252833,738
0.4269667,727
0.4286333,729
0.4303,790
0.4319667,794
0.4336333,798
0.4353,767
0.4369667,737
0.4386333,999
0.4403,1074
0.4419667,902
0.4436333,1089
0.4453,942
0.4469667,1226
0.4486333,1230
0.4503,1211
0.4519667,1014
0.4536333,1056
0.4553,1297
0.4569667,1203
0.4586333,1109
0.4603,1358
0.4619667,1369
0.4636333,1131
0.4653,1291
0.4669667,1213
0.4686333,1201
0.4703,1189
0.4719667,1411
0.4736333,1480
0.4753,1463
0.4769667,1553
0.4786333,1536
0.4803,1228
0.4819667,1393
0.4836333,1243
0.4853,1268
0.4869667,1324
0.4886333,1277
0.4903,1229
0.4919667,1063
0.4936333,1286
0.4953,1031
0.4969667,1112
0.4986333,1120
0.5003,1079
0.5019667,1088
0.5036333,902
0.5053,881
0.5069667,824
0.5086333,879
0.5103,934
0.5119666,1009
0.5136333,1003
0.5153,804
0.5169666,867
0.5186333,1079
0.5203,908
0.5219667,822
0.5236334,974
0.5253,815
0.5269667,841
0.5286334,1065
0.5303,950
0.5319667,944
0.5336334,901
0.5353,851
0.5369667,906
0.5386333,1023
0.5403,1134
0.5419667,1073
0.5436333,858
0.5453,845
0.5469667,872
0.5486333,899
0.5503,770
0.5519667,916
0.5536333,973
0.5553,1029
0.5569667,923
0.5586333,932
0.5603,940
0.5619667,985
0.5636333,968
0.5653,952
0.5669667,1001
0.5686333,1068
0.5703,1054
0.5719666,1056
0.5736333,907
0.5753,1102
0.5769666,910
0.5786333,1106
0.5803,896
0.5819666,854
0.5836333,1013
0.5853,1013
0.5869667,937
0.5886334,905
0.5903,873
0.5919667,897
0.5936334,996
0.5953,1126
0.5969667,1096
0.5986333,953
0.6003,987
0.6019667,919
0.6036333,829
0.6053,1057
0.6069667,1008
0.6086333,763
0.6103,965
0.6119667,1113
0.6136333,828
0.6153,1138
0.6169667,730
0.6186333,1028
0.6203,1117
0.6219667,1302
0.6236333,942
0.6253,1156
0.6269667,1029
0.6286333,963
0.6303,1097
0.6319667,1120
0.6336333,914
0.6353,1070
0.6369666,932
0.6386333,1056
0.6403,1124
0.6419666,1192
0.6436333,1037
0.6453,1135
0.6469667,930
0.6486334,983
0.6503,1046
0.6519667,1101
0.6536334,1077
0.6553,1052
0.6569667,1067
0.6586334,1063
0.6603,1006
0.6619667,927
0.6636333,849
0.6653,987
0.6669667,892
0.6686333,1026
0.6703,838
0.6719667,1325
0.6736333,1377
0.6753,1763
0.6769667,1864
0.6786333,2109
0.6803,2914
0.6819667,3424
0.6836333,4559
0.6853,5481
0.6869667,6950
0.6886333,9300
0.6903,11188
0.6919667,13304
0.6936333,15900
0.6953,18148
0.6969666,20620
0.6986333,23624
0.7003,25660
0.7019666,26332
0.7036333,28420
0.7053,28716
0.7069666,29192
0.7086333,29812
0.7103,30432
0.7119667,30632
0.7136334,31272
0.7153,31384
0.7169667,31604
0.7186334,31820
0.7203,30496
0.7219667,30384
0.7236333,28716
0.7253,27044
0.7269667,24036
0.7286333,22200
0.7303,19692
0.7319667,18376
0.7336333,14884
0.7353,14004
0.7369667,11716
0.7386333,9812
0.7403,8544
0.7419667,7431
0.7436333,6425
0.7453,5740
0.7469667,4794
0.7486333,4154
0.7503,3824
0.7519667,3495
0.7536333,3017
0.7553,3028
0.7569667,2685
0.7586333,2339
0.7603,2178
0.7619666,2301
0.7636333,1867
0.7653,1988
0.7669666,1589
0.7686333,1923
0.7703,1543
0.7719667,1736
0.7736334,1947
0.7753,1938
0.7769667,2017
0.7786334,2102
0.7803,2677
0.7819667,2915
0.7836334,4168
0.7853,4961
0.7869667,6343
0.7886333,9540
0.7903,11448
0.7919667,12876
0.7936333,16412
0.7953,19512
0.7969667,22712
0.7986333,26620
0.8003,28236
0.8019667,32668
0.8036333,35232
0.8053,37680
0.8069667,40736
0.8086333,40048
0.8103,43216
0.8119667,43776
0.8136333,43328
0.8153,43600
0.8169667,43888
0.8186333,44528
0.8203,44320
0.8219666,44128
0.8236333,44976
0.8253,41760
0.8269666,42992
0.8286333,42464
0.8303,40176
0.8319666,40224
0.8336333,35904
0.8353,33440
0.8369667,30780
0.8386334,28256
0.8403,23660
0.8419667,21888
0.8436334,19356
0.8453,17140
0.8469667,14584
0.8486333,12492
0.8503,11332
0.8519667,9656
0.8536333,8272
0.8553,8130
0.8569667,7056
0.8586333,6309
0.8603,5682
0.8619667,4373
0.8636333,4205
0.8653,4272
0.8669667,3584
0.8686333,2987
0.8703,3077
0.8719667,3103
0.8736333,2501
0.8753,2208
0.8769667,2256
0.8786333,1994
0.8803,2053
0.8819667,2405
0.8836333,2608
0.8853,2492
0.8869666,2830
0.8886333,2843
0.8903,2616
0.8919666,2772
0.8936333,2326
0.8953,2185
0.8969667,2416
0.8986334,2246
0.9003,2235
0.9019667,2114
0.9036334,2040
0.9053,2266
0.9069667,2202
0.9086334,1823
0.9103,2093
0.9119667,1762
0.9136333,1777
0.9153,2001
0.9169667,1723
0.9186333,1567
0.9203,1710
0.9219667,1810
0.9236333,1592
0.9253,1624
0.9269667,1651
0.9286333,1635
0.9303,1619
0.9319667,1639
0.9336333,1464
0.9353,1770
0.9369667,1863
0.9386333,1587
0.9403,1518
0.9419667,1689
0.9436333,1819
0.9453,1768
0.9469666,1743
0.9486333,1862
0.9503,1886
0.9519666,1879
0.9536333,1872
0.9553,2062
0.9569666,2198
0.9586333,2930
0.9603,3169
0.9619667,3767
0.9636334,4773
0.9653,4775
0.9669667,6216
0.9686334,7353
0.9703,8580
0.9719667,10892
0.9736333,12528
0.9753,15576
0.9769667,18232
0.9786333,21368
0.9803,24108
0.9819667,27300
0.9836333,30360
0.9853,34352
0.9869667,36128
0.9886333,39168
0.9903,41488
0.9919667,44288
0.9936333,46352
0.9953,48320
0.9969667,49600
0.9986333,53008
1.0003,53424
1.001967,53712
1.003633,53600
1.0053,55392
1.006967,55904
1.008633,55328
1.0103,56512
1.011967,57968
1.013633,58496
1.0153,56816
1.016967,58384
1.018633,58848
1.0203,57536
1.021967,59056
1.023633,55072
1.0253,54928
1.026967,50624
1.028633,49968
1.0303,46224
1.031967,43200
1.033633,39424
1.0353,36304
1.036967,33840
1.038633,29568
1.0403,27372
1.041967,25668
1.043633,23096
1.0453,21368
1.046967,19240
1.048633,17916
1.0503,16552
1.051967,16112
1.053633,14572
1.0553,13300
1.056967,13008
1.058633,13600
1.0603,13612
1.061967,13396
1.063633,13728
1.0653,14556
1.066967,14740
1.068633,15812
1.0703,16820
1.071967,16548
1.073633,17748
1.0753,18916
1.076967,19096
1.078633,19004
1.0803,18912
1.081967,19752
1.083633,22020
1.0853,22108
1.086967,22624
1.088633,22772
1.0903,22992
1.091967,23984
1.093633,23744
1.0953,22940
1.096967,23140
1.098633,23344
1.1003,24032
1.101967,24176
1.103633,22568
1.1053,23980
1.106967,23820
1.108633,24040
1.1103,23472
1.111967,22464
1.113633,21276
1.1153,21492
1.116967,20212
1.118633,20148
1.1203,19140
1.121967,17664
1.123633,16968
1.1253,15704
1.126967,15224
1.128633,14480
1.1303,13056
1.131967,11552
1.133633,11544
1.1353,10688
1.136967,10144
1.138633,8800
1.1403,8384
1.141967,7538
1.143633,6672
1.1453,6513
1.146967,5666
1.148633,5429
1.1503,5376
1.151967,4643
1.153633,4331
1.155317,4597
1.156967,3991
1.158633,4044
1.1603,3999
1.161967,2975
1.163633,3465
1.1653,2920
1.166967,3462
1.168633,2801
1.1703,2757
1.171967,2379
1.17365,2658
1.1753,2705
1.176967,2419
1.178633,2417
1.1803,2049
1.181967,1988
1.183633,2153
1.185317,2152
1.186967,1959
1.188633,2188
1.190317,2009
1.191967,2533
1.193633,2370
1.1953,2208
1.196967,2305
1.198633,2665
