"SampleName","A2Rd2_02-26"
"Target Mass 1",
"Column Name","IA-3 (3um, 4.6X100)"
"Channel","QDa 1: SIR Ch2"
0.00195,474
0.003616667,537
0.005283333,770
0.00695,690
0.008616666,832
0.01028333,827
0.01195,874
0.01361667,922
0.01528333,902
0.01695,883
0.01861667,1039
0.02028333,980
0.02195,921
0.02361667,795
0.02528333,747
0.02695,907
0.02861667,863
0.03028333,819
0.03195,898
0.03361667,827
0.03528333,978
0.03695,1001
0.03861667,1089
0.04028333,1062
0.04195,1124
0.04361667,833
0.04528333,741
0.04695,929
0.04861667,1002
0.05028334,1105
0.05195,1010
0.05361667,1173
0.05528333,909
0.05695,1132
0.05861667,928
0.06028333,912
0.06195,1045
0.06361666,946
0.06528334,846
0.06695,1024
0.06861667,905
0.07028333,863
0.07195,874
0.07361667,885
0.07528333,858
0.07695,898
0.07861666,894
0.08028334,827
0.08195,756
0.08361667,973
0.08528333,1025
0.08695,909
0.08861667,871
0.09028333,886
0.09195,858
0.09361666,828
0.09528334,798
0.09695,792
0.09861667,786
0.1002833,869
0.10195,952
0.1036167,1006
0.1052833,855
0.10695,1006
0.1086167,789
0.1102833,801
0.11195,1005
0.1136167,1019
0.1152833,979
0.11695,961
0.1186167,840
0.1202833,1016
0.12195,994
0.1236167,834
0.1252833,1065
0.12695,851
0.1286167,1075
0.1302833,1014
0.13195,650
0.1336167,1022
0.1352833,898
0.13695,960
0.1386167,960
0.1402833,890
0.14195,812
0.1436167,923
0.1452833,968
0.14695,935
0.1486167,902
0.1502833,1015
0.15195,743
0.1536167,905
0.1552833,941
0.15695,941
0.1586167,822
0.1602833,788
0.16195,804
0.1636167,747
0.1652833,800
0.16695,853
0.1686167,928
0.1702833,931
0.17195,915
0.1736167,817
0.1752833,962
0.17695,799
0.1786167,1013
0.1802833,970
0.18195,887
0.1836167,834
0.1852833,933
0.18695,820
0.1886167,836
0.1902833,852
0.19195,900
0.1936167,948
0.1952833,782
0.19695,843
0.1986167,903
0.2002833,834
0.20195,874
0.2036167,1051
0.2052833,1046
0.2069667,1090
0.2086167,1115
0.2103,739
0.21195,959
0.2136167,1076
0.2152833,968
0.21695,1163
0.2186167,1195
0.2202833,882
0.22195,1347
0.2236167,929
0.2252833,1039
0.22695,1094
0.2286167,1019
0.2302833,1023
0.23195,1026
0.2336167,999
0.2352833,1148
0.23695,1157
0.2386167,1087
0.2402833,1115
0.24195,1034
0.2436333,954
0.2452833,1128
0.24695,1264
0.2486167,1331
0.2502833,1377
0.2519667,989
0.2536167,1119
0.2552833,1266
0.25695,1101
0.2586167,1192
0.2603,1147
0.2619667,1175
0.2636333,1143
0.2652833,967
0.26695,1210
0.2686333,1047
0.2702833,1114
0.27195,1158
0.2736167,1192
0.2752833,876
0.27695,1096
0.2786167,1138
0.2803,918
0.28195,1207
0.2836167,846
0.2852833,979
0.2869667,967
0.2886167,1107
0.2903,1143
0.29195,945
0.2936333,1080
0.2952833,1121
0.29695,1169
0.2986333,979
0.3002833,1213
0.30195,962
0.3036167,870
0.3052833,1071
0.30695,1204
0.3086167,1223
0.3102833,1192
0.31195,1297
0.3136167,1215
0.3153,1133
0.31695,1167
0.3186167,1201
0.3203,1152
0.32195,1118
0.3236167,1083
0.3253,1101
0.32695,1119
0.3286333,1010
0.3302833,901
0.33195,1213
0.3336333,1249
0.3353,1304
0.3369667,1322
0.3386167,980
0.3403,1231
0.3419667,1107
0.3436333,1362
0.3453,1242
0.34695,1259
0.3486333,1523
0.3503,1438
0.3519667,1384
0.3536333,1319
0.3553,1330
0.3569667,1313
0.3586333,1367
0.3602833,1209
0.3619667,1323
0.3636167,1437
0.3653,1659
0.36695,2921
0.3686333,3725
0.3703,3775
0.3719667,3904
0.3736333,4051
0.3753,3971
0.3769667,3614
0.3786333,3799
0.3803,3477
0.3819667,3123
0.3836167,2633
0.3853,2699
0.3869667,1751
0.3886333,1605
0.3903,1135
0.3919667,1006
0.3936333,884
0.3953,663
0.3969667,685
0.3986333,676
0.4003,529
0.4019667,479
0.4036333,557
0.4053,513
0.4069667,497
0.4086333,544
0.4103,586
0.4119667,589
0.4136333,582
0.4153,614
0.4169667,646
0.4186333,715
0.4203,776
0.4219667,837
0.4236333,838
0.4253,566
0.4269667,859
0.4286333,829
0.4303,759
0.4319667,904
0.4336333,868
0.4353,921
0.4369667,825
0.4386333,1000
0.4403,1029
0.4419667,985
0.4436333,994
0.4453,1003
0.4469667,1029
0.4486333,1056
0.4503,1264
0.4519667,1220
0.4536333,1298
0.4553,1293
0.4569667,1289
0.4586333,1707
0.4603,1751
0.4619667,1546
0.4636333,1569
0.4653,1537
0.4669667,1501
0.4686333,1465
0.4703,1486
0.4719667,1506
0.4736333,1484
0.4753,1449
0.4769667,1413
0.4786333,1562
0.4803,1468
0.4819667,1375
0.4836333,1436
0.4853,1371
0.4869667,1456
0.4886333,1297
0.4903,1209
0.4919667,1333
0.4936333,1206
0.4953,864
0.4969667,1312
0.4986333,1168
0.5003,1234
0.5019667,1334
0.5036333,885
0.5053,1118
0.5069667,1041
0.5086333,1083
0.5103,911
0.5119666,778
0.5136333,965
0.5153,923
0.5169666,881
0.5186333,933
0.5203,924
0.5219667,961
0.5236334,935
0.5253,734
0.5269667,1008
0.5286334,910
0.5303,884
0.5319667,858
0.5336334,878
0.5353,1101
0.5369667,1190
0.5386333,1053
0.5403,950
0.5419667,879
0.5436333,1141
0.5453,775
0.5469667,862
0.5486333,1087
0.5503,1021
0.5519667,937
0.5536333,996
0.5553,907
0.5569667,818
0.5586333,897
0.5603,902
0.5619667,907
0.5636333,856
0.5653,898
0.5669667,873
0.5686333,1015
0.5703,991
0.5719666,954
0.5736333,699
0.5753,1053
0.5769666,890
0.5786333,832
0.5803,841
0.5819666,898
0.5836333,888
0.5853,878
0.5869667,1063
0.5886334,1074
0.5903,1000
0.5919667,935
0.5936334,877
0.5953,925
0.5969667,974
0.5986333,918
0.6003,862
0.6019667,970
0.6036333,962
0.6053,1144
0.6069667,677
0.6086333,855
0.6103,939
0.6119667,1018
0.6136333,970
0.6153,854
0.6169667,900
0.6186333,791
0.6203,817
0.6219667,843
0.6236333,889
0.6253,841
0.6269667,793
0.6286333,893
0.6303,842
0.6319667,830
0.6336333,960
0.6353,660
0.6369666,893
0.6386333,1016
0.6403,769
0.6419666,1020
0.6436333,1024
0.6453,978
0.6469667,935
0.6486334,924
0.6503,866
0.6519667,809
0.6536334,921
0.6553,896
0.6569667,868
0.6586334,840
0.6603,871
0.6619667,902
0.6636333,742
0.6653,940
0.6669667,976
0.6686333,710
0.6703,829
0.6719667,636
0.6736333,696
0.6753,934
0.6769667,943
0.6786333,913
0.6803,899
0.6819667,884
0.6836333,940
0.6853,1026
0.6869667,996
0.6886333,833
0.6903,848
0.6919667,934
0.6936333,550
0.6953,1008
0.6969666,887
0.6986333,917
0.7003,898
0.7019666,888
0.7036333,877
0.7053,567
0.7069666,870
0.7086333,899
0.7103,790
0.7119667,898
0.7136334,926
0.7153,856
0.7169667,837
0.7186334,935
0.7203,737
0.7219667,921
0.7236333,885
0.7253,948
0.7269667,927
0.7286333,1038
0.7303,712
0.7319667,1002
0.7336333,887
0.7353,813
0.7369667,765
0.7386333,767
0.7403,769
0.7419667,932
0.7436333,872
0.7453,811
0.7469667,805
0.7486333,941
0.7503,974
0.7519667,888
0.7536333,887
0.7553,975
0.7569667,916
0.7586333,993
0.7603,888
0.7619666,751
0.7636333,1059
0.7653,973
0.7669666,843
0.7686333,1027
0.7703,877
0.7719667,810
0.7736334,985
0.7753,950
0.7769667,808
0.7786334,1021
0.7803,767
0.7819667,856
0.7836334,1028
0.7853,881
0.7869667,1012
0.7886333,950
0.7903,799
0.7919667,1033
0.7936333,800
0.7953,804
0.7969667,987
0.7986333,807
0.8003,808
0.8019667,750
0.8036333,867
0.8053,866
0.8069667,937
0.8086333,656
0.8103,857
0.8119667,1010
0.8136333,991
0.8153,953
0.8169667,914
0.8186333,973
0.8203,749
0.8219666,982
0.8236333,883
0.8253,801
0.8269666,733
0.8286333,956
0.8303,972
0.8319666,910
0.8336333,818
0.8353,759
0.8369667,1009
0.8386334,910
0.8403,886
0.8419667,931
0.8436334,962
0.8453,1011
0.8469667,779
0.8486333,772
0.8503,799
0.8519667,837
0.8536333,874
0.8553,807
0.8569667,740
0.8586333,886
0.8603,748
0.8619667,811
0.8636333,967
0.8653,911
0.8669667,893
0.8686333,875
0.8703,907
0.8719667,728
0.8736333,896
0.8753,854
0.8769667,967
0.8786333,794
0.8803,999
0.8819667,1177
0.8836333,1106
0.8853,1244
0.8869666,1162
0.8886333,1038
0.8903,1077
0.8919666,1049
0.8936333,1021
0.8953,1124
0.8969667,1324
0.8986334,1251
0.9003,1319
0.9019667,1391
0.9036334,1185
0.9053,1400
0.9069667,1213
0.9086334,1103
0.9103,1227
0.9119667,1244
0.9136333,1023
0.9153,1136
0.9169667,1118
0.9186333,1099
0.9203,1217
0.9219667,1334
0.9236333,1420
0.9253,1151
0.9269667,1086
0.9286333,1259
0.9303,1109
0.9319667,1158
0.9336333,1199
0.9353,1202
0.9369667,1205
0.9386333,1110
0.9403,1157
0.9419667,1121
0.9436333,1151
0.9453,1124
0.9469666,1147
0.9486333,1170
0.9503,1066
0.9519666,1020
0.9536333,905
0.9553,986
0.9569666,1066
0.9586333,1133
0.9603,1220
0.9619667,1116
0.9636334,981
0.9653,921
0.9669667,1068
0.9686334,890
0.9703,1096
0.9719667,841
0.9736333,1076
0.9753,993
0.9769667,925
0.9786333,837
0.9803,960
0.9819667,795
0.9836333,1049
0.9853,1128
0.9869667,940
0.9886333,800
0.9903,869
0.9919667,916
0.9936333,780
0.9953,905
0.9969667,966
0.9986333,640
1.0003,910
1.001967,745
1.003633,955
1.0053,797
1.006967,826
1.008633,880
1.0103,817
1.011967,754
1.013633,895
1.0153,713
1.016967,876
1.018633,788
1.0203,896
1.021967,813
1.023633,794
1.0253,775
1.026967,847
1.028633,918
1.0303,923
1.031967,796
1.033633,784
1.0353,785
1.036967,1004
1.038633,1030
1.0403,892
1.041967,792
1.043633,1014
1.0453,945
1.046967,1010
1.048633,894
1.0503,969
1.051967,821
1.053633,735
1.0553,957
1.056967,995
1.058633,1068
1.0603,1021
1.061967,804
1.063633,924
1.0653,836
1.066967,966
1.068633,904
1.0703,991
1.071967,776
1.073633,891
1.0753,909
1.076967,852
1.078633,912
1.0803,754
1.081967,905
1.083633,858
1.0853,811
1.086967,901
1.088633,840
1.0903,814
1.091967,789
1.093633,866
1.0953,943
1.096967,946
1.098633,856
1.1003,804
1.101967,844
1.103633,871
1.1053,870
1.106967,869
1.108633,810
1.1103,750
1.111967,1003
1.113633,977
1.1153,790
1.116967,1028
1.118633,805
1.1203,711
1.121967,850
1.123633,995
1.1253,983
1.126967,774
1.128633,1238
1.1303,1078
1.131967,885
1.133633,767
1.1353,826
1.136967,699
1.138633,784
1.1403,868
1.141967,888
1.143633,864
1.1453,840
1.146967,777
1.148633,1022
1.1503,1071
1.151967,754
1.153633,860
1.1553,1059
1.156967,956
1.158633,922
1.1603,836
1.161967,812
1.163633,876
1.1653,855
1.166967,834
1.168633,838
1.1703,625
1.171967,899
1.173633,800
1.1753,748
1.176967,942
1.178633,860
1.1803,810
1.181967,811
1.183633,728
1.1853,779
1.186967,829
1.188633,1007
1.1903,1020
1.191967,932
1.193633,901
1.1953,912
1.196967,938
1.198633,722
