"SampleName","A2Rd2_02-91"
"Target Mass 1",
"Column Name","IA-3 (3um, 4.6X100)"
"Channel","QDa 1: SIR Ch1"
0.00195,440
0.003616667,524
0.005283333,614
0.00695,680
0.008616666,613
0.01028333,545
0.01195,656
0.01361667,585
0.01528333,613
0.01695,642
0.01861667,554
0.02028333,458
0.02195,655
0.02361667,622
0.02528333,485
0.02695,731
0.02861667,714
0.03028333,726
0.03195,573
0.03361667,587
0.03528333,505
0.03695,614
0.03861667,559
0.04028333,627
0.04195,549
0.04361667,610
0.04528333,587
0.04695,631
0.04861667,620
0.05028334,610
0.05195,596
0.05361667,582
0.05528333,627
0.05695,677
0.05861667,709
0.06028333,607
0.06195,538
0.06361666,540
0.06528334,551
0.06695,562
0.06861667,575
0.07028333,641
0.07195,630
0.07361667,622
0.07528333,520
0.07695,520
0.07861666,508
0.08028334,486
0.08195,514
0.08361667,542
0.08528333,518
0.08695,495
0.08861667,532
0.09028333,570
0.09195,532
0.09361666,493
0.09528334,500
0.09695,468
0.09861667,436
0.1002833,507
0.10195,467
0.1036167,428
0.1052833,572
0.10695,559
0.1086167,631
0.1102833,408
0.11195,491
0.1136167,526
0.1152833,528
0.11695,530
0.1186167,642
0.1202833,631
0.12195,648
0.1236167,469
0.1252833,420
0.12695,709
0.1286167,383
0.1302833,576
0.13195,644
0.1336167,704
0.1352833,601
0.13695,487
0.1386167,570
0.1402833,611
0.14195,569
0.1436167,527
0.1452833,503
0.14695,569
0.1486167,542
0.1502833,516
0.15195,764
0.1536167,753
0.1552833,588
0.15695,621
0.1586167,722
0.1602833,574
0.16195,635
0.1636167,607
0.1652833,646
0.16695,686
0.1686167,509
0.1702833,688
0.17195,573
0.1736167,556
0.1752833,612
0.17695,533
0.1786167,645
0.1802833,659
0.18195,419
0.1836167,491
0.1852833,598
0.18695,469
0.1886167,592
0.1902833,533
0.19195,520
0.1936167,560
0.1952833,544
0.19695,528
0.1986167,571
0.2002833,533
0.20195,496
0.2036167,526
0.2052833,557
0.20695,625
0.2086167,597
0.2102833,568
0.21195,610
0.2136167,650
0.2152833,690
0.21695,537
0.2186167,508
0.2202833,519
0.22195,582
0.2236167,583
0.2252833,568
0.22695,542
0.2286167,360
0.2302833,476
0.23195,565
0.2336167,544
0.2352833,660
0.23695,696
0.2386167,652
0.2402833,504
0.24195,478
0.2436167,667
0.2452833,675
0.24695,553
0.2486167,598
0.2502833,509
0.25195,520
0.2536167,583
0.2552833,514
0.25695,580
0.2586167,540
0.2602833,628
0.26195,604
0.2636167,532
0.2652833,629
0.26695,666
0.2686167,368
0.2702833,490
0.27195,590
0.2736167,563
0.2752833,689
0.27695,676
0.2786167,526
0.2803,516
0.28195,600
0.2836167,554
0.2852833,466
0.28695,544
0.2886167,431
0.2902833,641
0.29195,663
0.2936167,664
0.2952833,642
0.29695,645
0.2986333,647
0.3002833,603
0.30195,717
0.3036167,691
0.3052833,554
0.30695,683
0.3086333,581
0.3102833,641
0.31195,622
0.3136167,595
0.3153,614
0.31695,633
0.3186167,490
0.3202833,541
0.32195,640
0.3236167,643
0.3252833,548
0.32695,542
0.3286167,533
0.3302833,513
0.33195,485
0.3336333,491
0.3352833,500
0.33695,508
0.3386167,592
0.3402833,583
0.34195,574
0.3436167,617
0.3452833,520
0.34695,424
0.3486167,557
0.3503,598
0.35195,495
0.3536167,504
0.3553,553
0.35695,555
0.3586333,556
0.3602833,667
0.36195,760
0.3636333,1057
0.3653,1383
0.36695,1937
0.3686333,2320
0.3702833,3168
0.3719667,3613
0.3736167,3474
0.3752833,3497
0.37695,3351
0.3786167,3805
0.3803,4040
0.38195,3964
0.3836167,3888
0.3853,3835
0.38695,3781
0.3886333,3462
0.3903,2492
0.39195,2446
0.3936167,2236
0.3952833,1665
0.3969667,1259
0.3986167,1235
0.4002833,1152
0.40195,1031
0.4036333,1040
0.4053,1034
0.4069667,1000
0.4086333,1057
0.4102833,1046
0.41195,1013
0.4136333,1104
0.4152833,1173
0.41695,897
0.4186167,1057
0.4203,1028
0.4219667,1054
0.4236333,1080
0.4253,1270
0.4269667,1222
0.4286167,1139
0.4303,1217
0.43195,2000
0.4336167,1792
0.4352833,2788
0.43695,5187
0.4386333,8592
0.4403,15208
0.4419667,24680
0.4436167,39776
0.4453,59776
0.4469667,84208
0.4486333,112256
0.4503,143232
0.4519667,178432
0.4536333,209920
0.4553,246912
0.4569667,285120
0.4586333,309376
0.4603,328960
0.4619667,348992
0.4636333,360640
0.4653,368832
0.4669667,369600
0.4686333,363584
0.4703,369856
0.4719667,369152
0.4736333,370112
0.4753,376192
0.4769667,382080
0.4786333,388736
0.4803,396352
0.4819667,396160
0.4836333,401152
0.4853,397952
0.4869667,392448
0.4886333,377024
0.4903,348672
0.4919667,320256
0.4936333,295552
0.4953,259840
0.4969667,229632
0.4986333,193792
0.5003,163776
0.5019667,143680
0.5036333,120208
0.5053,97488
0.5069667,86208
0.5086333,70832
0.5103,55520
0.5119666,45728
0.5136333,39760
0.5153,31976
0.5169666,28068
0.5186333,22540
0.5203,19152
0.5219667,16308
0.5236334,14476
0.5253,12548
0.5269667,11516
0.5286334,10136
0.5303,9428
0.5319667,8440
0.5336334,7157
0.5353,6861
0.5369667,6692
0.5386333,6808
0.5403,6143
0.5419667,5213
0.5436333,5060
0.5453,4942
0.5469667,4576
0.5486333,4814
0.5503,4309
0.5519667,4271
0.5536333,4155
0.5553,3909
0.5569667,3647
0.5586333,3675
0.5603,3277
0.5619667,3469
0.5636333,3563
0.5653,3008
0.5669667,3488
0.5686333,3162
0.5703,2914
0.5719666,2913
0.5736333,2733
0.5753,2481
0.5769666,2476
0.5786333,2354
0.5803,2418
0.5819666,2363
0.5836333,2362
0.5853,2360
0.5869667,2306
0.5886334,2145
0.5903,2080
0.5919667,2005
0.5936334,2165
0.5953,2357
0.5969667,2264
0.5986333,2149
0.6003,1968
0.6019667,2060
0.6036333,2033
0.6053,1677
0.6069667,1725
0.6086333,1854
0.6103,1581
0.6119667,1645
0.6136333,1752
0.6153,1751
0.6169667,1649
0.6186333,1709
0.6203,1565
0.6219667,1425
0.6236333,1764
0.6253,1708
0.6269667,1633
0.6286333,1590
0.6303,1340
0.6319667,1416
0.6336333,1534
0.6353,1349
0.6369666,1450
0.6386333,1416
0.6403,1359
0.6419666,1228
0.6436333,1204
0.6453,1277
0.6469667,1281
0.6486334,1244
0.6503,1130
0.6519667,1211
0.6536334,1264
0.6553,1395
0.6569667,1383
0.6586334,1266
0.6603,1070
0.6619667,1397
0.6636333,1409
0.6653,1341
0.6669667,1148
0.6686333,1187
0.6703,1393
0.6719667,1242
0.6736333,1391
0.6753,1163
0.6769667,1141
0.6786333,1327
0.6803,1110
0.6819667,908
0.6836333,1232
0.6853,1027
0.6869667,1237
0.6886333,1190
0.6903,1337
0.6919667,1022
0.6936333,1159
0.6953,1246
0.6969666,1044
0.6986333,1088
0.7003,1057
0.7019666,1079
0.7036333,1021
0.7053,1111
0.7069666,1074
0.7086333,1010
0.7103,946
0.7119667,992
0.7136334,961
0.7153,929
0.7169667,1163
0.7186334,1105
0.7203,986
0.7219667,977
0.7236333,994
0.7253,1012
0.7269667,1043
0.7286333,1061
0.7303,917
0.7319667,1062
0.7336333,1059
0.7353,1006
0.7369667,955
0.7386333,1052
0.7403,1024
0.7419667,995
0.7436333,1112
0.7453,1109
0.7469667,1097
0.7486333,970
0.7503,991
0.7519667,908
0.7536333,936
0.7553,965
0.7569667,968
0.7586333,971
0.7603,966
0.7619666,962
0.7636333,1056
0.7653,1129
0.7669666,861
0.7686333,1035
0.7703,1099
0.7719667,979
0.7736334,959
0.7753,1012
0.7769667,1025
0.7786334,1037
0.7803,843
0.7819667,1055
0.7836334,1185
0.7853,994
0.7869667,937
0.7886333,1047
0.7903,984
0.7919667,1005
0.7936333,1026
0.7953,1021
0.7969667,1016
0.7986333,875
0.8003,937
0.8019667,972
0.8036333,1008
0.8053,1046
0.8069667,1084
0.8086333,922
0.8103,1119
0.8119667,888
0.8136333,1153
0.8153,1297
0.8169667,1040
0.8186333,995
0.8203,998
0.8219666,1010
0.8236333,1021
0.8253,1037
0.8269666,1054
0.8286333,1113
0.8303,1174
0.8319666,886
0.8336333,1146
0.8353,1191
0.8369667,1143
0.8386334,1050
0.8403,1117
0.8419667,920
0.8436334,866
0.8453,972
0.8469667,1085
0.8486333,1084
0.8503,1114
0.8519667,996
0.8536333,1045
0.8553,1061
0.8569667,976
0.8586333,1048
0.8603,978
0.8619667,1123
0.8636333,1117
0.8653,984
0.8669667,889
0.8686333,1034
0.8703,898
0.8719667,807
0.8736333,1037
0.8753,1039
0.8769667,1258
0.8786333,1654
0.8803,1797
0.8819667,2069
0.8836333,2806
0.8853,3305
0.8869666,3575
0.8886333,3717
0.8903,3914
0.8919666,3890
0.8936333,3887
0.8953,3932
0.8969667,3962
0.8986334,4041
0.9003,3698
0.9019667,4059
0.9036334,3999
0.9053,3884
0.9069667,4006
0.9086334,3964
0.9103,4059
0.9119667,4120
0.9136333,3808
0.9153,3659
0.9169667,3731
0.9186333,3924
0.9203,4051
0.9219667,3993
0.9236333,3592
0.9253,3580
0.9269667,3767
0.9286333,3684
0.9303,3601
0.9319667,3366
0.9336333,3819
0.9353,3250
0.9369667,3608
0.9386333,3555
0.9403,3319
0.9419667,2942
0.9436333,2970
0.9453,2883
0.9469666,2879
0.9486333,2820
0.9503,2599
0.9519666,2614
0.9536333,2241
0.9553,2753
0.9569666,2498
0.9586333,2439
0.9603,2084
0.9619667,2089
0.9636334,1968
0.9653,2064
0.9669667,1887
0.9686334,1831
0.9703,1675
0.9719667,1451
0.9736333,1396
0.9753,1394
0.9769667,1256
0.9786333,1252
0.9803,1203
0.9819667,1199
0.9836333,1038
0.9853,984
0.9869667,877
0.9886333,1114
0.9903,725
0.9919667,804
0.9936333,867
0.9953,772
0.9969667,841
0.9986333,877
1.0003,796
1.001967,573
1.003633,708
1.0053,676
1.006967,758
1.008633,758
1.0103,641
1.011967,607
1.013633,682
1.0153,617
1.016967,553
1.018633,479
1.0203,701
1.021967,650
1.023633,705
1.0253,719
1.026967,647
1.028633,755
1.0303,675
1.031967,692
1.033633,724
1.0353,756
1.036967,745
1.038633,670
1.0403,655
1.041967,747
1.043633,738
1.0453,620
1.046967,692
1.048633,777
1.0503,741
1.051967,704
1.053633,665
1.0553,705
1.056967,515
1.058633,797
1.0603,853
1.061967,756
1.063633,856
1.0653,775
1.066967,640
1.068633,674
1.0703,709
1.071967,682
1.073633,656
1.0753,628
1.076967,686
1.078633,747
1.0803,826
1.081967,782
1.083633,794
1.0853,884
1.086967,896
1.088633,753
1.0903,872
1.091967,841
1.093633,870
1.0953,988
1.096967,569
1.098633,840
1.1003,762
1.101967,833
1.103633,802
1.1053,716
1.106967,752
1.108633,743
1.1103,734
1.111967,856
1.113633,849
1.1153,780
1.116967,733
1.118633,679
1.1203,771
1.121967,703
1.123633,636
1.1253,869
1.126967,794
1.128633,818
1.1303,854
1.131967,741
1.133633,859
1.1353,593
1.136967,844
1.138633,875
1.1403,792
1.141967,677
1.143633,882
1.1453,889
1.146967,626
1.148633,840
1.1503,835
1.151967,906
1.153633,740
1.1553,716
1.156967,834
1.158633,835
1.1603,1012
1.161967,1007
1.163633,687
1.1653,825
1.166967,733
1.168633,873
1.1703,804
1.171967,735
1.173633,911
1.1753,879
1.176967,773
1.178633,949
1.1803,849
1.181967,789
1.183633,825
1.1853,860
1.186967,789
1.188633,847
1.1903,1133
1.191967,1117
1.193633,971
1.1953,995
1.196967,971
1.198633,1056
