"SampleName","standard"
"Target Mass 1",
"Column Name","IA-3 (3um, 4.6X100)"
"Channel","QDa 1: SIR Ch1"
0.00195,380
0.003616667,408
0.005283333,500
0.00695,436
0.008616666,441
0.01028333,422
0.01195,414
0.01361667,407
0.01528333,408
0.01695,418
0.01861667,429
0.02028333,440
0.02195,451
0.02361667,380
0.02528333,421
0.02695,395
0.02861667,368
0.03028333,466
0.03195,493
0.03361667,399
0.03528333,478
0.03695,509
0.03861667,460
0.04028333,422
0.04195,405
0.04361667,336
0.04528333,281
0.04695,372
0.04861667,419
0.05028334,406
0.05195,392
0.05361667,291
0.05528333,427
0.05695,327
0.05861667,418
0.06028333,409
0.06195,397
0.06361666,379
0.06528334,360
0.06695,330
0.06861667,301
0.07028333,333
0.07195,346
0.07361667,359
0.07528333,384
0.07695,400
0.07861666,400
0.08028334,399
0.08195,396
0.08361667,472
0.08528333,490
0.08695,475
0.08861667,445
0.09028333,415
0.09195,431
0.09361666,432
0.09528334,400
0.09695,342
0.09861667,510
0.1002833,499
0.10195,316
0.1036167,361
0.1052833,439
0.10695,497
0.1086167,468
0.1102833,425
0.11195,355
0.1136167,400
0.1152833,389
0.11695,515
0.1186167,451
0.1202833,387
0.12195,452
0.1236167,437
0.1252833,463
0.12695,301
0.1286167,387
0.1302833,590
0.13195,520
0.1336167,351
0.1352833,462
0.13695,481
0.1386167,374
0.1402833,452
0.14195,411
0.1436167,432
0.1452833,479
0.14695,540
0.1486167,530
0.1502833,406
0.15195,388
0.1536167,462
0.1552833,327
0.15695,472
0.1586167,452
0.1602833,358
0.16195,464
0.1636167,360
0.1652833,391
0.16695,369
0.1686167,405
0.1702833,409
0.17195,413
0.1736167,439
0.1752833,437
0.17695,473
0.1786167,351
0.1802833,449
0.18195,334
0.1836167,488
0.1852833,477
0.18695,341
0.1886167,480
0.1902833,517
0.19195,393
0.1936167,359
0.1952833,415
0.19695,527
0.1986167,570
0.2002833,510
0.20195,282
0.2036167,497
0.2052833,391
0.20695,520
0.2086167,500
0.2102833,440
0.21195,424
0.2136167,424
0.2152833,423
0.21695,494
0.2186167,498
0.2202833,501
0.22195,355
0.2236167,384
0.2252833,427
0.22695,525
0.2286167,483
0.2302833,423
0.23195,415
0.2336167,494
0.2352833,415
0.23695,439
0.2386167,390
0.2402833,282
0.24195,435
0.2436167,321
0.2452833,521
0.24695,543
0.2486167,624
0.2502833,345
0.25195,390
0.2536167,419
0.2552833,419
0.25695,419
0.2586167,395
0.2602833,411
0.26195,375
0.2636167,340
0.2652833,383
0.26695,427
0.2686167,441
0.2702833,455
0.27195,428
0.2736167,402
0.2752833,275
0.27695,414
0.2786167,410
0.2803,406
0.28195,439
0.2836333,473
0.2852833,344
0.28695,471
0.2886167,442
0.2902833,369
0.29195,402
0.2936167,387
0.2952833,373
0.29695,429
0.2986333,399
0.3002833,370
0.30195,449
0.3036167,438
0.3052833,449
0.3069667,398
0.3086167,354
0.3102833,392
0.31195,431
0.3136167,440
0.3153,369
0.31695,365
0.3186167,428
0.3202833,417
0.32195,448
0.3236167,479
0.3252833,290
0.32695,465
0.3286167,351
0.3303,465
0.33195,381
0.3336333,343
0.3352833,407
0.3369667,471
0.3386167,455
0.3402833,393
0.34195,330
0.3436167,475
0.3453,424
0.34695,495
0.3486167,339
0.3503,457
0.35195,370
0.3536333,351
0.3552833,403
0.3569667,414
0.3586167,373
0.3602833,417
0.3619667,334
0.3636167,349
0.3652833,361
0.3669667,372
0.3686333,374
0.3703,376
0.37195,389
0.3736167,464
0.3752833,537
0.37695,517
0.3786333,399
0.3802833,444
0.38195,471
0.3836167,492
0.3853,558
0.3869667,596
0.3886167,623
0.3903,616
0.39195,632
0.3936333,480
0.3953,633
0.3969667,554
0.3986167,533
0.4003,578
0.4019667,513
0.4036333,482
0.4053,540
0.4069667,450
0.4086333,484
0.4103,519
0.4119667,550
0.4136333,544
0.4152833,604
0.4169667,589
0.4186333,575
0.4203,542
0.4219667,510
0.4236167,492
0.4253,460
0.42695,428
0.4286333,513
0.4303,703
0.4319667,730
0.4336333,721
0.4353,678
0.4369667,700
0.4386333,761
0.4403,1102
0.4419667,1303
0.4436333,1984
0.4453,2837
0.4469667,4786
0.4486333,7000
0.4503,10372
0.4519667,13552
0.4536333,19556
0.4553,24596
0.4569667,30708
0.4586333,35696
0.4603,39648
0.4619667,44560
0.4636333,48032
0.4653,50304
0.4669667,51568
0.4686333,55872
0.4703,55856
0.4719667,57408
0.4736333,59440
0.4753,58736
0.4769667,57248
0.4786333,55376
0.4803,48736
0.4819667,44320
0.4836333,37408
0.4853,32660
0.4869667,27332
0.4886333,21296
0.4903,16428
0.4919667,13708
0.4936333,11400
0.4953,8964
0.4969667,6861
0.4986333,5128
0.5003,4562
0.5019667,3804
0.5036333,3103
0.5053,2297
0.5069667,2576
0.5086333,1978
0.5103,1795
0.5119666,1645
0.5136333,1700
0.5153,1417
0.5169666,1206
0.5186333,1296
0.5203,1097
0.5219667,1046
0.5236334,1084
0.5253,1106
0.5269667,809
0.5286334,1021
0.5303,931
0.5319667,926
0.5336334,839
0.5353,844
0.5369667,753
0.5386333,725
0.5403,727
0.5419667,656
0.5436333,668
0.5453,616
0.5469667,565
0.5486333,596
0.5503,627
0.5519667,795
0.5536333,806
0.5553,791
0.5569667,765
0.5586333,707
0.5603,775
0.5619667,771
0.5636333,524
0.5653,484
0.5669667,685
0.5686333,548
0.5703,568
0.5719666,529
0.5736333,594
0.5753,616
0.5769666,660
0.5786333,477
0.5803,614
0.5819666,501
0.5836333,636
0.5853,722
0.5869667,481
0.5886334,420
0.5903,456
0.5919667,442
0.5936334,468
0.5953,493
0.5969667,527
0.5986333,521
0.6003,514
0.6019667,484
0.6036333,453
0.6053,505
0.6069667,370
0.6086333,362
0.6103,386
0.6119667,338
0.6136333,289
0.6153,350
0.6169667,411
0.6186333,470
0.6203,529
0.6219667,527
0.6236333,384
0.6253,383
0.6269667,533
0.6286333,507
0.6303,523
0.6319667,498
0.6336333,341
0.6353,425
0.6369666,470
0.6386333,536
0.6403,494
0.6419666,349
0.6436333,409
0.6453,422
0.6469667,412
0.6486334,401
0.6503,409
0.6519667,417
0.6536334,307
0.6553,482
0.6569667,300
0.6586334,387
0.6603,519
0.6619667,360
0.6636333,344
0.6653,349
0.6669667,356
0.6686333,364
0.6703,396
0.6719667,429
0.6736333,451
0.6753,325
0.6769667,498
0.6786333,555
0.6803,366
0.6819667,451
0.6836333,406
0.6853,391
0.6869667,375
0.6886333,378
0.6903,381
0.6919667,404
0.6936333,298
0.6953,351
0.6969666,404
0.6986333,427
0.7003,389
0.7019666,508
0.7036333,487
0.7053,503
0.7069666,471
0.7086333,382
0.7103,322
0.7119667,384
0.7136334,427
0.7153,399
0.7169667,371
0.7186334,399
0.7203,426
0.7219667,441
0.7236333,429
0.7253,441
0.7269667,413
0.7286333,426
0.7303,438
0.7319667,364
0.7336333,352
0.7353,431
0.7369667,403
0.7386333,374
0.7403,341
0.7419667,308
0.7436333,449
0.7453,463
0.7469667,450
0.7486333,418
0.7503,385
0.7519667,316
0.7536333,379
0.7553,425
0.7569667,432
0.7586333,432
0.7603,432
0.7619666,385
0.7636333,377
0.7653,424
0.7669666,433
0.7686333,442
0.7703,363
0.7719667,391
0.7736334,366
0.7753,340
0.7769667,337
0.7786334,346
0.7803,381
0.7819667,441
0.7836334,413
0.7853,385
0.7869667,314
0.7886333,451
0.7903,403
0.7919667,445
0.7936333,467
0.7953,479
0.7969667,345
0.7986333,359
0.8003,440
0.8019667,403
0.8036333,371
0.8053,390
0.8069667,409
0.8086333,291
0.8103,412
0.8119667,417
0.8136333,384
0.8153,351
0.8169667,467
0.8186333,462
0.8203,433
0.8219666,407
0.8236333,447
0.8253,427
0.8269666,407
0.8286333,393
0.8303,420
0.8319666,384
0.8336333,348
0.8353,383
0.8369667,417
0.8386334,401
0.8403,319
0.8419667,377
0.8436334,425
0.8453,464
0.8469667,382
0.8486333,277
0.8503,428
0.8519667,481
0.8536333,442
0.8553,422
0.8569667,400
0.8586333,405
0.8603,410
0.8619667,340
0.8636333,402
0.8653,399
0.8669667,409
0.8686333,322
0.8703,363
0.8719667,376
0.8736333,398
0.8753,341
0.8769667,342
0.8786333,310
0.8803,377
0.8819667,468
0.8836333,472
0.8853,467
0.8869666,462
0.8886333,402
0.8903,376
0.8919666,377
0.8936333,408
0.8953,362
0.8969667,370
0.8986334,378
0.9003,289
0.9019667,326
0.9036334,363
0.9053,340
0.9069667,410
0.9086334,263
0.9103,269
0.9119667,276
0.9136333,434
0.9153,424
0.9169667,340
0.9186333,364
0.9203,353
0.9219667,386
0.9236333,384
0.9253,381
0.9269667,384
0.9286333,387
0.9303,376
0.9319667,387
0.9336333,238
0.9353,482
0.9369667,349
0.9386333,362
0.9403,251
0.9419667,232
0.9436333,390
0.9453,385
0.9469666,395
0.9486333,314
0.9503,407
0.9519666,348
0.9536333,297
0.9553,452
0.9569666,368
0.9586333,381
0.9603,311
0.9619667,414
0.9636334,348
0.9653,239
0.9669667,269
0.9686334,271
0.9703,335
0.9719667,314
0.9736333,293
0.9753,230
0.9769667,335
0.9786333,358
0.9803,324
0.9819667,330
0.9836333,361
0.9853,405
0.9869667,422
0.9886333,499
0.9903,252
0.9919667,442
0.9936333,429
0.9953,282
0.9969667,375
0.9986333,374
1.0003,372
1.001967,339
1.003633,306
1.0053,396
1.006967,247
1.008633,407
1.0103,450
1.011967,451
1.013633,345
1.0153,441
1.016967,437
1.018633,355
1.0203,422
1.021967,399
1.023633,376
1.0253,286
1.026967,434
1.028633,325
1.0303,478
1.031967,506
1.033633,465
1.0353,259
1.036967,393
1.038633,411
1.0403,401
1.041967,403
1.043633,404
1.0453,383
1.046967,399
1.048633,269
1.0503,464
1.051967,346
1.053633,309
1.0553,424
1.056967,427
1.058633,326
1.0603,370
1.061967,415
1.063633,498
1.0653,450
1.066967,289
1.068633,448
1.0703,408
1.071967,468
1.073633,302
1.0753,388
1.076967,345
1.078633,379
1.0803,423
1.081967,441
1.083633,415
1.0853,414
1.086967,339
1.088633,347
1.0903,285
1.091967,386
1.093633,386
1.0953,391
1.096967,396
1.098633,353
1.1003,387
1.101967,378
1.103633,369
1.1053,442
1.106967,454
1.108633,371
1.1103,434
1.111967,315
1.113633,353
1.1153,344
1.116967,335
1.118633,346
1.1203,286
1.121967,312
1.123633,338
1.1253,343
1.126967,348
1.128633,323
1.1303,381
1.131967,432
1.133633,399
1.1353,489
1.136967,464
1.138633,424
1.1403,383
1.141967,444
1.143633,310
1.1453,368
1.146967,387
1.148633,484
1.1503,468
1.151967,376
1.153633,400
1.1553,423
1.156967,343
1.158633,448
1.1603,457
1.161967,424
1.163633,423
1.1653,473
1.166967,396
1.168633,538
1.1703,305
1.171967,380
1.173633,409
1.1753,390
1.176967,372
1.178633,345
1.1803,319
1.181967,316
1.183633,312
1.1853,296
1.186967,368
1.188633,422
1.1903,409
1.191967,315
1.193633,470
1.1953,312
1.196967,341
1.198633,376
