"SampleName","A2Rd2_02-40"
"Target Mass 1",
"Column Name","IA-3 (3um, 4.6X100)"
"Channel","QDa 1: SIR Ch2"
0.00195,446
0.003616667,620
0.005283333,659
0.00695,836
0.008616666,857
0.01028333,740
0.01195,890
0.01361667,879
0.01528333,958
0.01695,893
0.01861667,830
0.02028333,747
0.02195,847
0.02361667,642
0.02528333,938
0.02695,917
0.02861667,1121
0.03028333,873
0.03195,691
0.03361667,1152
0.03528333,1100
0.03695,1036
0.03861667,1000
0.04028333,933
0.04195,873
0.04361667,991
0.04528333,870
0.04695,1102
0.04861667,693
0.05028334,965
0.05195,1072
0.05361667,812
0.05528333,930
0.05695,937
0.05861667,1034
0.06028333,943
0.06195,897
0.06361666,962
0.06528334,922
0.06695,883
0.06861667,893
0.07028333,918
0.07195,874
0.07361667,831
0.07528333,810
0.07695,864
0.07861666,885
0.08028334,750
0.08195,919
0.08361667,900
0.08528333,918
0.08695,919
0.08861667,781
0.09028333,962
0.09195,822
0.09361666,828
0.09528334,833
0.09695,789
0.09861667,950
0.1002833,964
0.10195,930
0.1036167,895
0.1052833,884
0.10695,860
0.1086167,836
0.1102833,768
0.11195,819
0.1136167,871
0.1152833,854
0.11695,805
0.1186167,757
0.1202833,792
0.12195,783
0.1236167,846
0.1252833,915
0.12695,935
0.1286167,895
0.1302833,854
0.13195,857
0.1336167,859
0.1352833,856
0.13695,859
0.1386167,968
0.1402833,997
0.14195,813
0.1436167,914
0.1452833,1135
0.14695,1051
0.1486167,797
0.1502833,1102
0.15195,1100
0.1536167,828
0.1552833,1024
0.15695,955
0.1586167,912
0.1602833,870
0.16195,824
0.1636167,888
0.1652833,863
0.16695,839
0.1686167,874
0.1702833,909
0.17195,770
0.1736167,766
0.1752833,762
0.17695,774
0.1786167,786
0.1802833,961
0.18195,969
0.1836167,856
0.1852833,1013
0.18695,866
0.1886167,963
0.1902833,854
0.19195,916
0.1936167,942
0.1952833,880
0.19695,1024
0.1986167,995
0.2002833,763
0.20195,892
0.2036167,836
0.2052833,891
0.20695,828
0.2086167,813
0.2102833,1007
0.21195,986
0.2136167,904
0.2152833,852
0.21695,800
0.2186167,800
0.2202833,800
0.22195,996
0.2236167,1152
0.2252833,1023
0.22695,1168
0.2286167,1181
0.2302833,1219
0.23195,1179
0.2336167,1144
0.2352833,1222
0.23695,1042
0.2386167,1080
0.2402833,1088
0.24195,1096
0.2436167,986
0.2452833,1102
0.24695,1200
0.2486167,948
0.2502833,1191
0.25195,1263
0.2536167,1100
0.2552833,1153
0.25695,1168
0.2586167,1190
0.2602833,1171
0.26195,1152
0.2636167,1278
0.2652833,1037
0.26695,1095
0.2686167,1210
0.2702833,1147
0.27195,1079
0.2736167,1159
0.2752833,1029
0.27695,938
0.2786167,1063
0.2803,1093
0.28195,951
0.2836167,1022
0.2852833,875
0.28695,999
0.2886167,1124
0.2902833,1098
0.29195,1129
0.2936167,1028
0.2952833,1121
0.29695,1018
0.2986333,1160
0.3002833,1124
0.30195,1135
0.3036167,1083
0.3052833,1099
0.30695,1116
0.3086167,1077
0.3102833,1038
0.31195,1389
0.3136167,1442
0.3153,1076
0.31695,1381
0.3186167,1256
0.3202833,1299
0.3219667,1196
0.3236167,1276
0.3253,1356
0.3269667,1332
0.3286333,1415
0.3302833,1124
0.3319667,1297
0.3336333,1170
0.3353,1180
0.3369667,1153
0.3386333,1127
0.3402833,1104
0.3419667,1081
0.3436167,1027
0.3453,1121
0.3469667,1081
0.3486333,1041
0.3503,1091
0.3519667,1091
0.3536333,1092
0.3553,1232
0.3569667,1228
0.3586333,1223
0.3602833,1241
0.3619667,1259
0.3636333,1623
0.3653,1666
0.3669667,2918
0.3686333,3600
0.3703,2857
0.3719667,3175
0.3736333,3505
0.3753,3196
0.3769667,3333
0.3786333,3423
0.3803,2997
0.3819667,3059
0.3836333,2780
0.3853,2141
0.3869667,1780
0.3886333,1623
0.3903,1565
0.3919667,1079
0.3936333,1168
0.3953,589
0.3969667,644
0.3986333,441
0.4003,508
0.4019667,444
0.4036333,509
0.4053,476
0.4069667,487
0.4086333,498
0.4103,767
0.4119667,698
0.4136333,675
0.4153,657
0.4169667,656
0.4186333,655
0.4203,749
0.4219667,662
0.4236333,575
0.4253,954
0.4269667,904
0.4286333,871
0.4303,824
0.4319667,622
0.4336333,896
0.4353,1058
0.4369667,1075
0.4386333,1028
0.4403,978
0.4419667,954
0.4436333,954
0.4453,1086
0.4469667,1166
0.4486333,1172
0.4503,1184
0.4519667,1337
0.4536333,1412
0.4553,1450
0.4569667,1286
0.4586333,1249
0.4603,1154
0.4619667,1454
0.4636333,1491
0.4653,1470
0.4669667,1512
0.4686333,1554
0.4703,1529
0.4719667,1505
0.4736333,1658
0.4753,1367
0.4769667,1194
0.4786333,1461
0.4803,1490
0.4819667,1574
0.4836333,1492
0.4853,1409
0.4869667,1458
0.4886333,1344
0.4903,1413
0.4919667,1331
0.4936333,1173
0.4953,1200
0.4969667,1241
0.4986333,1221
0.5003,1131
0.5019667,1184
0.5036333,1071
0.5053,1092
0.5069667,790
0.5086333,832
0.5103,1050
0.5119666,1077
0.5136333,1110
0.5153,906
0.5169666,1032
0.5186333,967
0.5203,994
0.5219667,1022
0.5236334,847
0.5253,1038
0.5269667,1083
0.5286334,787
0.5303,1022
0.5319667,929
0.5336334,975
0.5353,1162
0.5369667,756
0.5386333,991
0.5403,1031
0.5419667,969
0.5436333,918
0.5453,950
0.5469667,968
0.5486333,986
0.5503,1091
0.5519667,1249
0.5536333,1238
0.5553,949
0.5569667,892
0.5586333,964
0.5603,729
0.5619667,797
0.5636333,873
0.5653,1075
0.5669667,1085
0.5686333,818
0.5703,873
0.5719666,835
0.5736333,914
0.5753,1023
0.5769666,1104
0.5786333,993
0.5803,1097
0.5819666,1017
0.5836333,1025
0.5853,935
0.5869667,971
0.5886334,1060
0.5903,1089
0.5919667,965
0.5936334,1031
0.5953,1087
0.5969667,1076
0.5986333,1065
0.6003,1027
0.6019667,1014
0.6036333,1001
0.6053,934
0.6069667,1189
0.6086333,1151
0.6103,1131
0.6119667,868
0.6136333,967
0.6153,1091
0.6169667,1077
0.6186333,914
0.6203,819
0.6219667,915
0.6236333,1083
0.6253,1107
0.6269667,934
0.6286333,881
0.6303,982
0.6319667,926
0.6336333,869
0.6353,1030
0.6369666,1038
0.6386333,944
0.6403,1000
0.6419666,988
0.6436333,962
0.6453,912
0.6469667,978
0.6486334,960
0.6503,942
0.6519667,748
0.6536334,945
0.6553,851
0.6569667,993
0.6586334,831
0.6603,981
0.6619667,934
0.6636333,797
0.6653,906
0.6669667,862
0.6686333,773
0.6703,891
0.6719667,814
0.6736333,855
0.6753,789
0.6769667,723
0.6786333,828
0.6803,731
0.6819667,802
0.6836333,872
0.6853,836
0.6869667,630
0.6886333,799
0.6903,747
0.6919667,695
0.6936333,886
0.6953,910
0.6969666,846
0.6986333,876
0.7003,807
0.7019666,932
0.7036333,911
0.7053,929
0.7069666,1006
0.7086333,946
0.7103,886
0.7119667,760
0.7136334,999
0.7153,1065
0.7169667,931
0.7186334,702
0.7203,693
0.7219667,800
0.7236333,841
0.7253,997
0.7269667,1052
0.7286333,855
0.7303,831
0.7319667,844
0.7336333,897
0.7353,949
0.7369667,710
0.7386333,729
0.7403,791
0.7419667,866
0.7436333,858
0.7453,849
0.7469667,754
0.7486333,697
0.7503,855
0.7519667,896
0.7536333,703
0.7553,840
0.7569667,924
0.7586333,857
0.7603,831
0.7619666,902
0.7636333,818
0.7653,775
0.7669666,919
0.7686333,898
0.7703,876
0.7719667,974
0.7736334,790
0.7753,743
0.7769667,845
0.7786334,914
0.7803,873
0.7819667,823
0.7836334,828
0.7853,957
0.7869667,924
0.7886333,887
0.7903,793
0.7919667,662
0.7936333,850
0.7953,772
0.7969667,694
0.7986333,798
0.8003,901
0.8019667,912
0.8036333,997
0.8053,1044
0.8069667,783
0.8086333,966
0.8103,959
0.8119667,995
0.8136333,811
0.8153,788
0.8169667,892
0.8186333,844
0.8203,889
0.8219666,934
0.8236333,938
0.8253,869
0.8269666,896
0.8286333,923
0.8303,861
0.8319666,879
0.8336333,806
0.8353,831
0.8369667,884
0.8386334,852
0.8403,820
0.8419667,849
0.8436334,863
0.8453,877
0.8469667,756
0.8486333,904
0.8503,1040
0.8519667,1010
0.8536333,1108
0.8553,766
0.8569667,548
0.8586333,869
0.8603,1005
0.8619667,901
0.8636333,892
0.8653,972
0.8669667,841
0.8686333,863
0.8703,730
0.8719667,720
0.8736333,793
0.8753,753
0.8769667,712
0.8786333,743
0.8803,780
0.8819667,1017
0.8836333,1053
0.8853,1094
0.8869666,1048
0.8886333,1007
0.8903,1298
0.8919666,1387
0.8936333,1157
0.8953,1081
0.8969667,1186
0.8986334,1019
0.9003,1202
0.9019667,1168
0.9036334,1263
0.9053,1185
0.9069667,1121
0.9086334,1233
0.9103,1289
0.9119667,1237
0.9136333,1017
0.9153,1211
0.9169667,883
0.9186333,1146
0.9203,1175
0.9219667,1057
0.9236333,1213
0.9253,1205
0.9269667,1197
0.9286333,1245
0.9303,1154
0.9319667,1091
0.9336333,982
0.9353,1162
0.9369667,1097
0.9386333,1104
0.9403,1111
0.9419667,1208
0.9436333,1187
0.9453,1192
0.9469666,1100
0.9486333,1221
0.9503,1127
0.9519666,1034
0.9536333,1084
0.9553,925
0.9569666,1020
0.9586333,1068
0.9603,983
0.9619667,1186
0.9636334,1229
0.9653,1039
0.9669667,1027
0.9686334,876
0.9703,878
0.9719667,887
0.9736333,892
0.9753,896
0.9769667,881
0.9786333,867
0.9803,770
0.9819667,799
0.9836333,874
0.9853,831
0.9869667,787
0.9886333,672
0.9903,921
0.9919667,623
0.9936333,858
0.9953,926
0.9969667,845
0.9986333,648
1.0003,973
1.001967,809
1.003633,839
1.0053,698
1.006967,934
1.008633,919
1.0103,895
1.011967,750
1.013633,783
1.0153,927
1.016967,901
1.018633,768
1.0203,1001
1.021967,1098
1.023633,929
1.0253,623
1.026967,826
1.028633,952
1.0303,754
1.031967,776
1.033633,956
1.0353,852
1.036967,1013
1.038633,792
1.0403,662
1.041967,992
1.043633,906
1.0453,717
1.046967,1003
1.048633,961
1.0503,961
1.051967,806
1.053633,831
1.0553,860
1.056967,913
1.058633,915
1.0603,927
1.061967,940
1.063633,706
1.0653,1068
1.066967,888
1.068633,817
1.0703,957
1.071967,972
1.073633,884
1.0753,764
1.076967,995
1.078633,851
1.0803,811
1.081967,876
1.083633,880
1.0853,926
1.086967,916
1.088633,900
1.0903,884
1.091967,723
1.093633,873
1.0953,915
1.096967,944
1.098633,803
1.1003,1009
1.101967,910
1.103633,833
1.1053,1074
1.106967,914
1.108633,940
1.1103,847
1.111967,827
1.113633,843
1.1153,631
1.116967,686
1.118633,907
1.1203,881
1.121967,696
1.123633,1000
1.1253,960
1.126967,749
1.128633,878
1.1303,942
1.131967,914
1.133633,802
1.1353,854
1.136967,710
1.138633,744
1.1403,854
1.141967,812
1.143633,865
1.1453,829
1.146967,793
1.148633,1015
1.1503,993
1.151967,741
1.153633,1102
1.1553,789
1.156967,742
1.158633,867
1.1603,826
1.161967,791
1.163633,951
1.1653,946
1.166967,822
1.168633,792
1.1703,758
1.171967,838
1.173633,753
1.1753,844
1.176967,743
1.178633,984
1.1803,917
1.181967,751
1.183633,803
1.1853,947
1.186967,897
1.188633,762
1.1903,911
1.191967,883
1.193633,793
1.1953,832
1.196967,812
1.198633,886
