"SampleName","A2Rd2_02-44"
"Target Mass 1",
"Column Name","IA-3 (3um, 4.6X100)"
"Channel","QDa 1: SIR Ch2"
0.00195,521
0.003616667,683
0.005283333,601
0.00695,845
0.008616666,867
0.01028333,906
0.01195,720
0.01361667,842
0.01528333,857
0.01695,837
0.01861667,818
0.02028333,797
0.02195,891
0.02361667,904
0.02528333,917
0.02695,776
0.02861667,921
0.03028333,865
0.03195,820
0.03361667,775
0.03528333,866
0.03695,957
0.03861667,1003
0.04028333,767
0.04195,1110
0.04361667,767
0.04528333,1194
0.04695,909
0.04861667,1047
0.05028334,727
0.05195,967
0.05361667,857
0.05528333,894
0.05695,1125
0.05861667,1047
0.06028333,865
0.06195,921
0.06361666,854
0.06528334,861
0.06695,864
0.06861667,866
0.07028333,861
0.07195,797
0.07361667,862
0.07528333,823
0.07695,784
0.07861666,795
0.08028334,986
0.08195,890
0.08361667,793
0.08528333,973
0.08695,947
0.08861667,921
0.09028333,879
0.09195,838
0.09361666,926
0.09528334,968
0.09695,992
0.09861667,795
0.1002833,858
0.10195,943
0.1036167,1009
0.1052833,964
0.10695,939
0.1086167,956
0.1102833,972
0.11195,882
0.1136167,845
0.1152833,1029
0.11695,935
0.1186167,825
0.1202833,861
0.12195,963
0.1236167,840
0.1252833,832
0.12695,969
0.1286167,887
0.1302833,803
0.13195,726
0.1336167,746
0.1352833,1002
0.13695,1020
0.1386167,983
0.1402833,942
0.14195,845
0.1436167,765
0.1452833,848
0.14695,780
0.1486167,814
0.1502833,797
0.15195,931
0.1536167,919
0.1552833,907
0.15695,770
0.1586167,816
0.1602833,823
0.16195,830
0.1636167,779
0.1652833,727
0.16695,905
0.1686167,955
0.1702833,915
0.17195,900
0.1736167,884
0.1752833,808
0.17695,863
0.1786167,905
0.1802833,848
0.18195,713
0.1836167,935
0.1852833,783
0.18695,775
0.1886167,800
0.1902833,855
0.19195,811
0.1936167,767
0.1952833,843
0.19695,896
0.1986167,950
0.2002833,888
0.20195,769
0.2036167,899
0.2052833,872
0.20695,845
0.2086167,867
0.2102833,889
0.21195,839
0.2136167,854
0.2152833,869
0.21695,944
0.2186167,903
0.2202833,862
0.22195,966
0.2236167,956
0.2252833,946
0.22695,1057
0.2286167,1212
0.2302833,1215
0.23195,1208
0.2336167,1202
0.2352833,1199
0.23695,1196
0.2386167,1241
0.2402833,1241
0.24195,1242
0.2436167,1175
0.2452833,1249
0.24695,1288
0.2486167,1132
0.2502833,1160
0.25195,1129
0.2536167,1124
0.2552833,1120
0.25695,1133
0.2586167,1054
0.2602833,1168
0.26195,904
0.2636333,979
0.2652833,1044
0.26695,1179
0.2686167,1102
0.2702833,1026
0.27195,1174
0.2736167,975
0.2752833,938
0.27695,960
0.2786167,973
0.2803,987
0.28195,932
0.2836167,877
0.2852833,903
0.28695,937
0.2886167,972
0.2902833,1025
0.29195,1005
0.2936167,984
0.2952833,1059
0.29695,953
0.2986333,1213
0.3002833,1334
0.30195,1191
0.3036167,1046
0.3052833,917
0.30695,1127
0.3086167,1260
0.3102833,1164
0.31195,950
0.3136167,1321
0.3153,1300
0.31695,1075
0.3186167,1295
0.3202833,1093
0.32195,1324
0.3236167,1360
0.3252833,1224
0.32695,1257
0.3286167,1404
0.3302833,1030
0.33195,1317
0.3336333,1389
0.3352833,1501
0.33695,1318
0.3386167,1275
0.3402833,1358
0.34195,1328
0.3436167,1183
0.3452833,1432
0.34695,1104
0.3486167,1175
0.3503,1264
0.35195,1172
0.3536167,1372
0.3552833,1350
0.35695,1187
0.3586333,1453
0.3602833,1314
0.36195,1549
0.3636167,1517
0.3652833,2245
0.36695,3067
0.3686333,3285
0.3702833,3038
0.3719667,3276
0.3736167,2981
0.3753,2792
0.37695,2706
0.3786167,2761
0.3802833,2660
0.38195,2772
0.3836167,2389
0.3853,2360
0.38695,1608
0.3886333,1209
0.3902833,1031
0.3919667,1062
0.3936167,939
0.3953,631
0.3969667,525
0.3986167,557
0.4002833,445
0.40195,546
0.4036333,522
0.4053,490
0.4069667,504
0.4086333,517
0.4103,530
0.4119667,595
0.4136333,631
0.4153,646
0.41695,572
0.4186167,498
0.4203,794
0.4219667,816
0.4236333,889
0.4253,680
0.4269667,756
0.4286333,661
0.4303,719
0.4319667,642
0.4336333,710
0.4353,779
0.4369667,1044
0.4386333,1027
0.4403,876
0.4419667,1160
0.4436333,851
0.4453,804
0.4469667,759
0.4486333,838
0.4503,917
0.4519667,1073
0.4536333,1188
0.4553,1170
0.4569667,1174
0.4586333,1106
0.4603,1002
0.4619667,1123
0.4636333,1103
0.4653,1083
0.4669667,1178
0.4686333,1273
0.4703,1194
0.4719667,1114
0.4736333,1266
0.4753,933
0.4769667,1275
0.4786333,1150
0.4803,1059
0.4819667,1349
0.4836333,1336
0.4853,1105
0.4869667,1201
0.4886333,1136
0.4903,1017
0.4919667,1027
0.4936333,1036
0.4953,1072
0.4969667,1107
0.4986333,1044
0.5003,981
0.5019667,919
0.5036333,997
0.5053,917
0.5069667,970
0.5086333,938
0.5103,990
0.5119666,996
0.5136333,880
0.5153,968
0.5169666,895
0.5186333,796
0.5203,783
0.5219667,769
0.5236334,921
0.5253,971
0.5269667,1021
0.5286334,1006
0.5303,814
0.5319667,996
0.5336334,1120
0.5353,991
0.5369667,829
0.5386333,781
0.5403,903
0.5419667,825
0.5436333,1066
0.5453,1052
0.5469667,712
0.5486333,935
0.5503,785
0.5519667,957
0.5536333,939
0.5553,996
0.5569667,977
0.5586333,926
0.5603,874
0.5619667,907
0.5636333,888
0.5653,869
0.5669667,850
0.5686333,867
0.5703,883
0.5719666,898
0.5736333,897
0.5753,920
0.5769666,1079
0.5786333,1037
0.5803,918
0.5819666,777
0.5836333,902
0.5853,852
0.5869667,979
0.5886334,899
0.5903,1004
0.5919667,1078
0.5936334,758
0.5953,777
0.5969667,941
0.5986333,762
0.6003,873
0.6019667,983
0.6036333,905
0.6053,961
0.6069667,928
0.6086333,934
0.6103,853
0.6119667,772
0.6136333,830
0.6153,889
0.6169667,966
0.6186333,924
0.6203,1035
0.6219667,957
0.6236333,879
0.6253,987
0.6269667,1056
0.6286333,1044
0.6303,1120
0.6319667,784
0.6336333,1167
0.6353,950
0.6369666,852
0.6386333,1117
0.6403,1035
0.6419666,1020
0.6436333,1096
0.6453,1172
0.6469667,1160
0.6486334,995
0.6503,1163
0.6519667,903
0.6536334,991
0.6553,964
0.6569667,945
0.6586334,1030
0.6603,874
0.6619667,920
0.6636333,928
0.6653,1005
0.6669667,1059
0.6686333,1179
0.6703,1251
0.6719667,1510
0.6736333,1912
0.6753,2249
0.6769667,2393
0.6786333,2950
0.6803,4177
0.6819667,5431
0.6836333,6385
0.6853,7808
0.6869667,9968
0.6886333,11808
0.6903,13092
0.6919667,14664
0.6936333,15680
0.6953,17136
0.6969666,18440
0.6986333,18948
0.7003,19204
0.7019666,18904
0.7036333,18604
0.7053,19448
0.7069666,18036
0.7086333,18916
0.7103,18616
0.7119667,18140
0.7136334,18808
0.7153,18444
0.7169667,17296
0.7186334,18164
0.7203,17840
0.7219667,16140
0.7236333,16896
0.7253,15384
0.7269667,13680
0.7286333,13096
0.7303,11516
0.7319667,10976
0.7336333,9972
0.7353,8504
0.7369667,7561
0.7386333,7179
0.7403,5971
0.7419667,4997
0.7436333,4805
0.7453,3778
0.7469667,3482
0.7486333,3525
0.7503,3209
0.7519667,2897
0.7536333,2470
0.7553,2248
0.7569667,1746
0.7586333,1867
0.7603,1842
0.7619666,1790
0.7636333,1738
0.7653,1636
0.7669666,1497
0.7686333,1493
0.7703,1507
0.7719667,1521
0.7736334,1544
0.7753,1857
0.7769667,2170
0.7786334,2601
0.7803,3333
0.7819667,4270
0.7836334,5412
0.7853,6800
0.7869667,8127
0.7886333,9744
0.7903,11180
0.7919667,14452
0.7936333,16176
0.7953,17616
0.7969667,18748
0.7986333,21296
0.8003,23636
0.8019667,24692
0.8036333,23688
0.8053,24196
0.8069667,24860
0.8086333,24792
0.8103,24628
0.8119667,23692
0.8136333,23276
0.8153,22360
0.8169667,22400
0.8186333,21808
0.8203,22972
0.8219666,21412
0.8236333,21428
0.8253,21976
0.8269666,20876
0.8286333,20396
0.8303,19572
0.8319666,19116
0.8336333,18276
0.8353,16176
0.8369667,15380
0.8386334,13920
0.8403,13092
0.8419667,11124
0.8436334,10828
0.8453,8784
0.8469667,8272
0.8486333,7542
0.8503,6974
0.8519667,5712
0.8536333,5129
0.8553,4585
0.8569667,4481
0.8586333,4004
0.8603,3279
0.8619667,3323
0.8636333,3203
0.8653,2750
0.8669667,2352
0.8686333,2375
0.8703,2053
0.8719667,1962
0.8736333,1902
0.8753,1701
0.8769667,1888
0.8786333,1992
0.8803,2002
0.8819667,1854
0.8836333,2096
0.8853,2333
0.8869666,2475
0.8886333,2233
0.8903,1993
0.8919666,2084
0.8936333,2250
0.8953,2007
0.8969667,1866
0.8986334,1830
0.9003,1988
0.9019667,1781
0.9036334,1685
0.9053,1705
0.9069667,1909
0.9086334,1904
0.9103,1999
0.9119667,1750
0.9136333,1714
0.9153,1682
0.9169667,1649
0.9186333,1648
0.9203,1658
0.9219667,1668
0.9236333,1708
0.9253,1817
0.9269667,1479
0.9286333,1498
0.9303,1621
0.9319667,1496
0.9336333,1469
0.9353,1492
0.9369667,1515
0.9386333,1368
0.9403,1559
0.9419667,1877
0.9436333,1751
0.9453,1740
0.9469666,1782
0.9486333,2177
0.9503,2319
0.9519666,2555
0.9536333,3624
0.9553,3677
0.9569666,4635
0.9586333,5518
0.9603,6927
0.9619667,8720
0.9636334,10100
0.9653,12748
0.9669667,14228
0.9686334,16800
0.9703,19700
0.9719667,24672
0.9736333,26572
0.9753,29812
0.9769667,33232
0.9786333,35360
0.9803,42320
0.9819667,43712
0.9836333,45360
0.9853,48064
0.9869667,50176
0.9886333,51952
0.9903,53680
0.9919667,54160
0.9936333,53440
0.9953,52688
0.9969667,51328
0.9986333,53264
1.0003,52704
1.001967,52096
1.003633,50000
1.0053,50896
1.006967,49520
1.008633,51376
1.0103,50528
1.011967,49664
1.013633,51856
1.0153,51552
1.016967,52128
1.018633,51312
1.0203,51872
1.021967,48400
1.023633,49248
1.0253,45952
1.026967,45488
1.028633,42656
1.0303,41856
1.031967,39968
1.033633,36864
1.0353,32244
1.036967,31224
1.038633,28772
1.0403,24636
1.041967,24292
1.043633,22776
1.0453,20256
1.046967,18068
1.048633,16624
1.0503,16576
1.051967,16120
1.053633,15032
1.0553,14432
1.056967,13236
1.058633,13764
1.0603,12928
1.061967,13420
1.063633,12588
1.0653,13684
1.066967,14444
1.068633,14548
1.0703,14792
1.071967,14604
1.073633,14424
1.0753,14652
1.076967,14884
1.078633,14728
1.0803,14792
1.081967,15044
1.083633,14552
1.0853,14784
1.086967,14904
1.088633,13516
1.0903,14596
1.091967,14124
1.093633,14204
1.0953,13176
1.096967,13740
1.098633,13288
1.1003,12764
1.101967,12872
1.103633,12760
1.1053,12948
1.106967,12380
1.108633,12804
1.1103,12208
1.111967,11860
1.113633,11292
1.1153,11680
1.116967,10652
1.118633,10880
1.1203,9860
1.121967,10420
1.123633,10088
1.1253,9056
1.126967,9088
1.128633,8380
1.1303,7285
1.131967,7354
1.133633,7035
1.1353,6244
1.136967,5531
1.138633,5527
1.1403,5065
1.141967,4693
1.143633,4990
1.1453,4607
1.146967,3930
1.148633,4124
1.1503,3687
1.151967,3425
1.153633,3170
1.1553,3446
1.156967,2948
1.158633,2668
1.1603,2512
1.161967,2364
1.163633,2244
1.1653,2223
1.166967,2203
1.168633,2197
1.1703,2192
1.171967,1907
1.173633,1808
1.1753,2091
1.176967,1988
1.178633,2144
1.1803,1709
1.181967,1980
1.183633,1945
1.1853,2073
1.186967,1983
1.188633,2070
1.1903,1915
1.191967,2114
1.193633,2218
1.1953,2078
1.196967,2216
1.198633,2831
