"SampleName","A2Rd2_02-87"
"Target Mass 1",
"Column Name","IA-3 (3um, 4.6X100)"
"Channel","QDa 1: SIR Ch1"
0.00195,341
0.003616667,579
0.005283333,591
0.00695,677
0.008616666,647
0.01028333,437
0.01195,527
0.01361667,642
0.01528333,485
0.01695,574
0.01861667,495
0.02028333,613
0.02195,596
0.02361667,529
0.02528333,489
0.02695,512
0.02861667,506
0.03028333,499
0.03195,558
0.03361667,546
0.03528333,427
0.03695,490
0.03861667,561
0.04028333,478
0.04195,583
0.04361667,514
0.04528333,436
0.04695,497
0.04861667,544
0.05028334,463
0.05195,451
0.05361667,440
0.05528333,457
0.05695,443
0.05861667,430
0.06028333,529
0.06195,537
0.06361666,525
0.06528334,610
0.06695,636
0.06861667,653
0.07028333,585
0.07195,488
0.07361667,580
0.07528333,581
0.07695,469
0.07861666,587
0.08028334,495
0.08195,641
0.08361667,562
0.08528333,526
0.08695,628
0.08861667,611
0.09028333,616
0.09195,516
0.09361666,512
0.09528334,524
0.09695,511
0.09861667,456
0.1002833,479
0.10195,502
0.1036167,446
0.1052833,525
0.10695,585
0.1086167,533
0.1102833,645
0.11195,642
0.1136167,640
0.1152833,602
0.11695,564
0.1186167,618
0.1202833,545
0.12195,559
0.1236167,492
0.1252833,546
0.12695,541
0.1286167,408
0.1302833,513
0.13195,540
0.1336167,477
0.1352833,538
0.13695,420
0.1386167,452
0.1402833,485
0.14195,549
0.1436167,328
0.1452833,566
0.14695,473
0.1486167,498
0.1502833,528
0.15195,461
0.1536167,331
0.1552833,614
0.15695,495
0.1586167,657
0.1602833,476
0.16195,567
0.1636167,476
0.1652833,391
0.16695,513
0.1686167,519
0.1702833,492
0.17195,519
0.1736167,519
0.1752833,519
0.17695,539
0.1786167,484
0.1802833,430
0.18195,476
0.1836167,601
0.1852833,599
0.18695,524
0.1886167,402
0.1902833,432
0.19195,609
0.1936167,606
0.1952833,500
0.19695,531
0.1986167,411
0.2002833,477
0.20195,497
0.2036167,518
0.2052833,509
0.20695,543
0.2086167,533
0.2102833,484
0.21195,587
0.2136167,423
0.2152833,492
0.21695,479
0.2186167,502
0.2202833,526
0.22195,489
0.2236167,452
0.2252833,457
0.22695,520
0.2286167,549
0.2302833,579
0.23195,406
0.2336167,415
0.2352833,445
0.23695,550
0.2386167,538
0.2402833,369
0.24195,638
0.2436167,441
0.2452833,370
0.24695,455
0.2486167,556
0.2502833,538
0.25195,526
0.2536167,424
0.2552833,410
0.25695,431
0.2586167,440
0.2602833,448
0.26195,415
0.2636167,441
0.2652833,475
0.26695,532
0.2686167,542
0.2702833,552
0.27195,420
0.2736167,516
0.2752833,421
0.27695,350
0.2786167,574
0.2802833,438
0.28195,466
0.2836167,453
0.2852833,432
0.28695,474
0.2886167,443
0.2902833,412
0.29195,473
0.2936167,571
0.2952833,567
0.29695,545
0.2986333,512
0.3002833,446
0.30195,441
0.3036167,580
0.3052833,538
0.30695,527
0.3086167,559
0.3102833,551
0.31195,543
0.3136167,574
0.3153,489
0.31695,577
0.3186167,583
0.3202833,582
0.32195,559
0.3236167,550
0.3252833,540
0.32695,457
0.3286167,525
0.3302833,571
0.33195,438
0.3336333,498
0.3352833,471
0.33695,482
0.3386333,484
0.3402833,486
0.34195,466
0.3436167,447
0.3453,491
0.34695,572
0.3486167,586
0.3503,522
0.35195,469
0.3536333,516
0.3553,476
0.35695,490
0.3586167,503
0.3602833,583
0.3619667,664
0.3636167,822
0.3653,1200
0.36695,1856
0.3686333,3004
0.3703,2864
0.3719667,3338
0.3736167,3367
0.3752833,3397
0.37695,3952
0.3786333,3890
0.3802833,4348
0.38195,4477
0.3836167,4352
0.3853,4226
0.3869667,4005
0.3886333,3898
0.3902833,2745
0.3919667,2369
0.3936333,1857
0.3953,1390
0.39695,1490
0.3986167,1456
0.4002833,1143
0.40195,1111
0.4036333,1110
0.4052833,1283
0.4069667,911
0.4086167,1255
0.4103,1274
0.4119667,1372
0.4136167,1075
0.4153,1299
0.41695,1459
0.4186167,1510
0.4203,1325
0.4219667,1247
0.4236333,1507
0.4253,1664
0.4269667,1672
0.4286333,1319
0.4303,1574
0.4319667,1920
0.4336333,1841
0.4353,3068
0.4369667,4453
0.4386333,6931
0.4403,12008
0.4419667,18444
0.4436333,29336
0.4453,43760
0.4469667,59536
0.4486333,77440
0.4503,99440
0.4519667,117728
0.4536333,137280
0.4553,157376
0.4569667,170304
0.4586333,185344
0.4603,193728
0.4619667,201792
0.4636333,205440
0.4653,207872
0.4669667,206784
0.4686333,210752
0.4703,211776
0.4719667,210432
0.4736333,220224
0.4753,223872
0.4769667,230080
0.4786333,233280
0.4803,235328
0.4819667,235712
0.4836333,228864
0.4853,222272
0.4869667,212160
0.4886333,192832
0.4903,176256
0.4919667,159488
0.4936333,139904
0.4953,119504
0.4969667,101440
0.4986333,88112
0.5003,75024
0.5019667,62560
0.5036333,49408
0.5053,41808
0.5069667,34224
0.5086333,28240
0.5103,23288
0.5119666,19512
0.5136333,16160
0.5153,14216
0.5169666,11452
0.5186333,10004
0.5203,8872
0.5219667,7650
0.5236334,6804
0.5253,6347
0.5269667,5567
0.5286334,5016
0.5303,4692
0.5319667,4257
0.5336334,4052
0.5353,3605
0.5369667,4123
0.5386333,3544
0.5403,3265
0.5419667,3262
0.5436333,2785
0.5453,2985
0.5469667,3010
0.5486333,2787
0.5503,2429
0.5519667,2663
0.5536333,2676
0.5553,2091
0.5569667,2196
0.5586333,2258
0.5603,1935
0.5619667,2011
0.5636333,2300
0.5653,1824
0.5669667,1907
0.5686333,1941
0.5703,1560
0.5719666,1899
0.5736333,1541
0.5753,1684
0.5769666,1631
0.5786333,1603
0.5803,1575
0.5819666,1663
0.5836333,1647
0.5853,1631
0.5869667,1510
0.5886334,1458
0.5903,1473
0.5919667,1365
0.5936334,1488
0.5953,1486
0.5969667,1483
0.5986333,1518
0.6003,1553
0.6019667,1556
0.6036333,1356
0.6053,1600
0.6069667,1588
0.6086333,1302
0.6103,1585
0.6119667,1376
0.6136333,1174
0.6153,1508
0.6169667,1327
0.6186333,1378
0.6203,1392
0.6219667,1309
0.6236333,1226
0.6253,1272
0.6269667,1257
0.6286333,1191
0.6303,1292
0.6319667,1343
0.6336333,1310
0.6353,1185
0.6369666,1188
0.6386333,988
0.6403,1199
0.6419666,1066
0.6436333,1014
0.6453,1176
0.6469667,857
0.6486334,1017
0.6503,1122
0.6519667,1029
0.6536334,1111
0.6553,1070
0.6569667,847
0.6586334,1104
0.6603,1026
0.6619667,1095
0.6636333,820
0.6653,831
0.6669667,1039
0.6686333,943
0.6703,867
0.6719667,920
0.6736333,886
0.6753,870
0.6769667,813
0.6786333,755
0.6803,852
0.6819667,823
0.6836333,795
0.6853,985
0.6869667,963
0.6886333,889
0.6903,836
0.6919667,771
0.6936333,914
0.6953,847
0.6969666,820
0.6986333,626
0.7003,825
0.7019666,788
0.7036333,838
0.7053,760
0.7069666,867
0.7086333,938
0.7103,950
0.7119667,783
0.7136334,806
0.7153,933
0.7169667,854
0.7186334,710
0.7203,919
0.7219667,640
0.7236333,1017
0.7253,621
0.7269667,812
0.7286333,766
0.7303,933
0.7319667,791
0.7336333,586
0.7353,770
0.7369667,836
0.7386333,721
0.7403,856
0.7419667,840
0.7436333,887
0.7453,857
0.7469667,739
0.7486333,890
0.7503,947
0.7519667,840
0.7536333,828
0.7553,740
0.7569667,861
0.7586333,879
0.7603,882
0.7619666,712
0.7636333,747
0.7653,768
0.7669666,765
0.7686333,769
0.7703,773
0.7719667,721
0.7736334,899
0.7753,590
0.7769667,693
0.7786334,831
0.7803,887
0.7819667,768
0.7836334,940
0.7853,621
0.7869667,696
0.7886333,843
0.7903,767
0.7919667,902
0.7936333,881
0.7953,691
0.7969667,741
0.7986333,820
0.8003,732
0.8019667,763
0.8036333,838
0.8053,811
0.8069667,727
0.8086333,845
0.8103,614
0.8119667,628
0.8136333,722
0.8153,692
0.8169667,674
0.8186333,686
0.8203,697
0.8219666,805
0.8236333,816
0.8253,820
0.8269666,653
0.8286333,734
0.8303,710
0.8319666,655
0.8336333,706
0.8353,779
0.8369667,744
0.8386334,591
0.8403,790
0.8419667,661
0.8436334,654
0.8453,754
0.8469667,660
0.8486333,810
0.8503,591
0.8519667,764
0.8536333,836
0.8553,790
0.8569667,668
0.8586333,765
0.8603,633
0.8619667,664
0.8636333,677
0.8653,608
0.8669667,643
0.8686333,496
0.8703,554
0.8719667,491
0.8736333,683
0.8753,709
0.8769667,930
0.8786333,1045
0.8803,1300
0.8819667,1626
0.8836333,1888
0.8853,2238
0.8869666,2253
0.8886333,1996
0.8903,2529
0.8919666,2510
0.8936333,2176
0.8953,2257
0.8969667,2472
0.8986334,2367
0.9003,2262
0.9019667,2623
0.9036334,2836
0.9053,2992
0.9069667,2533
0.9086334,2824
0.9103,2920
0.9119667,2618
0.9136333,2736
0.9153,2440
0.9169667,2645
0.9186333,2850
0.9203,2803
0.9219667,2601
0.9236333,2242
0.9253,2468
0.9269667,2549
0.9286333,2619
0.9303,2600
0.9319667,2616
0.9336333,2497
0.9353,2416
0.9369667,2467
0.9386333,2107
0.9403,2304
0.9419667,2312
0.9436333,2257
0.9453,2115
0.9469666,2294
0.9486333,2093
0.9503,1985
0.9519666,2098
0.9536333,1934
0.9553,1703
0.9569666,1736
0.9586333,1579
0.9603,1591
0.9619667,1560
0.9636334,1592
0.9653,1573
0.9669667,1252
0.9686334,1280
0.9703,1358
0.9719667,1376
0.9736333,981
0.9753,960
0.9769667,1028
0.9786333,1094
0.9803,766
0.9819667,786
0.9836333,744
0.9853,705
0.9869667,707
0.9886333,709
0.9903,655
0.9919667,700
0.9936333,719
0.9953,707
0.9969667,709
0.9986333,822
1.0003,580
1.001967,700
1.003633,678
1.0053,500
1.006967,602
1.008633,525
1.0103,608
1.011967,567
1.013633,607
1.0153,556
1.016967,475
1.018633,646
1.0203,570
1.021967,598
1.023633,648
1.0253,601
1.026967,568
1.028633,661
1.0303,479
1.031967,574
1.033633,555
1.0353,536
1.036967,390
1.038633,556
1.0403,571
1.041967,632
1.043633,656
1.0453,667
1.046967,568
1.048633,702
1.0503,514
1.051967,503
1.053633,632
1.0553,497
1.056967,591
1.058633,705
1.0603,605
1.061967,531
1.063633,699
1.0653,617
1.066967,696
1.068633,597
1.0703,551
1.071967,548
1.073633,675
1.0753,694
1.076967,519
1.078633,633
1.0803,580
1.081967,436
1.083633,629
1.0853,520
1.086967,717
1.088633,632
1.0903,633
1.091967,612
1.093633,570
1.0953,453
1.096967,584
1.098633,618
1.1003,650
1.101967,585
1.103633,557
1.1053,534
1.106967,511
1.108633,549
1.1103,526
1.111967,520
1.113633,551
1.1153,500
1.116967,637
1.118633,640
1.1203,727
1.121967,722
1.123633,670
1.1253,490
1.126967,572
1.128633,521
1.1303,515
1.131967,593
1.133633,648
1.1353,669
1.136967,666
1.138633,726
1.1403,574
1.141967,616
1.143633,575
1.1453,568
1.146967,561
1.148633,616
1.1503,606
1.151967,542
1.153633,574
1.1553,605
1.156967,560
1.158633,573
1.1603,587
1.161967,602
1.163633,587
1.1653,572
1.166967,570
1.168633,651
1.1703,616
1.171967,581
1.173633,634
1.1753,614
1.176967,593
1.178633,482
1.1803,513
1.181967,544
1.183633,516
1.1853,487
1.186967,548
1.188633,492
1.1903,652
1.191967,660
1.193633,399
1.1953,626
1.196967,641
1.198633,737
