"SampleName","A2Rd2_02-29"
"Target Mass 1",
"Column Name","IA-3 (3um, 4.6X100)"
"Channel","QDa 1: SIR Ch1"
0.00195,384
0.003616667,542
0.005283333,540
0.00695,571
0.008616666,565
0.01028333,348
0.01195,689
0.01361667,628
0.01528333,630
0.01695,529
0.01861667,653
0.02028333,508
0.02195,552
0.02361667,501
0.02528333,545
0.02695,358
0.02861667,347
0.03028333,624
0.03195,684
0.03361667,670
0.03528333,587
0.03695,576
0.03861667,595
0.04028333,554
0.04195,442
0.04361667,578
0.04528333,549
0.04695,440
0.04861667,430
0.05028334,473
0.05195,476
0.05361667,479
0.05528333,487
0.05695,495
0.05861667,463
0.06028333,431
0.06195,455
0.06361666,437
0.06528334,494
0.06695,551
0.06861667,551
0.07028333,558
0.07195,544
0.07361667,543
0.07528333,520
0.07695,574
0.07861666,451
0.08028334,424
0.08195,460
0.08361667,497
0.08528333,524
0.08695,506
0.08861667,488
0.09028333,487
0.09195,487
0.09361666,501
0.09528334,499
0.09695,531
0.09861667,562
0.1002833,551
0.10195,541
0.1036167,485
0.1052833,602
0.10695,599
0.1086167,577
0.1102833,598
0.11195,479
0.1136167,477
0.1152833,663
0.11695,690
0.1186167,578
0.1202833,483
0.12195,547
0.1236167,547
0.1252833,548
0.12695,576
0.1286167,463
0.1302833,607
0.13195,479
0.1336167,473
0.1352833,546
0.13695,414
0.1386167,639
0.1402833,625
0.14195,370
0.1436167,540
0.1452833,593
0.14695,459
0.1486167,509
0.1502833,602
0.15195,550
0.1536167,609
0.1552833,442
0.15695,532
0.1586167,591
0.1602833,553
0.16195,516
0.1636167,589
0.1652833,596
0.16695,586
0.1686167,492
0.1702833,474
0.17195,437
0.1736167,496
0.1752833,528
0.17695,561
0.1786167,531
0.1802833,525
0.18195,570
0.1836167,563
0.1852833,555
0.18695,494
0.1886167,464
0.1902833,435
0.19195,486
0.1936167,425
0.1952833,485
0.19695,544
0.1986167,578
0.2002833,556
0.20195,534
0.2036167,448
0.2052833,502
0.20695,497
0.2086167,477
0.2103,458
0.21195,543
0.2136167,503
0.2152833,463
0.21695,440
0.2186167,491
0.2202833,585
0.22195,602
0.2236167,628
0.2252833,410
0.22695,443
0.2286167,521
0.2302833,568
0.23195,548
0.2336167,558
0.2352833,567
0.23695,435
0.2386167,604
0.2402833,586
0.24195,414
0.2436167,555
0.2452833,616
0.24695,572
0.2486167,459
0.2502833,617
0.25195,556
0.2536167,527
0.2552833,412
0.25695,525
0.2586167,475
0.2603,503
0.26195,506
0.2636333,545
0.2652833,540
0.26695,549
0.2686167,563
0.2702833,578
0.27195,552
0.2736167,527
0.2752833,433
0.27695,551
0.2786167,424
0.2803,382
0.28195,404
0.2836167,481
0.2852833,540
0.28695,521
0.2886167,553
0.2902833,516
0.29195,480
0.2936167,456
0.2952833,517
0.29695,523
0.2986333,529
0.3002833,570
0.30195,562
0.3036167,582
0.3052833,602
0.30695,605
0.3086167,592
0.3103,632
0.31195,486
0.3136167,565
0.3153,469
0.31695,508
0.3186167,430
0.3202833,639
0.32195,630
0.3236167,564
0.3252833,631
0.32695,671
0.3286167,415
0.3302833,649
0.33195,458
0.3336333,503
0.3352833,408
0.33695,507
0.3386167,508
0.3403,525
0.34195,542
0.3436167,533
0.3452833,523
0.34695,597
0.3486167,559
0.3503,521
0.35195,618
0.3536167,608
0.3552833,597
0.3569667,618
0.3586167,597
0.3603,590
0.36195,583
0.3636167,619
0.3652833,990
0.36695,1787
0.3686333,2549
0.3703,3135
0.3719667,3550
0.3736333,3997
0.3753,4211
0.37695,4775
0.3786167,5465
0.3802833,5445
0.38195,5634
0.3836167,5077
0.3853,4640
0.38695,3983
0.3886333,3376
0.3903,2702
0.3919667,2330
0.3936167,2118
0.3952833,1390
0.39695,1548
0.3986333,1137
0.4002833,1067
0.40195,1485
0.4036333,1101
0.4053,1095
0.4069667,1289
0.4086333,1102
0.4103,1175
0.4119667,1043
0.4136333,1143
0.4153,1243
0.4169667,1404
0.4186333,1429
0.4203,1454
0.4219667,1244
0.4236333,1630
0.4253,1560
0.4269667,1541
0.4286333,1389
0.4303,1460
0.4319667,1531
0.4336333,2237
0.4353,2961
0.4369667,4673
0.4386333,6304
0.4403,10312
0.4419667,16100
0.4436333,22300
0.4453,32392
0.4469667,45088
0.4486333,59760
0.4503,74752
0.4519667,90592
0.4536333,105648
0.4553,114032
0.4569667,125696
0.4586333,138496
0.4603,140096
0.4619667,148096
0.4636333,155584
0.4653,160960
0.4669667,169920
0.4686333,176704
0.4703,182784
0.4719667,195904
0.4736333,206656
0.4753,209792
0.4769667,208512
0.4786333,204352
0.4803,197120
0.4819667,185152
0.4836333,165376
0.4853,145216
0.4869667,124912
0.4886333,109632
0.4903,88272
0.4919667,73312
0.4936333,58992
0.4953,46528
0.4969667,37712
0.4986333,29216
0.5003,24124
0.5019667,17972
0.5036333,15260
0.5053,12068
0.5069667,9840
0.5086333,8500
0.5103,7189
0.5119666,6077
0.5136333,5440
0.5153,5081
0.5169666,4611
0.5186333,3716
0.5203,3726
0.5219667,3987
0.5236334,3353
0.5253,3292
0.5269667,3149
0.5286334,2938
0.5303,2968
0.5319667,2904
0.5336334,2596
0.5353,2610
0.5369667,2665
0.5386333,2483
0.5403,2310
0.5419667,2098
0.5436333,2259
0.5453,2133
0.5469667,2077
0.5486333,1674
0.5503,1813
0.5519667,1982
0.5536333,2038
0.5553,1606
0.5569667,1713
0.5586333,1486
0.5603,1770
0.5619667,1405
0.5636333,1727
0.5653,1451
0.5669667,1467
0.5686333,1182
0.5703,1254
0.5719666,1361
0.5736333,1331
0.5753,1354
0.5769666,1384
0.5786333,1376
0.5803,1308
0.5819666,1255
0.5836333,1303
0.5853,1350
0.5869667,1297
0.5886334,1243
0.5903,1492
0.5919667,1493
0.5936334,1431
0.5953,1354
0.5969667,1280
0.5986333,1396
0.6003,1315
0.6019667,1233
0.6036333,1305
0.6053,1268
0.6069667,1231
0.6086333,1334
0.6103,1438
0.6119667,1328
0.6136333,1219
0.6153,1484
0.6169667,1463
0.6186333,1410
0.6203,1550
0.6219667,1229
0.6236333,1191
0.6253,1387
0.6269667,1353
0.6286333,1299
0.6303,1187
0.6319667,1254
0.6336333,1214
0.6353,873
0.6369666,1137
0.6386333,1095
0.6403,1070
0.6419666,1127
0.6436333,1111
0.6453,1095
0.6469667,1067
0.6486334,862
0.6503,738
0.6519667,925
0.6536334,899
0.6553,1100
0.6569667,1134
0.6586334,842
0.6603,937
0.6619667,829
0.6636333,805
0.6653,780
0.6669667,890
0.6686333,850
0.6703,809
0.6719667,917
0.6736333,865
0.6753,722
0.6769667,834
0.6786333,895
0.6803,881
0.6819667,867
0.6836333,783
0.6853,807
0.6869667,765
0.6886333,744
0.6903,784
0.6919667,767
0.6936333,750
0.6953,945
0.6969666,932
0.6986333,789
0.7003,766
0.7019666,862
0.7036333,852
0.7053,829
0.7069666,812
0.7086333,515
0.7103,676
0.7119667,755
0.7136334,814
0.7153,663
0.7169667,695
0.7186334,811
0.7203,862
0.7219667,821
0.7236333,781
0.7253,842
0.7269667,815
0.7286333,788
0.7303,664
0.7319667,834
0.7336333,822
0.7353,740
0.7369667,844
0.7386333,716
0.7403,819
0.7419667,750
0.7436333,773
0.7453,796
0.7469667,822
0.7486333,850
0.7503,818
0.7519667,785
0.7536333,700
0.7553,889
0.7569667,815
0.7586333,719
0.7603,763
0.7619666,711
0.7636333,769
0.7653,748
0.7669666,727
0.7686333,626
0.7703,835
0.7719667,900
0.7736334,918
0.7753,802
0.7769667,715
0.7786334,924
0.7803,820
0.7819667,842
0.7836334,908
0.7853,807
0.7869667,706
0.7886333,708
0.7903,796
0.7919667,743
0.7936333,836
0.7953,796
0.7969667,756
0.7986333,643
0.8003,915
0.8019667,884
0.8036333,941
0.8053,943
0.8069667,802
0.8086333,835
0.8103,846
0.8119667,709
0.8136333,662
0.8153,713
0.8169667,720
0.8186333,634
0.8203,844
0.8219666,889
0.8236333,716
0.8253,668
0.8269666,741
0.8286333,745
0.8303,748
0.8319666,782
0.8336333,773
0.8353,763
0.8369667,797
0.8386334,777
0.8403,758
0.8419667,811
0.8436334,750
0.8453,821
0.8469667,892
0.8486333,869
0.8503,850
0.8519667,876
0.8536333,639
0.8553,898
0.8569667,886
0.8586333,875
0.8603,843
0.8619667,603
0.8636333,829
0.8653,775
0.8669667,736
0.8686333,635
0.8703,566
0.8719667,865
0.8736333,839
0.8753,696
0.8769667,830
0.8786333,1054
0.8803,1508
0.8819667,1625
0.8836333,2038
0.8853,2531
0.8869666,2796
0.8886333,2664
0.8903,3309
0.8919666,3118
0.8936333,3260
0.8953,3575
0.8969667,3837
0.8986334,3835
0.9003,3769
0.9019667,3364
0.9036334,3904
0.9053,4237
0.9069667,3932
0.9086334,3779
0.9103,3861
0.9119667,3836
0.9136333,3792
0.9153,3813
0.9169667,3834
0.9186333,3926
0.9203,3546
0.9219667,4139
0.9236333,3397
0.9253,3453
0.9269667,3584
0.9286333,3586
0.9303,3669
0.9319667,3336
0.9336333,3507
0.9353,3204
0.9369667,3310
0.9386333,3406
0.9403,3128
0.9419667,2938
0.9436333,3168
0.9453,3082
0.9469666,2872
0.9486333,2580
0.9503,2641
0.9519666,2674
0.9536333,2661
0.9553,2339
0.9569666,2131
0.9586333,2056
0.9603,2124
0.9619667,1768
0.9636334,1786
0.9653,1554
0.9669667,1682
0.9686334,1379
0.9703,1387
0.9719667,1326
0.9736333,1409
0.9753,1037
0.9769667,982
0.9786333,877
0.9803,957
0.9819667,945
0.9836333,858
0.9853,770
0.9869667,801
0.9886333,839
0.9903,746
0.9919667,508
0.9936333,533
0.9953,601
0.9969667,670
0.9986333,691
1.0003,659
1.001967,686
1.003633,713
1.0053,581
1.006967,533
1.008633,739
1.0103,557
1.011967,707
1.013633,746
1.0153,655
1.016967,515
1.018633,697
1.0203,495
1.021967,612
1.023633,570
1.0253,699
1.026967,705
1.028633,643
1.0303,658
1.031967,500
1.033633,668
1.0353,677
1.036967,489
1.038633,490
1.0403,568
1.041967,695
1.043633,704
1.0453,636
1.046967,718
1.048633,694
1.0503,623
1.051967,776
1.053633,603
1.0553,647
1.056967,629
1.058633,506
1.0603,712
1.061967,626
1.063633,530
1.0653,624
1.066967,673
1.068633,614
1.0703,696
1.071967,666
1.073633,602
1.0753,595
1.076967,680
1.078633,672
1.0803,557
1.081967,544
1.083633,738
1.0853,737
1.086967,736
1.088633,734
1.0903,603
1.091967,564
1.093633,510
1.0953,570
1.096967,611
1.098633,651
1.1003,534
1.101967,626
1.103633,807
1.1053,839
1.106967,601
1.108633,663
1.1103,757
1.111967,595
1.113633,654
1.1153,762
1.116967,591
1.118633,716
1.1203,654
1.121967,766
1.123633,703
1.1253,529
1.126967,695
1.128633,616
1.1303,712
1.131967,744
1.133633,724
1.1353,610
1.136967,533
1.138633,571
1.1403,609
1.141967,512
1.143633,676
1.1453,702
1.146967,813
1.148633,658
1.1503,543
1.151967,650
1.153633,807
1.1553,787
1.156967,701
1.158633,601
1.1603,714
1.161967,618
1.163633,638
1.1653,657
1.166967,629
1.168633,674
1.1703,720
1.171967,724
1.173633,729
1.1753,737
1.176967,592
1.178633,658
1.1803,739
1.181967,756
1.183633,773
1.1853,809
1.186967,623
1.188633,732
1.1903,702
1.191967,625
1.193633,582
1.1953,630
1.196967,679
1.198633,906
