"SampleName","A2Rd2_02-55"
"Target Mass 1",
"Column Name","IA-3 (3um, 4.6X100)"
"Channel","QDa 1: SIR Ch1"
0.00195,297
0.003616667,767
0.005283333,615
0.00695,556
0.008616666,420
0.01028333,568
0.01195,589
0.01361667,561
0.01528333,533
0.01695,571
0.01861667,522
0.02028333,473
0.02195,509
0.02361667,551
0.02528333,530
0.02695,458
0.02861667,464
0.03028333,470
0.03195,455
0.03361667,498
0.03528333,541
0.03695,586
0.03861667,608
0.04028333,500
0.04195,604
0.04361667,521
0.04528333,573
0.04695,573
0.04861667,560
0.05028334,546
0.05195,553
0.05361667,454
0.05528333,484
0.05695,587
0.05861667,607
0.06028333,633
0.06195,565
0.06361666,609
0.06528334,581
0.06695,552
0.06861667,561
0.07028333,549
0.07195,487
0.07361667,393
0.07528333,455
0.07695,528
0.07861666,436
0.08028334,489
0.08195,542
0.08361667,499
0.08528333,551
0.08695,601
0.08861667,418
0.09028333,555
0.09195,625
0.09361666,558
0.09528334,553
0.09695,473
0.09861667,633
0.1002833,686
0.10195,580
0.1036167,542
0.1052833,700
0.10695,478
0.1086167,488
0.1102833,500
0.11195,539
0.1136167,548
0.1152833,409
0.11695,589
0.1186167,653
0.1202833,573
0.12195,369
0.1236167,518
0.1252833,502
0.12695,508
0.1286167,506
0.1302833,503
0.13195,456
0.1336167,549
0.1352833,525
0.13695,540
0.1386167,549
0.1402833,558
0.14195,433
0.1436167,494
0.1452833,555
0.14695,525
0.1486167,494
0.1502833,512
0.15195,586
0.1536167,572
0.1552833,558
0.15695,498
0.1586167,467
0.1602833,531
0.16195,540
0.1636167,493
0.1652833,587
0.16695,633
0.1686167,437
0.1702833,499
0.17195,612
0.1736167,412
0.1752833,617
0.17695,579
0.1786167,589
0.1802833,535
0.18195,476
0.1836167,573
0.1852833,438
0.18695,573
0.1886167,581
0.1902833,602
0.19195,510
0.1936167,561
0.1952833,539
0.19695,433
0.1986167,596
0.2002833,543
0.20195,568
0.2036167,485
0.2052833,460
0.20695,534
0.2086167,499
0.2102833,441
0.21195,483
0.2136167,525
0.2152833,614
0.21695,339
0.2186167,376
0.2202833,580
0.22195,556
0.2236167,484
0.2252833,527
0.22695,473
0.2286167,420
0.2302833,549
0.23195,492
0.2336167,518
0.2352833,514
0.23695,468
0.2386167,513
0.2402833,538
0.24195,487
0.2436167,487
0.2453,405
0.24695,542
0.2486167,412
0.2502833,514
0.25195,426
0.2536167,467
0.2552833,456
0.25695,408
0.2586167,436
0.2602833,464
0.26195,462
0.2636333,460
0.2652833,535
0.26695,506
0.2686333,476
0.2702833,638
0.27195,684
0.2736167,562
0.2752833,537
0.27695,524
0.2786167,565
0.2803,391
0.28195,604
0.2836167,681
0.2852833,432
0.28695,593
0.2886167,634
0.2902833,459
0.29195,561
0.2936167,502
0.2952833,414
0.29695,587
0.2986333,584
0.3002833,582
0.3019667,574
0.3036167,495
0.3052833,506
0.30695,566
0.3086167,377
0.3103,568
0.31195,493
0.3136167,467
0.3153,487
0.31695,529
0.3186333,581
0.3202833,634
0.3219667,651
0.3236167,564
0.3252833,664
0.3269667,557
0.3286167,568
0.3302833,616
0.3319667,584
0.3336333,573
0.3353,584
0.33695,577
0.3386333,570
0.3402833,516
0.3419667,568
0.3436333,531
0.3453,493
0.3469667,600
0.3486333,485
0.3503,433
0.3519667,543
0.3536333,570
0.3553,553
0.35695,542
0.3586333,608
0.3603,598
0.3619667,588
0.3636167,754
0.3653,1296
0.3669667,1929
0.3686333,2495
0.3703,2940
0.3719667,3663
0.3736167,3160
0.3753,3387
0.3769667,3075
0.3786333,3907
0.3803,4697
0.3819667,4537
0.3836333,4572
0.3853,4647
0.3869667,3807
0.3886333,3350
0.3903,2899
0.3919667,2406
0.3936333,2114
0.3953,1697
0.3969667,1449
0.3986333,1529
0.4003,1330
0.4019667,1207
0.4036333,1155
0.4053,1312
0.4069667,1242
0.4086333,1172
0.4103,1371
0.4119667,1083
0.4136333,1340
0.4153,1449
0.4169667,1574
0.4186333,1684
0.4203,1642
0.4219667,1600
0.4236333,1557
0.4253,1514
0.4269667,1500
0.4286333,1998
0.4303,2040
0.4319667,2432
0.4336333,2500
0.4353,3291
0.4369667,4759
0.4386333,8043
0.4403,12408
0.4419667,18824
0.4436333,27316
0.4453,40448
0.4469667,52784
0.4486333,67824
0.4503,84208
0.4519667,100288
0.4536333,114080
0.4553,124112
0.4569667,138688
0.4586333,144128
0.4603,149376
0.4619667,154112
0.4636333,155520
0.4653,157120
0.4669667,157632
0.4686333,160256
0.4703,168000
0.4719667,174016
0.4736333,185216
0.4753,188864
0.4769667,198464
0.4786333,199616
0.4803,200512
0.4819667,193408
0.4836333,182976
0.4853,167360
0.4869667,154368
0.4886333,132096
0.4903,117328
0.4919667,99760
0.4936333,84848
0.4953,71376
0.4969667,56304
0.4986333,45632
0.5003,37696
0.5019667,29816
0.5036333,24908
0.5053,18200
0.5069667,15352
0.5086333,13276
0.5103,11636
0.5119666,9304
0.5136333,7415
0.5153,7501
0.5169666,6028
0.5186333,5492
0.5203,4933
0.5219667,4241
0.5236334,4093
0.5253,3571
0.5269667,3844
0.5286334,3535
0.5303,3077
0.5319667,3302
0.5336334,3133
0.5353,2808
0.5369667,2968
0.5386333,2752
0.5403,2353
0.5419667,2418
0.5436333,2410
0.5453,2472
0.5469667,2413
0.5486333,2355
0.5503,1922
0.5519667,2029
0.5536333,2094
0.5553,2005
0.5569667,1916
0.5586333,1792
0.5603,1927
0.5619667,1812
0.5636333,1665
0.5653,1555
0.5669667,1561
0.5686333,1627
0.5703,1408
0.5719666,1406
0.5736333,1621
0.5753,1504
0.5769666,1341
0.5786333,1207
0.5803,1445
0.5819666,1240
0.5836333,1175
0.5853,1430
0.5869667,1416
0.5886334,1291
0.5903,1576
0.5919667,1172
0.5936334,1380
0.5953,1428
0.5969667,1468
0.5986333,1504
0.6003,1295
0.6019667,1331
0.6036333,1368
0.6053,1283
0.6069667,1406
0.6086333,1160
0.6103,1306
0.6119667,1418
0.6136333,1244
0.6153,1269
0.6169667,1338
0.6186333,1103
0.6203,1281
0.6219667,1166
0.6236333,1216
0.6253,1266
0.6269667,1181
0.6286333,1155
0.6303,1040
0.6319667,1156
0.6336333,1061
0.6353,1000
0.6369666,974
0.6386333,882
0.6403,998
0.6419666,980
0.6436333,932
0.6453,885
0.6469667,792
0.6486334,894
0.6503,880
0.6519667,867
0.6536334,821
0.6553,641
0.6569667,826
0.6586334,785
0.6603,869
0.6619667,954
0.6636333,985
0.6653,879
0.6669667,874
0.6686333,778
0.6703,848
0.6719667,736
0.6736333,771
0.6753,734
0.6769667,697
0.6786333,636
0.6803,655
0.6819667,723
0.6836333,726
0.6853,661
0.6869667,671
0.6886333,681
0.6903,539
0.6919667,630
0.6936333,854
0.6953,822
0.6969666,647
0.6986333,810
0.7003,808
0.7019666,688
0.7036333,709
0.7053,639
0.7069666,776
0.7086333,771
0.7103,739
0.7119667,716
0.7136334,781
0.7153,641
0.7169667,672
0.7186334,669
0.7203,762
0.7219667,656
0.7236333,549
0.7253,818
0.7269667,810
0.7286333,929
0.7303,712
0.7319667,694
0.7336333,639
0.7353,626
0.7369667,613
0.7386333,625
0.7403,602
0.7419667,677
0.7436333,652
0.7453,627
0.7469667,798
0.7486333,737
0.7503,675
0.7519667,653
0.7536333,654
0.7553,654
0.7569667,696
0.7586333,642
0.7603,588
0.7619666,691
0.7636333,599
0.7653,694
0.7669666,684
0.7686333,674
0.7703,725
0.7719667,755
0.7736334,592
0.7753,579
0.7769667,744
0.7786334,614
0.7803,655
0.7819667,596
0.7836334,512
0.7853,636
0.7869667,600
0.7886333,565
0.7903,584
0.7919667,603
0.7936333,590
0.7953,577
0.7969667,703
0.7986333,703
0.8003,630
0.8019667,762
0.8036333,730
0.8053,598
0.8069667,679
0.8086333,606
0.8103,648
0.8119667,571
0.8136333,554
0.8153,446
0.8169667,567
0.8186333,689
0.8203,748
0.8219666,756
0.8236333,721
0.8253,596
0.8269666,633
0.8286333,543
0.8303,550
0.8319666,683
0.8336333,681
0.8353,526
0.8369667,524
0.8386334,647
0.8403,777
0.8419667,745
0.8436334,616
0.8453,624
0.8469667,605
0.8486333,617
0.8503,654
0.8519667,570
0.8536333,642
0.8553,599
0.8569667,599
0.8586333,647
0.8603,672
0.8619667,697
0.8636333,578
0.8653,669
0.8669667,725
0.8686333,515
0.8703,648
0.8719667,562
0.8736333,477
0.8753,506
0.8769667,840
0.8786333,793
0.8803,964
0.8819667,1029
0.8836333,1216
0.8853,1525
0.8869666,1703
0.8886333,1767
0.8903,1580
0.8919666,1689
0.8936333,1799
0.8953,2224
0.8969667,2159
0.8986334,1948
0.9003,2248
0.9019667,1990
0.9036334,2192
0.9053,2223
0.9069667,1825
0.9086334,1949
0.9103,2335
0.9119667,1914
0.9136333,2080
0.9153,2131
0.9169667,2291
0.9186333,2209
0.9203,2084
0.9219667,2300
0.9236333,1896
0.9253,1892
0.9269667,1978
0.9286333,2016
0.9303,1783
0.9319667,2134
0.9336333,2112
0.9353,2087
0.9369667,2015
0.9386333,1799
0.9403,1863
0.9419667,1898
0.9436333,1547
0.9453,1784
0.9469666,1864
0.9486333,1481
0.9503,1543
0.9519666,1559
0.9536333,1398
0.9553,1248
0.9569666,1415
0.9586333,1129
0.9603,1355
0.9619667,1332
0.9636334,1243
0.9653,984
0.9669667,1042
0.9686334,968
0.9703,994
0.9719667,804
0.9736333,918
0.9753,726
0.9769667,642
0.9786333,688
0.9803,816
0.9819667,944
0.9836333,834
0.9853,554
0.9869667,635
0.9886333,557
0.9903,578
0.9919667,599
0.9936333,553
0.9953,593
0.9969667,597
0.9986333,619
1.0003,409
1.001967,566
1.003633,596
1.0053,532
1.006967,516
1.008633,500
1.0103,509
1.011967,517
1.013633,417
1.0153,478
1.016967,539
1.018633,461
1.0203,445
1.021967,469
1.023633,443
1.0253,473
1.026967,569
1.028633,599
1.0303,567
1.031967,477
1.033633,470
1.0353,462
1.036967,475
1.038633,488
1.0403,442
1.041967,417
1.043633,417
1.0453,418
1.046967,412
1.048633,441
1.0503,470
1.051967,562
1.053633,529
1.0553,521
1.056967,415
1.058633,503
1.0603,580
1.061967,440
1.063633,413
1.0653,587
1.066967,488
1.068633,478
1.0703,445
1.071967,412
1.073633,454
1.0753,587
1.076967,595
1.078633,481
1.0803,385
1.081967,472
1.083633,461
1.0853,518
1.086967,513
1.088633,522
1.0903,531
1.091967,435
1.093633,578
1.0953,647
1.096967,690
1.098633,526
1.1003,496
1.101967,521
1.103633,474
1.1053,531
1.106967,534
1.108633,536
1.1103,521
1.111967,414
1.113633,552
1.1153,536
1.116967,550
1.118633,496
1.1203,413
1.121967,482
1.123633,504
1.1253,527
1.126967,502
1.128633,562
1.1303,562
1.131967,562
1.133633,543
1.1353,535
1.136967,526
1.138633,516
1.1403,505
1.141967,449
1.143633,501
1.1453,509
1.146967,518
1.148633,522
1.1503,465
1.151967,479
1.153633,494
1.1553,534
1.156967,575
1.158633,571
1.1603,567
1.161967,419
1.163633,423
1.1653,430
1.166967,437
1.168633,627
1.1703,589
1.171967,594
1.173633,655
1.1753,628
1.176967,603
1.178633,571
1.1803,493
1.181967,620
1.183633,613
1.1853,531
1.186967,571
1.188633,550
1.1903,429
1.191967,633
1.193633,517
1.1953,590
1.196967,573
1.198633,480
