"SampleName","A2Rd2_02-73"
"Target Mass 1",
"Column Name","IA-3 (3um, 4.6X100)"
"Channel","QDa 1: SIR Ch1"
0.00195,383
0.003616667,473
0.005283333,544
0.00695,526
0.008616666,454
0.01028333,482
0.01195,510
0.01361667,486
0.01528333,463
0.01695,479
0.01861667,496
0.02028333,651
0.02195,661
0.02361667,596
0.02528333,627
0.02695,631
0.02861667,488
0.03028333,501
0.03195,494
0.03361667,506
0.03528333,518
0.03695,481
0.03861667,454
0.04028333,632
0.04195,583
0.04361667,535
0.04528333,392
0.04695,662
0.04861667,685
0.05028334,712
0.05195,479
0.05361667,542
0.05528333,508
0.05695,537
0.05861667,537
0.06028333,525
0.06195,512
0.06361666,550
0.06528334,569
0.06695,491
0.06861667,473
0.07028333,516
0.07195,538
0.07361667,745
0.07528333,750
0.07695,567
0.07861666,519
0.08028334,687
0.08195,634
0.08361667,528
0.08528333,443
0.08695,442
0.08861667,549
0.09028333,520
0.09195,491
0.09361666,390
0.09528334,556
0.09695,579
0.09861667,525
0.1002833,548
0.10195,553
0.1036167,519
0.1052833,558
0.10695,559
0.1086167,560
0.1102833,577
0.11195,433
0.1136167,597
0.1152833,501
0.11695,552
0.1186167,556
0.1202833,482
0.12195,535
0.1236167,566
0.1252833,431
0.12695,564
0.1286167,616
0.1302833,492
0.13195,543
0.1336167,514
0.1352833,524
0.13695,487
0.1386167,538
0.1402833,523
0.14195,509
0.1436167,476
0.1452833,501
0.14695,463
0.1486167,475
0.1502833,391
0.15195,422
0.1536167,454
0.1552833,501
0.15695,491
0.1586167,482
0.1602833,466
0.16195,451
0.1636167,438
0.1652833,424
0.16695,444
0.1686167,465
0.1702833,511
0.17195,472
0.1736167,434
0.1752833,485
0.17695,469
0.1786167,652
0.1802833,673
0.18195,540
0.1836167,479
0.1852833,452
0.18695,500
0.1886167,464
0.1902833,425
0.19195,557
0.1936167,506
0.1952833,455
0.19695,567
0.1986167,536
0.2002833,536
0.20195,529
0.2036167,501
0.2052833,529
0.20695,556
0.2086167,539
0.2102833,522
0.21195,555
0.2136167,589
0.2152833,604
0.21695,415
0.2186167,616
0.2202833,493
0.22195,498
0.2236167,514
0.2252833,418
0.22695,546
0.2286167,576
0.2302833,510
0.23195,602
0.2336167,371
0.2352833,547
0.23695,528
0.2386167,617
0.2402833,439
0.24195,399
0.2436167,624
0.2452833,466
0.24695,529
0.2486167,444
0.2502833,502
0.25195,489
0.2536167,509
0.2552833,529
0.25695,628
0.2586167,368
0.2602833,580
0.26195,547
0.2636333,419
0.2652833,583
0.26695,463
0.2686167,475
0.2702833,335
0.27195,552
0.2736167,555
0.2752833,456
0.27695,529
0.2786167,449
0.2803,509
0.28195,435
0.2836167,412
0.2852833,493
0.2869667,485
0.2886167,476
0.2902833,434
0.29195,480
0.2936167,495
0.2952833,511
0.29695,527
0.2986333,578
0.3002833,566
0.30195,534
0.3036333,502
0.3052833,486
0.30695,470
0.3086167,477
0.3102833,565
0.31195,545
0.3136333,515
0.3153,485
0.3169667,664
0.3186333,638
0.3203,540
0.32195,565
0.3236167,586
0.3252833,559
0.32695,446
0.3286167,603
0.3302833,680
0.33195,442
0.3336333,387
0.3352833,531
0.3369667,489
0.3386333,528
0.3403,551
0.34195,574
0.3436167,398
0.3452833,516
0.3469667,468
0.3486167,455
0.3503,441
0.35195,485
0.3536333,528
0.3553,549
0.3569667,577
0.3586167,604
0.3603,580
0.36195,628
0.3636333,1123
0.3652833,1242
0.3669667,1997
0.3686333,3007
0.3703,4328
0.3719667,4531
0.3736333,4361
0.3753,4698
0.3769667,4592
0.3786167,4180
0.3803,4998
0.38195,5342
0.3836333,5040
0.3853,4476
0.3869667,4389
0.3886333,3664
0.3903,3288
0.3919667,2308
0.3936333,1613
0.3953,1506
0.3969667,1159
0.3986333,1214
0.4003,980
0.4019667,1137
0.4036333,985
0.4053,925
0.4069667,795
0.4086333,880
0.4103,936
0.4119667,880
0.4136333,835
0.4153,834
0.4169667,833
0.4186333,858
0.4203,883
0.4219667,899
0.4236333,814
0.4253,818
0.4269667,875
0.4286333,933
0.4303,1275
0.4319667,1379
0.4336333,2136
0.4353,3171
0.4369667,5352
0.4386333,10288
0.4403,14932
0.4419667,25124
0.4436333,37312
0.4453,54816
0.4469667,70592
0.4486333,90288
0.4503,113792
0.4519667,132608
0.4536333,153344
0.4553,164288
0.4569667,183936
0.4586333,197056
0.4603,206208
0.4619667,213312
0.4636333,211648
0.4653,217728
0.4669667,217344
0.4686333,224960
0.4703,229248
0.4719667,234560
0.4736333,236736
0.4753,246784
0.4769667,250816
0.4786333,256064
0.4803,255232
0.4819667,249920
0.4836333,238592
0.4853,230336
0.4869667,213504
0.4886333,196032
0.4903,173120
0.4919667,151744
0.4936333,131264
0.4953,114320
0.4969667,97328
0.4986333,81120
0.5003,67168
0.5019667,54480
0.5036333,44272
0.5053,36560
0.5069667,30056
0.5086333,23860
0.5103,20820
0.5119666,17548
0.5136333,13596
0.5153,11768
0.5169666,11408
0.5186333,9292
0.5203,8628
0.5219667,7236
0.5236334,6654
0.5253,5724
0.5269667,5371
0.5286334,5080
0.5303,4355
0.5319667,4426
0.5336334,3947
0.5353,3698
0.5369667,3612
0.5386333,3826
0.5403,3145
0.5419667,3028
0.5436333,3054
0.5453,3331
0.5469667,2771
0.5486333,3016
0.5503,2774
0.5519667,2641
0.5536333,2087
0.5553,2256
0.5569667,1937
0.5586333,2131
0.5603,2102
0.5619667,2072
0.5636333,1759
0.5653,2070
0.5669667,2065
0.5686333,1935
0.5703,2242
0.5719666,1706
0.5736333,1848
0.5753,1821
0.5769666,1554
0.5786333,1978
0.5803,1596
0.5819666,1755
0.5836333,1730
0.5853,1803
0.5869667,1597
0.5886334,1541
0.5903,1692
0.5919667,1522
0.5936334,1352
0.5953,1598
0.5969667,1662
0.5986333,1496
0.6003,1428
0.6019667,1478
0.6036333,1491
0.6053,1354
0.6069667,1263
0.6086333,1556
0.6103,1391
0.6119667,1514
0.6136333,1286
0.6153,1258
0.6169667,1230
0.6186333,1225
0.6203,1220
0.6219667,1073
0.6236333,1164
0.6253,1195
0.6269667,1071
0.6286333,1089
0.6303,1247
0.6319667,1161
0.6336333,989
0.6353,1018
0.6369666,1050
0.6386333,1106
0.6403,1079
0.6419666,864
0.6436333,954
0.6453,944
0.6469667,1160
0.6486334,1116
0.6503,1005
0.6519667,1082
0.6536334,971
0.6553,1065
0.6569667,1166
0.6586334,937
0.6603,1085
0.6619667,1134
0.6636333,1101
0.6653,1173
0.6669667,978
0.6686333,1027
0.6703,1131
0.6719667,1019
0.6736333,1042
0.6753,1065
0.6769667,945
0.6786333,902
0.6803,855
0.6819667,881
0.6836333,930
0.6853,979
0.6869667,919
0.6886333,859
0.6903,896
0.6919667,821
0.6936333,828
0.6953,835
0.6969666,900
0.6986333,924
0.7003,900
0.7019666,864
0.7036333,827
0.7053,867
0.7069666,979
0.7086333,1076
0.7103,990
0.7119667,882
0.7136334,845
0.7153,966
0.7169667,825
0.7186334,980
0.7203,1018
0.7219667,810
0.7236333,818
0.7253,858
0.7269667,830
0.7286333,802
0.7303,823
0.7319667,844
0.7336333,675
0.7353,734
0.7369667,1027
0.7386333,1038
0.7403,786
0.7419667,1166
0.7436333,990
0.7453,969
0.7469667,796
0.7486333,883
0.7503,885
0.7519667,945
0.7536333,879
0.7553,812
0.7569667,838
0.7586333,865
0.7603,843
0.7619666,859
0.7636333,876
0.7653,904
0.7669666,933
0.7686333,1041
0.7703,1008
0.7719667,865
0.7736334,931
0.7753,956
0.7769667,1017
0.7786334,769
0.7803,811
0.7819667,965
0.7836334,1001
0.7853,804
0.7869667,1067
0.7886333,847
0.7903,866
0.7919667,791
0.7936333,977
0.7953,976
0.7969667,933
0.7986333,1016
0.8003,957
0.8019667,897
0.8036333,1050
0.8053,921
0.8069667,1056
0.8086333,1147
0.8103,1035
0.8119667,1033
0.8136333,1003
0.8153,1069
0.8169667,878
0.8186333,1040
0.8203,914
0.8219666,990
0.8236333,1052
0.8253,1177
0.8269666,1248
0.8286333,960
0.8303,1042
0.8319666,1156
0.8336333,940
0.8353,1031
0.8369667,886
0.8386334,1099
0.8403,835
0.8419667,1001
0.8436334,948
0.8453,969
0.8469667,972
0.8486333,950
0.8503,1045
0.8519667,1119
0.8536333,731
0.8553,969
0.8569667,848
0.8586333,926
0.8603,991
0.8619667,792
0.8636333,766
0.8653,865
0.8669667,811
0.8686333,680
0.8703,668
0.8719667,865
0.8736333,1238
0.8753,1452
0.8769667,1814
0.8786333,2271
0.8803,2387
0.8819667,2779
0.8836333,3306
0.8853,3788
0.8869666,3332
0.8886333,3873
0.8903,3843
0.8919666,3549
0.8936333,3821
0.8953,3866
0.8969667,3835
0.8986334,3804
0.9003,3743
0.9019667,3312
0.9036334,3932
0.9053,3628
0.9069667,4029
0.9086334,3382
0.9103,3888
0.9119667,3640
0.9136333,3404
0.9153,3699
0.9169667,3621
0.9186333,3601
0.9203,3581
0.9219667,3588
0.9236333,3595
0.9253,3579
0.9269667,3563
0.9286333,3431
0.9303,3391
0.9319667,3595
0.9336333,3240
0.9353,3685
0.9369667,3384
0.9386333,3142
0.9403,3402
0.9419667,3161
0.9436333,2813
0.9453,2903
0.9469666,3289
0.9486333,3126
0.9503,2667
0.9519666,2651
0.9536333,2384
0.9553,2381
0.9569666,2557
0.9586333,2208
0.9603,2009
0.9619667,2185
0.9636334,1745
0.9653,1800
0.9669667,1628
0.9686334,1865
0.9703,1631
0.9719667,1412
0.9736333,1330
0.9753,1522
0.9769667,1199
0.9786333,1316
0.9803,1144
0.9819667,1133
0.9836333,1059
0.9853,1103
0.9869667,964
0.9886333,775
0.9903,906
0.9919667,661
0.9936333,756
0.9953,834
0.9969667,736
0.9986333,789
1.0003,634
1.001967,791
1.003633,621
1.0053,678
1.006967,765
1.008633,567
1.0103,561
1.011967,713
1.013633,666
1.0153,619
1.016967,591
1.018633,619
1.0203,609
1.021967,584
1.023633,560
1.0253,694
1.026967,673
1.028633,646
1.0303,736
1.031967,723
1.033633,711
1.0353,665
1.036967,709
1.038633,701
1.0403,692
1.041967,688
1.043633,560
1.0453,669
1.046967,738
1.048633,616
1.0503,706
1.051967,819
1.053633,779
1.0553,841
1.056967,587
1.058633,658
1.0603,794
1.061967,748
1.063633,653
1.0653,651
1.066967,594
1.068633,587
1.0703,550
1.071967,635
1.073633,796
1.0753,781
1.076967,786
1.078633,712
1.0803,711
1.081967,710
1.083633,686
1.0853,664
1.086967,642
1.088633,666
1.0903,689
1.091967,684
1.093633,679
1.0953,794
1.096967,848
1.098633,556
1.1003,836
1.101967,636
1.103633,665
1.1053,704
1.106967,709
1.108633,610
1.1103,598
1.111967,660
1.113633,722
1.1153,508
1.116967,629
1.118633,763
1.1203,696
1.121967,535
1.123633,671
1.1253,651
1.126967,610
1.128633,861
1.1303,816
1.131967,701
1.133633,747
1.1353,753
1.136967,755
1.138633,758
1.1403,688
1.141967,716
1.143633,781
1.1453,762
1.146967,743
1.148633,722
1.1503,674
1.151967,693
1.153633,712
1.1553,698
1.156967,765
1.158633,815
1.1603,769
1.161967,830
1.163633,828
1.1653,827
1.166967,672
1.168633,782
1.1703,868
1.171967,634
1.173633,831
1.1753,752
1.176967,878
1.178633,918
1.1803,867
1.181967,878
1.183633,781
1.1853,654
1.186967,824
1.188633,819
1.1903,768
1.191967,717
1.193633,723
1.1953,729
1.196967,745
1.198633,761
