"SampleName","A2Rd2_02-79"
"Target Mass 1",
"Column Name","IA-3 (3um, 4.6X100)"
"Channel","QDa 1: SIR Ch1"
0.00195,385
0.003616667,675
0.005283333,523
0.00695,606
0.008616666,536
0.01028333,507
0.01195,517
0.01361667,561
0.01528333,536
0.01695,512
0.01861667,528
0.02028333,513
0.02195,498
0.02361667,513
0.02528333,528
0.02695,416
0.02861667,617
0.03028333,539
0.03195,383
0.03361667,541
0.03528333,470
0.03695,398
0.03861667,535
0.04028333,410
0.04195,504
0.04361667,489
0.04528333,474
0.04695,532
0.04861667,592
0.05028334,661
0.05195,589
0.05361667,509
0.05528333,498
0.05695,478
0.05861667,545
0.06028333,480
0.06195,414
0.06361666,443
0.06528334,471
0.06695,548
0.06861667,572
0.07028333,573
0.07195,559
0.07361667,544
0.07528333,546
0.07695,547
0.07861666,447
0.08028334,506
0.08195,470
0.08361667,495
0.08528333,520
0.08695,457
0.08861667,472
0.09028333,512
0.09195,552
0.09361666,606
0.09528334,579
0.09695,646
0.09861667,620
0.1002833,480
0.10195,475
0.1036167,419
0.1052833,541
0.10695,502
0.1086167,463
0.1102833,446
0.11195,429
0.1136167,491
0.1152833,473
0.11695,471
0.1186167,468
0.1202833,563
0.12195,518
0.1236167,474
0.1252833,572
0.12695,630
0.1286167,578
0.1302833,596
0.13195,508
0.1336167,488
0.1352833,552
0.13695,569
0.1386167,614
0.1402833,554
0.14195,496
0.1436167,571
0.1452833,585
0.14695,500
0.1486167,607
0.1502833,461
0.15195,541
0.1536167,425
0.1552833,533
0.15695,460
0.1586167,450
0.1602833,440
0.16195,466
0.1636167,464
0.1652833,463
0.16695,450
0.1686167,437
0.1702833,448
0.17195,544
0.1736167,635
0.1752833,677
0.17695,415
0.1786167,549
0.1802833,531
0.18195,561
0.1836167,548
0.1852833,565
0.18695,570
0.1886167,483
0.1902833,558
0.19195,470
0.1936167,575
0.1952833,529
0.19695,500
0.1986167,505
0.2002833,511
0.20195,594
0.2036167,299
0.2052833,412
0.20695,513
0.2086167,548
0.2102833,546
0.21195,439
0.2136167,529
0.2152833,532
0.21695,485
0.2186167,537
0.2202833,546
0.22195,556
0.2236167,516
0.2252833,524
0.22695,553
0.2286167,581
0.2302833,563
0.23195,600
0.2336167,535
0.2352833,439
0.23695,501
0.2386167,501
0.2402833,540
0.24195,570
0.2436167,373
0.2452833,512
0.24695,531
0.2486167,395
0.2502833,416
0.25195,441
0.2536167,468
0.2552833,506
0.2569667,554
0.2586167,510
0.2602833,466
0.26195,453
0.2636333,599
0.2652833,660
0.26695,566
0.2686167,589
0.2702833,509
0.27195,453
0.2736167,447
0.2752833,467
0.27695,600
0.2786167,621
0.2803,635
0.28195,590
0.2836167,546
0.2852833,553
0.28695,521
0.2886167,523
0.2902833,505
0.29195,490
0.2936167,653
0.2952833,642
0.29695,610
0.2986333,484
0.3002833,628
0.30195,568
0.3036333,646
0.3052833,655
0.3069667,455
0.3086167,660
0.3102833,561
0.31195,435
0.3136167,687
0.3153,456
0.31695,520
0.3186167,560
0.3202833,520
0.3219667,481
0.3236167,575
0.3252833,574
0.32695,573
0.3286167,506
0.3302833,612
0.33195,569
0.3336333,426
0.3352833,607
0.3369667,622
0.3386333,510
0.3403,520
0.34195,514
0.3436167,555
0.3452833,531
0.34695,508
0.3486167,567
0.3503,641
0.35195,613
0.3536333,566
0.3553,505
0.3569667,534
0.3586167,682
0.3603,642
0.36195,757
0.3636333,920
0.3652833,1368
0.3669667,1925
0.3686333,2724
0.3703,3107
0.3719667,3296
0.3736333,3391
0.3753,3368
0.3769667,3358
0.3786167,3348
0.3803,3848
0.38195,3873
0.3836333,3898
0.3853,3715
0.3869667,3315
0.3886333,2991
0.3903,2827
0.3919667,2177
0.3936333,1671
0.3953,1364
0.3969667,1171
0.3986333,1359
0.4003,1037
0.4019667,1202
0.4036333,1148
0.4053,1005
0.4069667,1175
0.4086333,921
0.4103,1124
0.4119667,908
0.4136333,1193
0.4153,1016
0.4169667,971
0.4186333,1157
0.4203,1110
0.4219667,1042
0.4236333,1182
0.4253,1221
0.4269667,1160
0.4286333,1223
0.4303,1286
0.4319667,1947
0.4336333,2481
0.4353,4100
0.4369667,6098
0.4386333,9960
0.4403,16428
0.4419667,25264
0.4436333,38800
0.4453,50608
0.4469667,67792
0.4486333,86128
0.4503,101888
0.4519667,116448
0.4536333,130032
0.4553,142336
0.4569667,150336
0.4586333,157312
0.4603,162688
0.4619667,163776
0.4636333,166336
0.4653,161344
0.4669667,160640
0.4686333,164096
0.4703,171136
0.4719667,175168
0.4736333,177664
0.4753,186176
0.4769667,191168
0.4786333,196352
0.4803,191808
0.4819667,188736
0.4836333,182720
0.4853,168640
0.4869667,156160
0.4886333,137536
0.4903,121040
0.4919667,102832
0.4936333,91984
0.4953,77024
0.4969667,63824
0.4986333,53088
0.5003,44304
0.5019667,35440
0.5036333,27972
0.5053,23956
0.5069667,18660
0.5086333,15344
0.5103,12940
0.5119666,11116
0.5136333,10120
0.5153,8296
0.5169666,6782
0.5186333,6521
0.5203,5800
0.5219667,4925
0.5236334,4539
0.5253,4060
0.5269667,4571
0.5286334,3914
0.5303,3175
0.5319667,3639
0.5336334,3147
0.5353,2880
0.5369667,2700
0.5386333,2618
0.5403,2873
0.5419667,2215
0.5436333,2271
0.5453,2326
0.5469667,2382
0.5486333,2154
0.5503,2141
0.5519667,2173
0.5536333,1899
0.5553,1753
0.5569667,2006
0.5586333,1808
0.5603,1830
0.5619667,1622
0.5636333,1454
0.5653,1441
0.5669667,1504
0.5686333,1455
0.5703,1507
0.5719666,1490
0.5736333,1472
0.5753,1232
0.5769666,1359
0.5786333,1585
0.5803,1210
0.5819666,1374
0.5836333,1481
0.5853,1503
0.5869667,1270
0.5886334,1397
0.5903,1259
0.5919667,1239
0.5936334,1219
0.5953,1206
0.5969667,1228
0.5986333,1249
0.6003,1312
0.6019667,1374
0.6036333,1250
0.6053,1126
0.6069667,1304
0.6086333,1424
0.6103,1511
0.6119667,1195
0.6136333,1438
0.6153,1324
0.6169667,1086
0.6186333,1100
0.6203,1166
0.6219667,1046
0.6236333,986
0.6253,1219
0.6269667,1270
0.6286333,1239
0.6303,1243
0.6319667,1175
0.6336333,1107
0.6353,1308
0.6369666,1332
0.6386333,1026
0.6403,859
0.6419666,939
0.6436333,1017
0.6453,901
0.6469667,785
0.6486334,1129
0.6503,1035
0.6519667,930
0.6536334,1011
0.6553,1092
0.6569667,1040
0.6586334,941
0.6603,877
0.6619667,857
0.6636333,886
0.6653,915
0.6669667,913
0.6686333,912
0.6703,916
0.6719667,920
0.6736333,874
0.6753,828
0.6769667,895
0.6786333,993
0.6803,1005
0.6819667,947
0.6836333,894
0.6853,868
0.6869667,846
0.6886333,927
0.6903,773
0.6919667,758
0.6936333,701
0.6953,820
0.6969666,670
0.6986333,806
0.7003,941
0.7019666,977
0.7036333,891
0.7053,914
0.7069666,1048
0.7086333,788
0.7103,847
0.7119667,926
0.7136334,906
0.7153,776
0.7169667,849
0.7186334,794
0.7203,707
0.7219667,809
0.7236333,890
0.7253,951
0.7269667,956
0.7286333,798
0.7303,685
0.7319667,776
0.7336333,843
0.7353,911
0.7369667,805
0.7386333,776
0.7403,902
0.7419667,884
0.7436333,866
0.7453,992
0.7469667,905
0.7486333,817
0.7503,885
0.7519667,903
0.7536333,917
0.7553,1026
0.7569667,756
0.7586333,665
0.7603,961
0.7619666,780
0.7636333,886
0.7653,652
0.7669666,989
0.7686333,846
0.7703,843
0.7719667,962
0.7736334,915
0.7753,771
0.7769667,870
0.7786334,833
0.7803,830
0.7819667,855
0.7836334,854
0.7853,853
0.7869667,942
0.7886333,973
0.7903,895
0.7919667,995
0.7936333,837
0.7953,889
0.7969667,903
0.7986333,752
0.8003,867
0.8019667,964
0.8036333,910
0.8053,985
0.8069667,943
0.8086333,902
0.8103,1005
0.8119667,1003
0.8136333,975
0.8153,947
0.8169667,879
0.8186333,967
0.8203,1157
0.8219666,1184
0.8236333,1016
0.8253,990
0.8269666,937
0.8286333,1020
0.8303,936
0.8319666,961
0.8336333,961
0.8353,971
0.8369667,980
0.8386334,946
0.8403,1025
0.8419667,901
0.8436334,911
0.8453,921
0.8469667,874
0.8486333,827
0.8503,873
0.8519667,960
0.8536333,929
0.8553,903
0.8569667,960
0.8586333,951
0.8603,1000
0.8619667,875
0.8636333,741
0.8653,905
0.8669667,714
0.8686333,817
0.8703,760
0.8719667,661
0.8736333,736
0.8753,817
0.8769667,909
0.8786333,1204
0.8803,1572
0.8819667,2259
0.8836333,2552
0.8853,3052
0.8869666,3229
0.8886333,3463
0.8903,4096
0.8919666,3866
0.8936333,3994
0.8953,4206
0.8969667,4032
0.8986334,3962
0.9003,4214
0.9019667,4261
0.9036334,4159
0.9053,4077
0.9069667,3995
0.9086334,4126
0.9103,4218
0.9119667,4280
0.9136333,3841
0.9153,3979
0.9169667,4338
0.9186333,4335
0.9203,4149
0.9219667,4224
0.9236333,4317
0.9253,3879
0.9269667,3599
0.9286333,4307
0.9303,3796
0.9319667,3777
0.9336333,3701
0.9353,3647
0.9369667,3709
0.9386333,3404
0.9403,3409
0.9419667,3443
0.9436333,3278
0.9453,3186
0.9469666,3279
0.9486333,3016
0.9503,2906
0.9519666,2915
0.9536333,2612
0.9553,2401
0.9569666,2292
0.9586333,2299
0.9603,2126
0.9619667,1749
0.9636334,1918
0.9653,1904
0.9669667,1723
0.9686334,1717
0.9703,1732
0.9719667,1402
0.9736333,1450
0.9753,1527
0.9769667,1200
0.9786333,1259
0.9803,1245
0.9819667,1056
0.9836333,1176
0.9853,1162
0.9869667,854
0.9886333,790
0.9903,673
0.9919667,731
0.9936333,765
0.9953,774
0.9969667,787
0.9986333,800
1.0003,810
1.001967,647
1.003633,573
1.0053,636
1.006967,543
1.008633,702
1.0103,696
1.011967,749
1.013633,681
1.0153,639
1.016967,517
1.018633,729
1.0203,803
1.021967,636
1.023633,661
1.0253,667
1.026967,633
1.028633,599
1.0303,673
1.031967,741
1.033633,809
1.0353,745
1.036967,829
1.038633,721
1.0403,653
1.041967,592
1.043633,752
1.0453,728
1.046967,708
1.048633,618
1.0503,594
1.051967,629
1.053633,718
1.0553,730
1.056967,592
1.058633,783
1.0603,792
1.061967,629
1.063633,837
1.0653,786
1.066967,754
1.068633,730
1.0703,759
1.071967,702
1.073633,718
1.0753,823
1.076967,881
1.078633,598
1.0803,722
1.081967,747
1.083633,591
1.0853,621
1.086967,776
1.088633,639
1.0903,680
1.091967,673
1.093633,848
1.0953,821
1.096967,757
1.098633,697
1.1003,597
1.101967,813
1.103633,619
1.1053,690
1.106967,526
1.108633,678
1.1103,750
1.111967,659
1.113633,671
1.1153,671
1.116967,650
1.118633,740
1.1203,730
1.121967,838
1.123633,856
1.1253,680
1.126967,881
1.128633,639
1.1303,846
1.131967,690
1.133633,773
1.1353,762
1.136967,790
1.138633,775
1.1403,687
1.141967,776
1.143633,545
1.1453,536
1.146967,809
1.148633,796
1.1503,678
1.151967,684
1.153633,908
1.1553,824
1.156967,808
1.158633,888
1.1603,861
1.161967,868
1.163633,895
1.1653,950
1.166967,976
1.168633,812
1.1703,919
1.171967,753
1.173633,893
1.1753,943
1.176967,882
1.178633,838
1.1803,860
1.181967,896
1.183633,680
1.1853,850
1.186967,831
1.188633,907
1.1903,807
1.191967,918
1.193633,939
1.1953,1025
1.196967,918
1.198633,812
