"SampleName","A2Rd2_02-88"
"Target Mass 1",
"Column Name","IA-3 (3um, 4.6X100)"
"Channel","QDa 1: SIR Ch1"
0.00195,391
0.003616667,436
0.005283333,612
0.00695,374
0.008616666,579
0.01028333,504
0.01195,606
0.01361667,422
0.01528333,459
0.01695,495
0.01861667,527
0.02028333,549
0.02195,571
0.02361667,393
0.02528333,586
0.02695,471
0.02861667,418
0.03028333,473
0.03195,506
0.03361667,412
0.03528333,518
0.03695,558
0.03861667,632
0.04028333,541
0.04195,450
0.04361667,549
0.04528333,488
0.04695,507
0.04861667,542
0.05028334,508
0.05195,444
0.05361667,472
0.05528333,432
0.05695,465
0.05861667,497
0.06028333,483
0.06195,470
0.06361666,494
0.06528334,518
0.06695,416
0.06861667,480
0.07028333,400
0.07195,490
0.07361667,450
0.07528333,453
0.07695,404
0.07861666,483
0.08028334,491
0.08195,419
0.08361667,419
0.08528333,419
0.08695,406
0.08861667,393
0.09028333,396
0.09195,399
0.09361666,429
0.09528334,500
0.09695,493
0.09861667,486
0.1002833,479
0.10195,473
0.1036167,507
0.1052833,542
0.10695,428
0.1086167,501
0.1102833,558
0.11195,393
0.1136167,513
0.1152833,617
0.11695,553
0.1186167,436
0.1202833,581
0.12195,590
0.1236167,508
0.1252833,560
0.12695,610
0.1286167,562
0.1302833,473
0.13195,504
0.1336167,381
0.1352833,449
0.13695,517
0.1386167,514
0.1402833,512
0.14195,522
0.1436167,470
0.1452833,546
0.14695,493
0.1486167,560
0.1502833,501
0.15195,565
0.1536167,553
0.1552833,620
0.15695,392
0.1586167,494
0.1602833,656
0.16195,536
0.1636167,499
0.1652833,478
0.16695,608
0.1686167,369
0.1702833,457
0.17195,463
0.1736167,506
0.1752833,395
0.17695,424
0.1786167,453
0.1802833,354
0.18195,362
0.1836167,492
0.1852833,622
0.18695,551
0.1886167,574
0.1902833,593
0.19195,612
0.1936167,432
0.1952833,574
0.19695,502
0.1986167,541
0.2002833,564
0.20195,596
0.2036167,443
0.2052833,497
0.20695,477
0.2086167,395
0.2102833,428
0.21195,437
0.2136167,423
0.2152833,468
0.21695,513
0.2186167,542
0.2202833,513
0.22195,402
0.2236167,585
0.2252833,475
0.22695,441
0.2286167,434
0.2302833,427
0.23195,421
0.2336167,420
0.2352833,419
0.23695,466
0.2386167,514
0.2402833,509
0.24195,414
0.2436167,497
0.2452833,472
0.24695,447
0.2486167,594
0.2502833,578
0.25195,566
0.2536167,456
0.2552833,461
0.25695,495
0.2586167,522
0.2602833,548
0.26195,516
0.2636167,483
0.2652833,476
0.26695,469
0.2686167,480
0.2702833,490
0.27195,457
0.2736167,388
0.2752833,408
0.27695,564
0.2786167,525
0.2802833,514
0.28195,502
0.2836167,508
0.2852833,514
0.28695,524
0.2886167,534
0.2902833,574
0.29195,560
0.2936167,587
0.2952833,356
0.29695,454
0.2986333,608
0.3002833,625
0.30195,495
0.3036167,577
0.3052833,640
0.30695,597
0.3086333,555
0.3102833,634
0.31195,631
0.3136167,563
0.3153,651
0.31695,585
0.3186167,411
0.3202833,408
0.32195,410
0.3236167,523
0.3252833,501
0.32695,479
0.3286167,528
0.3302833,576
0.33195,564
0.3336333,566
0.3353,614
0.33695,512
0.3386167,554
0.3402833,460
0.34195,568
0.3436333,442
0.3452833,502
0.34695,563
0.3486167,527
0.3503,549
0.3519667,579
0.3536167,525
0.3553,568
0.3569667,541
0.3586333,392
0.3603,445
0.36195,614
0.3636167,772
0.3652833,1157
0.36695,1278
0.3686333,2022
0.3703,2690
0.3719667,2795
0.3736333,3000
0.3753,3099
0.3769667,3077
0.3786333,3629
0.3803,3886
0.3819667,3976
0.3836167,4036
0.3853,4152
0.38695,4268
0.3886333,3792
0.3903,3099
0.3919667,2322
0.3936333,2146
0.3953,1774
0.39695,1548
0.3986333,1148
0.4002833,1121
0.4019667,1047
0.4036333,927
0.4053,1100
0.4069667,949
0.4086333,1082
0.4103,1019
0.41195,1053
0.4136333,927
0.4152833,995
0.4169667,1013
0.4186333,978
0.4203,906
0.4219667,981
0.4236333,1166
0.4253,1169
0.4269667,1024
0.4286333,1065
0.4303,1024
0.4319667,1005
0.4336333,1182
0.4353,1732
0.4369667,2188
0.4386333,3166
0.4403,5578
0.4419667,9892
0.4436333,16872
0.4453,25804
0.4469667,40960
0.4486333,57616
0.4503,76848
0.4519667,99856
0.4536333,121360
0.4553,136768
0.4569667,154112
0.4586333,171072
0.4603,179456
0.4619667,187008
0.4636333,190144
0.4653,192896
0.4669667,189184
0.4686333,193664
0.4703,191616
0.4719667,193856
0.4736333,197568
0.4753,201280
0.4769667,207616
0.4786333,209536
0.4803,208896
0.4819667,209152
0.4836333,206464
0.4853,193536
0.4869667,180096
0.4886333,165952
0.4903,151936
0.4919667,129488
0.4936333,112208
0.4953,97408
0.4969667,83584
0.4986333,67840
0.5003,56192
0.5019667,47360
0.5036333,37600
0.5053,30252
0.5069667,25272
0.5086333,20624
0.5103,17120
0.5119666,15244
0.5136333,11600
0.5153,10636
0.5169666,8612
0.5186333,7865
0.5203,6934
0.5219667,6011
0.5236334,5378
0.5253,5192
0.5269667,4677
0.5286334,4149
0.5303,3643
0.5319667,3670
0.5336334,3353
0.5353,3109
0.5369667,3027
0.5386333,3243
0.5403,2794
0.5419667,2662
0.5436333,2152
0.5453,2481
0.5469667,2355
0.5486333,2173
0.5503,2112
0.5519667,2284
0.5536333,2347
0.5553,2291
0.5569667,2058
0.5586333,1790
0.5603,2090
0.5619667,1901
0.5636333,1769
0.5653,1639
0.5669667,1394
0.5686333,1661
0.5703,1590
0.5719666,1477
0.5736333,1656
0.5753,1432
0.5769666,1209
0.5786333,1616
0.5803,1427
0.5819666,1425
0.5836333,1533
0.5853,1408
0.5869667,1369
0.5886334,1470
0.5903,1359
0.5919667,1247
0.5936334,1391
0.5953,1397
0.5969667,1108
0.5986333,1194
0.6003,1308
0.6019667,1256
0.6036333,1204
0.6053,1204
0.6069667,1204
0.6086333,1396
0.6103,1254
0.6119667,1113
0.6136333,1376
0.6153,1285
0.6169667,1163
0.6186333,1086
0.6203,1108
0.6219667,1130
0.6236333,1117
0.6253,1104
0.6269667,1119
0.6286333,1060
0.6303,1072
0.6319667,1116
0.6336333,1096
0.6353,1075
0.6369666,905
0.6386333,960
0.6403,870
0.6419666,830
0.6436333,1028
0.6453,1059
0.6469667,1072
0.6486334,1102
0.6503,791
0.6519667,865
0.6536334,876
0.6553,900
0.6569667,920
0.6586334,939
0.6603,796
0.6619667,958
0.6636333,899
0.6653,822
0.6669667,890
0.6686333,866
0.6703,888
0.6719667,813
0.6736333,810
0.6753,807
0.6769667,889
0.6786333,901
0.6803,914
0.6819667,707
0.6836333,744
0.6853,902
0.6869667,899
0.6886333,929
0.6903,933
0.6919667,936
0.6936333,1006
0.6953,644
0.6969666,831
0.6986333,780
0.7003,813
0.7019666,737
0.7036333,774
0.7053,790
0.7069666,805
0.7086333,820
0.7103,834
0.7119667,845
0.7136334,856
0.7153,804
0.7169667,638
0.7186334,722
0.7203,789
0.7219667,856
0.7236333,759
0.7253,771
0.7269667,782
0.7286333,887
0.7303,881
0.7319667,815
0.7336333,762
0.7353,761
0.7369667,1063
0.7386333,1075
0.7403,736
0.7419667,729
0.7436333,996
0.7453,503
0.7469667,790
0.7486333,867
0.7503,792
0.7519667,902
0.7536333,862
0.7553,822
0.7569667,761
0.7586333,1022
0.7603,1120
0.7619666,907
0.7636333,672
0.7653,821
0.7669666,782
0.7686333,743
0.7703,818
0.7719667,893
0.7736334,987
0.7753,939
0.7769667,750
0.7786334,966
0.7803,918
0.7819667,999
0.7836334,753
0.7853,783
0.7869667,965
0.7886333,743
0.7903,888
0.7919667,774
0.7936333,815
0.7953,925
0.7969667,875
0.7986333,882
0.8003,889
0.8019667,880
0.8036333,872
0.8053,772
0.8069667,842
0.8086333,922
0.8103,869
0.8119667,719
0.8136333,1005
0.8153,1017
0.8169667,740
0.8186333,1063
0.8203,797
0.8219666,864
0.8236333,1081
0.8253,968
0.8269666,969
0.8286333,1008
0.8303,938
0.8319666,870
0.8336333,957
0.8353,928
0.8369667,898
0.8386334,805
0.8403,996
0.8419667,721
0.8436334,964
0.8453,857
0.8469667,888
0.8486333,707
0.8503,754
0.8519667,1004
0.8536333,891
0.8553,1047
0.8569667,976
0.8586333,861
0.8603,790
0.8619667,932
0.8636333,798
0.8653,835
0.8669667,829
0.8686333,699
0.8703,868
0.8719667,725
0.8736333,724
0.8753,761
0.8769667,944
0.8786333,904
0.8803,1489
0.8819667,2046
0.8836333,2610
0.8853,2531
0.8869666,3231
0.8886333,3561
0.8903,3546
0.8919666,3547
0.8936333,3839
0.8953,3717
0.8969667,3596
0.8986334,3497
0.9003,3604
0.9019667,3376
0.9036334,3538
0.9053,3396
0.9069667,3624
0.9086334,3598
0.9103,3571
0.9119667,3547
0.9136333,3708
0.9153,3785
0.9169667,3862
0.9186333,3727
0.9203,3782
0.9219667,3319
0.9236333,3594
0.9253,3646
0.9269667,3535
0.9286333,3535
0.9303,3535
0.9319667,3144
0.9336333,3453
0.9353,3636
0.9369667,3318
0.9386333,3513
0.9403,3204
0.9419667,3034
0.9436333,2911
0.9453,2751
0.9469666,2514
0.9486333,2787
0.9503,2685
0.9519666,2566
0.9536333,2188
0.9553,2745
0.9569666,2434
0.9586333,2497
0.9603,2117
0.9619667,2175
0.9636334,1930
0.9653,2052
0.9669667,1832
0.9686334,1921
0.9703,1404
0.9719667,1965
0.9736333,1480
0.9753,1379
0.9769667,1399
0.9786333,1231
0.9803,1085
0.9819667,1105
0.9836333,928
0.9853,1003
0.9869667,862
0.9886333,882
0.9903,886
0.9919667,837
0.9936333,787
0.9953,711
0.9969667,852
0.9986333,658
1.0003,812
1.001967,825
1.003633,614
1.0053,634
1.006967,649
1.008633,557
1.0103,611
1.011967,565
1.013633,564
1.0153,607
1.016967,649
1.018633,715
1.0203,681
1.021967,648
1.023633,705
1.0253,689
1.026967,673
1.028633,639
1.0303,679
1.031967,638
1.033633,641
1.0353,713
1.036967,697
1.038633,653
1.0403,596
1.041967,617
1.043633,624
1.0453,631
1.046967,605
1.048633,602
1.0503,599
1.051967,568
1.053633,633
1.0553,698
1.056967,719
1.058633,762
1.0603,730
1.061967,699
1.063633,679
1.0653,547
1.066967,659
1.068633,528
1.0703,542
1.071967,655
1.073633,609
1.0753,655
1.076967,644
1.078633,558
1.0803,671
1.081967,710
1.083633,694
1.0853,733
1.086967,736
1.088633,540
1.0903,789
1.091967,689
1.093633,783
1.0953,697
1.096967,719
1.098633,699
1.1003,612
1.101967,707
1.103633,828
1.1053,800
1.106967,793
1.108633,524
1.1103,773
1.111967,608
1.113633,696
1.1153,834
1.116967,666
1.118633,873
1.1203,610
1.121967,585
1.123633,833
1.1253,850
1.126967,630
1.128633,685
1.1303,503
1.131967,677
1.133633,555
1.1353,632
1.136967,708
1.138633,472
1.1403,779
1.141967,587
1.143633,758
1.1453,741
1.146967,827
1.148633,770
1.1503,764
1.151967,749
1.153633,686
1.1553,735
1.156967,784
1.158633,744
1.1603,687
1.161967,697
1.163633,566
1.1653,717
1.166967,688
1.168633,658
1.1703,628
1.171967,598
1.173633,648
1.1753,697
1.176967,808
1.178633,841
1.1803,784
1.181967,723
1.183633,799
1.1853,794
1.186967,790
1.188633,735
1.1903,543
1.191967,775
1.193633,579
1.1953,622
1.196967,665
1.198633,837
