"SampleName","A2Rd2_02-9"
"Target Mass 1",
"Column Name","IA-3 (3um, 4.6X100)"
"Channel","QDa 1: SIR Ch1"
0.00195,382
0.003616667,499
0.005283333,495
0.00695,565
0.008616666,580
0.01028333,551
0.01195,544
0.01361667,538
0.01528333,525
0.01695,558
0.01861667,540
0.02028333,522
0.02195,518
0.02361667,514
0.02528333,502
0.02695,499
0.02861667,496
0.03028333,475
0.03195,503
0.03361667,532
0.03528333,562
0.03695,556
0.03861667,551
0.04028333,546
0.04195,541
0.04361667,458
0.04528333,612
0.04695,528
0.04861667,443
0.05028334,536
0.05195,535
0.05361667,521
0.05528333,496
0.05695,580
0.05861667,427
0.06028333,535
0.06195,524
0.06361666,524
0.06528334,530
0.06695,529
0.06861667,527
0.07028333,521
0.07195,595
0.07361667,589
0.07528333,581
0.07695,600
0.07861666,380
0.08028334,416
0.08195,509
0.08361667,502
0.08528333,495
0.08695,504
0.08861667,458
0.09028333,631
0.09195,605
0.09361666,571
0.09528334,498
0.09695,694
0.09861667,642
0.1002833,541
0.10195,497
0.1036167,586
0.1052833,492
0.10695,655
0.1086167,696
0.1102833,558
0.11195,492
0.1136167,394
0.1152833,462
0.11695,550
0.1186167,352
0.1202833,497
0.12195,503
0.1236167,539
0.1252833,548
0.12695,489
0.1286167,471
0.1302833,477
0.13195,470
0.1336167,463
0.1352833,445
0.13695,428
0.1386167,425
0.1402833,468
0.14195,584
0.1436167,555
0.1452833,526
0.14695,551
0.1486167,577
0.1502833,555
0.15195,565
0.1536167,527
0.1552833,502
0.15695,528
0.1586167,488
0.1602833,503
0.16195,569
0.1636167,547
0.1652833,483
0.16695,366
0.1686167,443
0.1702833,417
0.17195,391
0.1736167,391
0.1752833,391
0.17695,402
0.1786167,413
0.1802833,626
0.18195,678
0.1836167,473
0.1852833,565
0.18695,378
0.1886167,600
0.1902833,526
0.19195,545
0.1936167,572
0.1952833,521
0.19695,394
0.1986167,518
0.2002833,570
0.20195,485
0.2036167,607
0.2052833,446
0.20695,469
0.2086167,444
0.2102833,481
0.21195,517
0.2136167,533
0.2152833,446
0.21695,358
0.2186167,390
0.2202833,478
0.22195,456
0.2236167,435
0.2252833,465
0.22695,441
0.2286167,279
0.2302833,589
0.23195,665
0.2336167,458
0.2352833,565
0.23695,498
0.2386167,377
0.2402833,550
0.24195,452
0.2436167,516
0.2453,603
0.24695,565
0.2486167,596
0.2502833,497
0.25195,464
0.2536167,371
0.2552833,426
0.25695,422
0.2586167,453
0.2602833,484
0.26195,478
0.2636333,471
0.2652833,430
0.26695,435
0.2686167,473
0.2702833,493
0.27195,491
0.2736167,488
0.2752833,479
0.27695,470
0.2786167,539
0.2803,380
0.28195,541
0.2836167,570
0.2852833,509
0.28695,510
0.2886167,486
0.2902833,391
0.29195,412
0.2936167,434
0.2952833,461
0.29695,488
0.2986333,559
0.3002833,549
0.30195,540
0.3036167,613
0.3052833,605
0.30695,596
0.3086167,486
0.3102833,539
0.31195,594
0.3136167,561
0.3153,565
0.31695,528
0.3186167,491
0.3202833,499
0.32195,465
0.3236167,432
0.3252833,449
0.32695,467
0.3286333,566
0.3302833,533
0.3319667,509
0.3336333,485
0.3352833,469
0.3369667,454
0.3386167,490
0.3402833,526
0.3419667,550
0.3436167,496
0.3453,544
0.34695,549
0.3486333,554
0.3503,476
0.35195,550
0.3536333,525
0.3552833,490
0.3569667,620
0.3586167,596
0.3602833,690
0.36195,894
0.3636167,949
0.3653,1667
0.3669667,2339
0.3686333,3466
0.3703,5167
0.3719667,4960
0.3736333,5343
0.3753,6429
0.3769667,6539
0.3786333,6952
0.3803,6625
0.3819667,6298
0.3836333,5504
0.3853,4030
0.3869667,4220
0.3886333,3062
0.3903,2728
0.3919667,2287
0.3936333,1971
0.3953,1693
0.3969667,1384
0.3986333,1220
0.4003,1363
0.4019667,1248
0.4036333,1188
0.4053,1375
0.4069667,1393
0.4086333,1298
0.4103,1454
0.4119667,1482
0.4136333,1476
0.4153,1396
0.4169667,1316
0.4186333,1551
0.4203,1473
0.4219667,1652
0.4236333,1852
0.4253,1848
0.4269667,1666
0.4286333,1681
0.4303,1682
0.4319667,1825
0.4336333,2526
0.4353,3389
0.4369667,5343
0.4386333,7433
0.4403,11740
0.4419667,17440
0.4436333,26816
0.4453,37984
0.4469667,53232
0.4486333,68384
0.4503,89264
0.4519667,106224
0.4536333,127552
0.4553,147136
0.4569667,164224
0.4586333,182208
0.4603,200320
0.4619667,211776
0.4636333,223360
0.4653,236160
0.4669667,251264
0.4686333,269760
0.4703,284288
0.4719667,300672
0.4736333,317376
0.4753,324480
0.4769667,328256
0.4786333,331840
0.4803,320064
0.4819667,302208
0.4836333,278784
0.4853,245120
0.4869667,218432
0.4886333,188352
0.4903,162048
0.4919667,137472
0.4936333,112496
0.4953,92368
0.4969667,73056
0.4986333,58432
0.5003,46832
0.5019667,36720
0.5036333,29232
0.5053,22476
0.5069667,19280
0.5086333,14716
0.5103,13420
0.5119666,10600
0.5136333,8952
0.5153,8408
0.5169666,7592
0.5186333,5847
0.5203,6287
0.5219667,5126
0.5236334,4704
0.5253,4510
0.5269667,4510
0.5286334,4356
0.5303,3812
0.5319667,3930
0.5336334,3490
0.5353,3422
0.5369667,3643
0.5386333,3317
0.5403,3484
0.5419667,3182
0.5436333,2912
0.5453,2859
0.5469667,2861
0.5486333,2695
0.5503,2344
0.5519667,2378
0.5536333,2398
0.5553,2229
0.5569667,2097
0.5586333,2099
0.5603,1966
0.5619667,2062
0.5636333,1999
0.5653,1943
0.5669667,1819
0.5686333,1669
0.5703,1696
0.5719666,1694
0.5736333,1739
0.5753,1740
0.5769666,1742
0.5786333,1689
0.5803,1572
0.5819666,1480
0.5836333,1490
0.5853,1552
0.5869667,1613
0.5886334,1634
0.5903,1630
0.5919667,1627
0.5936334,1401
0.5953,1605
0.5969667,1566
0.5986333,1528
0.6003,1542
0.6019667,1534
0.6036333,1333
0.6053,1706
0.6069667,1282
0.6086333,1624
0.6103,1738
0.6119667,1488
0.6136333,1471
0.6153,1332
0.6169667,1394
0.6186333,1383
0.6203,1366
0.6219667,1350
0.6236333,1354
0.6253,1369
0.6269667,1286
0.6286333,1237
0.6303,1188
0.6319667,1248
0.6336333,1024
0.6353,1271
0.6369666,1011
0.6386333,1206
0.6403,1064
0.6419666,1054
0.6436333,1011
0.6453,1078
0.6469667,988
0.6486334,899
0.6503,1064
0.6519667,964
0.6536334,941
0.6553,958
0.6569667,974
0.6586334,899
0.6603,901
0.6619667,904
0.6636333,803
0.6653,1014
0.6669667,976
0.6686333,931
0.6703,926
0.6719667,921
0.6736333,908
0.6753,937
0.6769667,745
0.6786333,997
0.6803,842
0.6819667,1076
0.6836333,884
0.6853,1043
0.6869667,769
0.6886333,844
0.6903,795
0.6919667,989
0.6936333,1043
0.6953,819
0.6969666,755
0.6986333,883
0.7003,845
0.7019666,1014
0.7036333,1063
0.7053,886
0.7069666,899
0.7086333,657
0.7103,890
0.7119667,962
0.7136334,855
0.7153,836
0.7169667,671
0.7186334,808
0.7203,731
0.7219667,874
0.7236333,835
0.7253,804
0.7269667,813
0.7286333,821
0.7303,836
0.7319667,799
0.7336333,762
0.7353,831
0.7369667,829
0.7386333,828
0.7403,695
0.7419667,721
0.7436333,720
0.7453,719
0.7469667,702
0.7486333,742
0.7503,783
0.7519667,761
0.7536333,786
0.7553,810
0.7569667,851
0.7586333,892
0.7603,903
0.7619666,737
0.7636333,684
0.7653,797
0.7669666,847
0.7686333,791
0.7703,706
0.7719667,763
0.7736334,768
0.7753,1002
0.7769667,951
0.7786334,672
0.7803,847
0.7819667,719
0.7836334,874
0.7853,836
0.7869667,890
0.7886333,714
0.7903,824
0.7919667,667
0.7936333,695
0.7953,1017
0.7969667,1020
0.7986333,864
0.8003,639
0.8019667,835
0.8036333,815
0.8053,745
0.8069667,759
0.8086333,773
0.8103,813
0.8119667,688
0.8136333,719
0.8153,750
0.8169667,797
0.8186333,847
0.8203,868
0.8219666,889
0.8236333,749
0.8253,843
0.8269666,880
0.8286333,690
0.8303,827
0.8319666,712
0.8336333,953
0.8353,942
0.8369667,721
0.8386334,882
0.8403,765
0.8419667,779
0.8436334,793
0.8453,687
0.8469667,827
0.8486333,789
0.8503,680
0.8519667,863
0.8536333,928
0.8553,793
0.8569667,778
0.8586333,732
0.8603,811
0.8619667,782
0.8636333,754
0.8653,635
0.8669667,632
0.8686333,595
0.8703,717
0.8719667,830
0.8736333,765
0.8753,1005
0.8769667,1066
0.8786333,1277
0.8803,1487
0.8819667,2353
0.8836333,2947
0.8853,2924
0.8869666,3018
0.8886333,3215
0.8903,3466
0.8919666,3951
0.8936333,3871
0.8953,3523
0.8969667,3524
0.8986334,3868
0.9003,4240
0.9019667,4357
0.9036334,4168
0.9053,4056
0.9069667,3729
0.9086334,4108
0.9103,3735
0.9119667,4029
0.9136333,3729
0.9153,3752
0.9169667,3776
0.9186333,3759
0.9203,3743
0.9219667,3789
0.9236333,3793
0.9253,3798
0.9269667,3760
0.9286333,3520
0.9303,3851
0.9319667,3599
0.9336333,3726
0.9353,3456
0.9369667,3511
0.9386333,3517
0.9403,2829
0.9419667,2828
0.9436333,3108
0.9453,2721
0.9469666,3092
0.9486333,2361
0.9503,2866
0.9519666,2438
0.9536333,2569
0.9553,2246
0.9569666,2247
0.9586333,2273
0.9603,1884
0.9619667,1981
0.9636334,1848
0.9653,1837
0.9669667,1610
0.9686334,1463
0.9703,1369
0.9719667,1431
0.9736333,1283
0.9753,1237
0.9769667,1114
0.9786333,1076
0.9803,839
0.9819667,868
0.9836333,818
0.9853,842
0.9869667,623
0.9886333,639
0.9903,915
0.9919667,783
0.9936333,689
0.9953,596
0.9969667,742
0.9986333,700
1.0003,682
1.001967,553
1.003633,714
1.0053,612
1.006967,614
1.008633,617
1.0103,585
1.011967,568
1.013633,675
1.0153,664
1.016967,652
1.018633,626
1.0203,577
1.021967,609
1.023633,551
1.0253,492
1.026967,492
1.028633,628
1.0303,618
1.031967,613
1.033633,665
1.0353,641
1.036967,616
1.038633,651
1.0403,686
1.041967,528
1.043633,597
1.0453,504
1.046967,600
1.048633,681
1.0503,790
1.051967,709
1.053633,600
1.0553,705
1.056967,778
1.058633,622
1.0603,703
1.061967,694
1.063633,676
1.0653,649
1.066967,672
1.068633,695
1.0703,719
1.071967,611
1.073633,624
1.0753,639
1.076967,655
1.078633,650
1.0803,645
1.081967,681
1.083633,732
1.0853,749
1.086967,769
1.088633,684
1.0903,513
1.091967,707
1.093633,593
1.0953,729
1.096967,854
1.098633,878
1.1003,582
1.101967,768
1.103633,720
1.1053,672
1.106967,605
1.108633,671
1.1103,593
1.111967,574
1.113633,721
1.1153,690
1.116967,591
1.118633,515
1.1203,668
1.121967,650
1.123633,632
1.1253,602
1.126967,664
1.128633,773
1.1303,783
1.131967,537
1.133633,645
1.1353,667
1.136967,735
1.138633,648
1.1403,547
1.141967,738
1.143633,754
1.1453,497
1.146967,700
1.148633,635
1.1503,714
1.151967,711
1.153633,762
1.1553,635
1.156967,651
1.158633,779
1.1603,739
1.161967,621
1.163633,797
1.1653,750
1.166967,621
1.168633,816
1.1703,706
1.171967,586
1.173633,670
1.1753,711
1.176967,685
1.178633,658
1.1803,639
1.181967,656
1.183633,672
1.1853,692
1.186967,712
1.188633,621
1.1903,863
1.191967,834
1.193633,835
1.1953,570
1.196967,727
1.198633,495
