"SampleName","A2Rd2_02-69"
"Target Mass 1",
"Column Name","IA-3 (3um, 4.6X100)"
"Channel","QDa 1: SIR Ch1"
0.00195,485
0.003616667,525
0.005283333,685
0.00695,635
0.008616666,480
0.01028333,521
0.01195,578
0.01361667,702
0.01528333,643
0.01695,492
0.01861667,720
0.02028333,621
0.02195,361
0.02361667,608
0.02528333,649
0.02695,464
0.02861667,642
0.03028333,634
0.03195,502
0.03361667,572
0.03528333,539
0.03695,592
0.03861667,634
0.04028333,610
0.04195,600
0.04361667,629
0.04528333,585
0.04695,590
0.04861667,527
0.05028334,554
0.05195,581
0.05361667,581
0.05528333,582
0.05695,539
0.05861667,625
0.06028333,483
0.06195,633
0.06361666,589
0.06528334,537
0.06695,449
0.06861667,412
0.07028333,433
0.07195,457
0.07361667,481
0.07528333,517
0.07695,553
0.07861666,600
0.08028334,645
0.08195,451
0.08361667,437
0.08528333,629
0.08695,528
0.08861667,545
0.09028333,605
0.09195,474
0.09361666,538
0.09528334,501
0.09695,549
0.09861667,593
0.1002833,471
0.10195,449
0.1036167,456
0.1052833,628
0.10695,606
0.1086167,446
0.1102833,530
0.11195,551
0.1136167,346
0.1152833,503
0.11695,569
0.1186167,523
0.1202833,500
0.12195,655
0.1236167,391
0.1252833,447
0.12695,478
0.1286167,432
0.1302833,507
0.13195,581
0.1336167,557
0.1352833,430
0.13695,600
0.1386167,478
0.1402833,614
0.14195,623
0.1436167,509
0.1452833,535
0.14695,503
0.1486167,440
0.1502833,605
0.15195,556
0.1536167,508
0.1552833,465
0.15695,532
0.1586167,609
0.1602833,572
0.16195,497
0.1636167,527
0.1652833,455
0.16695,531
0.1686167,450
0.1702833,495
0.17195,623
0.1736167,659
0.1752833,628
0.17695,483
0.1786167,546
0.1802833,625
0.18195,557
0.1836167,528
0.1852833,483
0.18695,539
0.1886167,442
0.1902833,611
0.19195,656
0.1936167,541
0.1952833,494
0.19695,565
0.1986167,533
0.2002833,501
0.20195,553
0.2036167,564
0.2052833,402
0.20695,572
0.2086167,556
0.2102833,517
0.21195,432
0.2136167,478
0.2152833,412
0.21695,414
0.2186167,529
0.2202833,538
0.22195,547
0.2236167,572
0.2252833,401
0.22695,524
0.2286167,497
0.2302833,569
0.23195,543
0.2336167,471
0.2352833,555
0.23695,321
0.2386167,599
0.2402833,447
0.24195,423
0.2436167,482
0.2452833,488
0.24695,526
0.2486167,470
0.2502833,461
0.25195,450
0.2536167,440
0.2552833,559
0.25695,610
0.2586167,518
0.2602833,581
0.26195,688
0.2636333,685
0.2652833,611
0.26695,381
0.2686167,641
0.2702833,550
0.27195,503
0.2736167,558
0.2752833,500
0.27695,537
0.2786167,573
0.2803,545
0.28195,516
0.2836167,440
0.2852833,530
0.28695,517
0.2886167,504
0.2902833,364
0.29195,384
0.2936167,405
0.2952833,408
0.29695,411
0.2986333,607
0.3002833,674
0.30195,527
0.3036333,434
0.3052833,629
0.30695,557
0.3086167,603
0.3102833,449
0.31195,651
0.3136167,553
0.3153,482
0.31695,555
0.3186167,549
0.3202833,506
0.32195,462
0.3236167,553
0.3252833,498
0.32695,443
0.3286167,539
0.3302833,431
0.33195,499
0.3336333,568
0.3352833,597
0.33695,610
0.3386167,465
0.3402833,479
0.34195,428
0.3436167,614
0.3452833,653
0.34695,624
0.3486167,620
0.3503,542
0.35195,424
0.3536167,615
0.3552833,505
0.35695,579
0.3586333,605
0.3603,627
0.36195,650
0.3636167,892
0.3652833,1007
0.36695,1598
0.3686333,2141
0.3702833,3032
0.3719667,3126
0.3736167,3564
0.3753,3122
0.3769667,3380
0.3786167,3659
0.3802833,4522
0.38195,4853
0.3836167,4853
0.3853,4638
0.3869667,4118
0.3886333,3848
0.3903,3364
0.3919667,2447
0.3936333,1823
0.3952833,1834
0.3969667,1295
0.3986167,1390
0.4002833,1193
0.40195,1281
0.4036333,1067
0.4053,1193
0.4069667,988
0.4086333,1041
0.4103,1102
0.4119667,921
0.4136333,1086
0.4153,1126
0.4169667,909
0.4186333,1122
0.4203,1039
0.4219667,885
0.4236333,1077
0.4253,1147
0.4269667,1090
0.4286333,1116
0.4303,1024
0.4319667,1270
0.4336333,1464
0.4353,1843
0.4369667,2814
0.4386333,4396
0.4403,7109
0.4419667,11228
0.4436333,18224
0.4453,29604
0.4469667,42272
0.4486333,58400
0.4503,76528
0.4519667,92768
0.4536333,112144
0.4553,124384
0.4569667,137664
0.4586333,152384
0.4603,159680
0.4619667,164288
0.4636333,167488
0.4653,167424
0.4669667,166848
0.4686333,168448
0.4703,170304
0.4719667,176512
0.4736333,184128
0.4753,189056
0.4769667,194624
0.4786333,195456
0.4803,195392
0.4819667,188800
0.4836333,180672
0.4853,165120
0.4869667,152448
0.4886333,133888
0.4903,118368
0.4919667,100496
0.4936333,83472
0.4953,69424
0.4969667,58368
0.4986333,45568
0.5003,37856
0.5019667,31248
0.5036333,23240
0.5053,20736
0.5069667,16892
0.5086333,12880
0.5103,11292
0.5119666,9296
0.5136333,7995
0.5153,6859
0.5169666,6715
0.5186333,5574
0.5203,4832
0.5219667,4471
0.5236334,3943
0.5253,4118
0.5269667,3582
0.5286334,3531
0.5303,3209
0.5319667,2783
0.5336334,3019
0.5353,2850
0.5369667,2898
0.5386333,2586
0.5403,2524
0.5419667,2218
0.5436333,2447
0.5453,2323
0.5469667,1935
0.5486333,2137
0.5503,2085
0.5519667,2053
0.5536333,1945
0.5553,2026
0.5569667,2073
0.5586333,1632
0.5603,1759
0.5619667,1618
0.5636333,1736
0.5653,1467
0.5669667,1527
0.5686333,1343
0.5703,1310
0.5719666,1329
0.5736333,1390
0.5753,1451
0.5769666,1071
0.5786333,1676
0.5803,1442
0.5819666,1198
0.5836333,1277
0.5853,1453
0.5869667,1357
0.5886334,1470
0.5903,1416
0.5919667,1423
0.5936334,1373
0.5953,1382
0.5969667,1386
0.5986333,1389
0.6003,1582
0.6019667,1092
0.6036333,1273
0.6053,1182
0.6069667,1257
0.6086333,1272
0.6103,1287
0.6119667,1114
0.6136333,1113
0.6153,1151
0.6169667,1188
0.6186333,1181
0.6203,1318
0.6219667,1246
0.6236333,1173
0.6253,1104
0.6269667,1180
0.6286333,1136
0.6303,1013
0.6319667,1104
0.6336333,980
0.6353,1067
0.6369666,1155
0.6386333,873
0.6403,936
0.6419666,916
0.6436333,879
0.6453,986
0.6469667,989
0.6486334,894
0.6503,798
0.6519667,1067
0.6536334,1003
0.6553,880
0.6569667,837
0.6586334,887
0.6603,912
0.6619667,932
0.6636333,797
0.6653,915
0.6669667,894
0.6686333,931
0.6703,847
0.6719667,728
0.6736333,955
0.6753,814
0.6769667,973
0.6786333,1066
0.6803,944
0.6819667,816
0.6836333,900
0.6853,791
0.6869667,838
0.6886333,886
0.6903,864
0.6919667,842
0.6936333,869
0.6953,883
0.6969666,898
0.6986333,684
0.7003,886
0.7019666,743
0.7036333,833
0.7053,821
0.7069666,810
0.7086333,760
0.7103,711
0.7119667,833
0.7136334,752
0.7153,733
0.7169667,631
0.7186334,714
0.7203,798
0.7219667,796
0.7236333,794
0.7253,799
0.7269667,803
0.7286333,874
0.7303,875
0.7319667,875
0.7336333,802
0.7353,912
0.7369667,891
0.7386333,870
0.7403,728
0.7419667,829
0.7436333,840
0.7453,1007
0.7469667,1019
0.7486333,979
0.7503,927
0.7519667,890
0.7536333,724
0.7553,927
0.7569667,855
0.7586333,718
0.7603,827
0.7619666,891
0.7636333,948
0.7653,755
0.7669666,786
0.7686333,1051
0.7703,918
0.7719667,1081
0.7736334,695
0.7753,880
0.7769667,916
0.7786334,772
0.7803,880
0.7819667,911
0.7836334,918
0.7853,935
0.7869667,814
0.7886333,803
0.7903,914
0.7919667,851
0.7936333,865
0.7953,878
0.7969667,906
0.7986333,736
0.8003,1003
0.8019667,1028
0.8036333,967
0.8053,940
0.8069667,941
0.8086333,963
0.8103,985
0.8119667,848
0.8136333,893
0.8153,808
0.8169667,1011
0.8186333,1022
0.8203,921
0.8219666,901
0.8236333,845
0.8253,1047
0.8269666,993
0.8286333,1019
0.8303,1010
0.8319666,910
0.8336333,991
0.8353,1026
0.8369667,794
0.8386334,997
0.8403,899
0.8419667,924
0.8436334,930
0.8453,1122
0.8469667,1201
0.8486333,1048
0.8503,1004
0.8519667,1086
0.8536333,900
0.8553,730
0.8569667,1186
0.8586333,947
0.8603,1016
0.8619667,986
0.8636333,875
0.8653,726
0.8669667,831
0.8686333,810
0.8703,771
0.8719667,731
0.8736333,802
0.8753,807
0.8769667,1010
0.8786333,1405
0.8803,1695
0.8819667,2112
0.8836333,2577
0.8853,3141
0.8869666,3592
0.8886333,3302
0.8903,3492
0.8919666,3722
0.8936333,3694
0.8953,3504
0.8969667,3697
0.8986334,3746
0.9003,3467
0.9019667,3882
0.9036334,3640
0.9053,3769
0.9069667,3690
0.9086334,3576
0.9103,3756
0.9119667,3652
0.9136333,3547
0.9153,3616
0.9169667,3548
0.9186333,3632
0.9203,3708
0.9219667,3773
0.9236333,3863
0.9253,3801
0.9269667,3697
0.9286333,3418
0.9303,3521
0.9319667,3245
0.9336333,3246
0.9353,3058
0.9369667,3087
0.9386333,3140
0.9403,3108
0.9419667,3077
0.9436333,2967
0.9453,2839
0.9469666,2821
0.9486333,2688
0.9503,2968
0.9519666,2598
0.9536333,2542
0.9553,2305
0.9569666,2186
0.9586333,2444
0.9603,2130
0.9619667,1802
0.9636334,1824
0.9653,1719
0.9669667,1873
0.9686334,1453
0.9703,1649
0.9719667,1921
0.9736333,1405
0.9753,1453
0.9769667,1300
0.9786333,1014
0.9803,1198
0.9819667,1270
0.9836333,936
0.9853,1103
0.9869667,872
0.9886333,860
0.9903,1007
0.9919667,803
0.9936333,792
0.9953,787
0.9969667,820
0.9986333,852
1.0003,698
1.001967,832
1.003633,668
1.0053,675
1.006967,737
1.008633,777
1.0103,813
1.011967,734
1.013633,594
1.0153,663
1.016967,780
1.018633,574
1.0203,553
1.021967,576
1.023633,594
1.0253,612
1.026967,615
1.028633,618
1.0303,665
1.031967,671
1.033633,677
1.0353,688
1.036967,699
1.038633,641
1.0403,725
1.041967,757
1.043633,638
1.0453,705
1.046967,697
1.048633,746
1.0503,569
1.051967,656
1.053633,636
1.0553,719
1.056967,681
1.058633,556
1.0603,596
1.061967,639
1.063633,582
1.0653,616
1.066967,650
1.068633,683
1.0703,720
1.071967,585
1.073633,677
1.0753,640
1.076967,602
1.078633,622
1.0803,641
1.081967,587
1.083633,586
1.0853,585
1.086967,533
1.088633,812
1.0903,834
1.091967,727
1.093633,561
1.0953,811
1.096967,756
1.098633,631
1.1003,705
1.101967,687
1.103633,721
1.1053,684
1.106967,705
1.108633,727
1.1103,690
1.111967,754
1.113633,755
1.1153,755
1.116967,754
1.118633,673
1.1203,798
1.121967,722
1.123633,751
1.1253,632
1.126967,637
1.128633,642
1.1303,660
1.131967,678
1.133633,671
1.1353,664
1.136967,635
1.138633,692
1.1403,750
1.141967,702
1.143633,654
1.1453,748
1.146967,778
1.148633,598
1.1503,867
1.151967,636
1.153633,782
1.1553,585
1.156967,706
1.158633,775
1.1603,844
1.161967,805
1.163633,765
1.1653,859
1.166967,751
1.168633,648
1.1703,878
1.171967,935
1.173633,945
1.1753,967
1.176967,791
1.178633,869
1.1803,695
1.181967,845
1.183633,885
1.1853,884
1.186967,722
1.188633,984
1.1903,826
1.191967,962
1.193633,857
1.1953,707
1.196967,821
1.198633,874
