"SampleName","A2Rd2_02-33"
"Target Mass 1",
"Column Name","IA-3 (3um, 4.6X100)"
"Channel","QDa 1: SIR Ch2"
0.00195,461
0.003616667,405
0.005283333,572
0.00695,719
0.008616666,737
0.01028333,755
0.01195,798
0.01361667,812
0.01528333,826
0.01695,928
0.01861667,965
0.02028333,954
0.02195,926
0.02361667,1059
0.02528333,803
0.02695,865
0.02861667,842
0.03028333,1005
0.03195,929
0.03361667,854
0.03528333,933
0.03695,953
0.03861667,897
0.04028333,989
0.04195,794
0.04361667,1035
0.04528333,947
0.04695,979
0.04861667,1031
0.05028334,1087
0.05195,707
0.05361667,768
0.05528333,963
0.05695,996
0.05861667,976
0.06028333,927
0.06195,988
0.06361666,929
0.06528334,798
0.06695,845
0.06861667,1005
0.07028333,1108
0.07195,1114
0.07361667,758
0.07528333,992
0.07695,932
0.07861666,862
0.08028334,868
0.08195,844
0.08361667,973
0.08528333,1041
0.08695,984
0.08861667,927
0.09028333,925
0.09195,937
0.09361666,937
0.09528334,937
0.09695,944
0.09861667,798
0.1002833,842
0.10195,885
0.1036167,907
0.1052833,855
0.10695,888
0.1086167,778
0.1102833,709
0.11195,763
0.1136167,818
0.1152833,891
0.11695,832
0.1186167,773
0.1202833,940
0.12195,901
0.1236167,913
0.1252833,805
0.12695,913
0.1286167,910
0.1302833,840
0.13195,850
0.1336167,930
0.1352833,942
0.13695,821
0.1386167,946
0.1402833,1015
0.14195,966
0.1436167,764
0.1452833,814
0.14695,804
0.1486167,832
0.1502833,875
0.15195,845
0.1536167,815
0.1552833,881
0.15695,913
0.1586167,946
0.1602833,901
0.16195,893
0.1636167,954
0.1652833,885
0.16695,925
0.1686167,896
0.1702833,720
0.17195,765
0.1736167,811
0.1752833,808
0.17695,804
0.1786167,817
0.1802833,766
0.18195,721
0.1836167,843
0.1852833,758
0.18695,825
0.1886167,1015
0.1902833,961
0.19195,972
0.1936167,984
0.1952833,937
0.19695,860
0.1986167,773
0.2002833,900
0.20195,916
0.2036167,870
0.2052833,824
0.20695,922
0.2086167,953
0.2102833,1046
0.21195,782
0.2136167,946
0.2152833,1029
0.21695,1129
0.2186167,1051
0.2202833,1025
0.22195,1027
0.2236167,1030
0.2252833,916
0.22695,835
0.2286167,1042
0.2302833,934
0.23195,955
0.2336167,1240
0.2352833,1164
0.23695,1194
0.2386167,1183
0.2402833,1082
0.24195,955
0.2436167,1120
0.2452833,1195
0.24695,1270
0.2486167,1225
0.2502833,1229
0.25195,1233
0.2536167,1239
0.2552833,1212
0.25695,1020
0.2586167,1265
0.2602833,1043
0.26195,1102
0.2636333,1001
0.2652833,1005
0.26695,1086
0.2686167,981
0.2702833,1097
0.27195,1103
0.2736167,1034
0.2752833,961
0.27695,984
0.2786167,988
0.2803,800
0.28195,944
0.2836167,926
0.2852833,1038
0.28695,920
0.2886167,749
0.2902833,1114
0.29195,1080
0.2936167,1012
0.2952833,995
0.29695,955
0.2986333,915
0.3002833,1098
0.3019667,1085
0.3036167,996
0.3052833,1092
0.30695,1091
0.3086167,1008
0.3102833,1185
0.31195,1126
0.3136167,1137
0.3153,1149
0.31695,1361
0.3186167,1304
0.3202833,1420
0.3219667,1445
0.3236167,1492
0.3252833,1288
0.32695,1199
0.3286167,1301
0.3303,1263
0.33195,1139
0.3336333,980
0.3353,1152
0.33695,1276
0.3386333,1238
0.3402833,1199
0.34195,1159
0.3436167,1360
0.3452833,1376
0.3469667,1265
0.3486167,1399
0.3503,1095
0.3519667,1106
0.3536167,1364
0.3553,1282
0.35695,1286
0.3586167,1426
0.3602833,1435
0.3619667,1335
0.3636333,1580
0.3653,2415
0.36695,3390
0.3686333,3771
0.3703,4181
0.3719667,3840
0.3736333,3900
0.3753,3266
0.37695,3564
0.3786333,3542
0.3803,3621
0.3819667,3051
0.3836167,2670
0.3853,2423
0.38695,2003
0.3886333,1584
0.3902833,1340
0.3919667,882
0.3936167,796
0.3953,663
0.3969667,555
0.3986333,494
0.4002833,444
0.4019667,605
0.4036333,538
0.4053,470
0.40695,553
0.4086333,536
0.4102833,518
0.4119667,507
0.4136333,518
0.4153,731
0.4169667,616
0.4186333,502
0.4203,583
0.4219667,663
0.4236333,803
0.4253,736
0.4269667,747
0.4286333,766
0.4303,785
0.4319667,828
0.4336333,813
0.4353,797
0.4369667,858
0.4386333,920
0.4403,1092
0.4419667,1125
0.4436333,1117
0.4453,857
0.4469667,1161
0.4486333,1129
0.4503,1254
0.4519667,1288
0.4536333,1158
0.4553,1304
0.4569667,1411
0.4586333,1349
0.4603,1427
0.4619667,1474
0.4636333,1340
0.4653,1402
0.4669667,1464
0.4686333,1405
0.4703,1496
0.4719667,1487
0.4736333,1567
0.4753,1562
0.4769667,1557
0.4786333,1410
0.4803,1392
0.4819667,1523
0.4836333,1426
0.4853,1506
0.4869667,1378
0.4886333,1101
0.4903,1167
0.4919667,1303
0.4936333,1206
0.4953,1076
0.4969667,1225
0.4986333,1373
0.5003,1293
0.5019667,999
0.5036333,1057
0.5053,1071
0.5069667,1085
0.5086333,1099
0.5103,1007
0.5119666,1009
0.5136333,922
0.5153,898
0.5169666,868
0.5186333,899
0.5203,938
0.5219667,977
0.5236334,984
0.5253,826
0.5269667,939
0.5286334,929
0.5303,919
0.5319667,824
0.5336334,926
0.5353,922
0.5369667,1125
0.5386333,1066
0.5403,1032
0.5419667,842
0.5436333,1026
0.5453,1009
0.5469667,944
0.5486333,1017
0.5503,885
0.5519667,859
0.5536333,880
0.5553,900
0.5569667,902
0.5586333,921
0.5603,940
0.5619667,830
0.5636333,956
0.5653,1027
0.5669667,874
0.5686333,1014
0.5703,959
0.5719666,1071
0.5736333,734
0.5753,1099
0.5769666,1093
0.5786333,791
0.5803,847
0.5819666,919
0.5836333,1072
0.5853,1017
0.5869667,897
0.5886334,1109
0.5903,909
0.5919667,1183
0.5936334,869
0.5953,888
0.5969667,996
0.5986333,1003
0.6003,909
0.6019667,1003
0.6036333,1045
0.6053,895
0.6069667,1058
0.6086333,1006
0.6103,954
0.6119667,739
0.6136333,1095
0.6153,996
0.6169667,904
0.6186333,914
0.6203,891
0.6219667,893
0.6236333,912
0.6253,932
0.6269667,928
0.6286333,923
0.6303,907
0.6319667,892
0.6336333,953
0.6353,917
0.6369666,882
0.6386333,813
0.6403,938
0.6419666,999
0.6436333,734
0.6453,775
0.6469667,1167
0.6486334,1022
0.6503,933
0.6519667,847
0.6536334,915
0.6553,796
0.6569667,820
0.6586334,882
0.6603,779
0.6619667,731
0.6636333,934
0.6653,682
0.6669667,923
0.6686333,829
0.6703,735
0.6719667,988
0.6736333,770
0.6753,745
0.6769667,876
0.6786333,841
0.6803,808
0.6819667,917
0.6836333,757
0.6853,650
0.6869667,991
0.6886333,822
0.6903,924
0.6919667,828
0.6936333,876
0.6953,869
0.6969666,862
0.6986333,805
0.7003,867
0.7019666,852
0.7036333,836
0.7053,799
0.7069666,837
0.7086333,874
0.7103,986
0.7119667,1029
0.7136334,772
0.7153,979
0.7169667,916
0.7186334,743
0.7203,1008
0.7219667,951
0.7236333,979
0.7253,963
0.7269667,814
0.7286333,940
0.7303,914
0.7319667,843
0.7336333,859
0.7353,940
0.7369667,832
0.7386333,961
0.7403,816
0.7419667,875
0.7436333,879
0.7453,733
0.7469667,893
0.7486333,969
0.7503,809
0.7519667,710
0.7536333,802
0.7553,840
0.7569667,877
0.7586333,868
0.7603,860
0.7619666,823
0.7636333,865
0.7653,851
0.7669666,838
0.7686333,684
0.7703,928
0.7719667,724
0.7736334,870
0.7753,894
0.7769667,892
0.7786334,937
0.7803,703
0.7819667,871
0.7836334,939
0.7853,947
0.7869667,988
0.7886333,900
0.7903,841
0.7919667,717
0.7936333,1013
0.7953,1003
0.7969667,856
0.7986333,920
0.8003,874
0.8019667,943
0.8036333,815
0.8053,774
0.8069667,868
0.8086333,944
0.8103,962
0.8119667,787
0.8136333,841
0.8153,950
0.8169667,1001
0.8186333,937
0.8203,874
0.8219666,821
0.8236333,1021
0.8253,953
0.8269666,1010
0.8286333,686
0.8303,756
0.8319666,814
0.8336333,838
0.8353,863
0.8369667,745
0.8386334,890
0.8403,893
0.8419667,807
0.8436334,890
0.8453,974
0.8469667,753
0.8486333,832
0.8503,970
0.8519667,796
0.8536333,941
0.8553,862
0.8569667,765
0.8586333,910
0.8603,837
0.8619667,818
0.8636333,889
0.8653,619
0.8669667,815
0.8686333,769
0.8703,828
0.8719667,886
0.8736333,840
0.8753,793
0.8769667,841
0.8786333,960
0.8803,946
0.8819667,996
0.8836333,995
0.8853,1095
0.8869666,1067
0.8886333,1081
0.8903,1243
0.8919666,1205
0.8936333,1082
0.8953,1211
0.8969667,1251
0.8986334,1249
0.9003,1051
0.9019667,1198
0.9036334,1147
0.9053,1138
0.9069667,1198
0.9086334,1257
0.9103,988
0.9119667,1127
0.9136333,805
0.9153,1260
0.9169667,1359
0.9186333,1229
0.9203,987
0.9219667,946
0.9236333,1184
0.9253,1036
0.9269667,1063
0.9286333,1171
0.9303,1165
0.9319667,1159
0.9336333,1163
0.9353,1166
0.9369667,939
0.9386333,1303
0.9403,1145
0.9419667,1235
0.9436333,1285
0.9453,1282
0.9469666,1223
0.9486333,1190
0.9503,1130
0.9519666,1119
0.9536333,940
0.9553,1059
0.9569666,1113
0.9586333,1026
0.9603,939
0.9619667,888
0.9636334,1059
0.9653,786
0.9669667,1108
0.9686334,1143
0.9703,1242
0.9719667,941
0.9736333,947
0.9753,1023
0.9769667,738
0.9786333,829
0.9803,936
0.9819667,729
0.9836333,826
0.9853,870
0.9869667,821
0.9886333,953
0.9903,655
0.9919667,832
0.9936333,718
0.9953,813
0.9969667,902
0.9986333,713
1.0003,677
1.001967,788
1.003633,880
1.0053,1008
1.006967,906
1.008633,854
1.0103,847
1.011967,861
1.013633,981
1.0153,952
1.016967,868
1.018633,930
1.0203,1004
1.021967,707
1.023633,931
1.0253,902
1.026967,936
1.028633,856
1.0303,747
1.031967,913
1.033633,832
1.0353,885
1.036967,936
1.038633,895
1.0403,855
1.041967,847
1.043633,743
1.0453,820
1.046967,772
1.048633,811
1.0503,811
1.051967,811
1.053633,774
1.0553,840
1.056967,725
1.058633,734
1.0603,865
1.061967,922
1.063633,894
1.0653,878
1.066967,860
1.068633,875
1.0703,890
1.071967,730
1.073633,768
1.0753,882
1.076967,730
1.078633,961
1.0803,915
1.081967,940
1.083633,762
1.0853,926
1.086967,960
1.088633,795
1.0903,902
1.091967,973
1.093633,706
1.0953,849
1.096967,788
1.098633,876
1.1003,928
1.101967,925
1.103633,922
1.1053,838
1.106967,825
1.108633,908
1.1103,997
1.111967,863
1.113633,728
1.1153,836
1.116967,745
1.118633,723
1.1203,827
1.121967,816
1.123633,805
1.1253,820
1.126967,894
1.128633,909
1.1303,695
1.131967,979
1.133633,810
1.1353,842
1.136967,810
1.138633,750
1.1403,761
1.141967,704
1.143633,605
1.1453,732
1.146967,777
1.148633,822
1.1503,700
1.151967,835
1.153633,878
1.1553,810
1.156967,899
1.158633,779
1.1603,794
1.161967,809
1.163633,774
1.1653,785
1.166967,795
1.168633,786
1.1703,777
1.171967,985
1.173633,948
1.1753,789
1.176967,874
1.178633,842
1.1803,776
1.181967,936
1.183633,687
1.1853,718
1.186967,665
1.188633,661
1.1903,657
1.191967,650
1.193633,643
1.1953,713
1.196967,701
1.198633,689
