"SampleName","A2Rd2_02-94"
"Target Mass 1",
"Column Name","IA-3 (3um, 4.6X100)"
"Channel","QDa 1: SIR Ch1"
0.00195,479
0.003616667,491
0.005283333,529
0.00695,578
0.008616666,577
0.01028333,576
0.01195,592
0.01361667,608
0.01528333,609
0.01695,525
0.01861667,615
0.02028333,719
0.02195,432
0.02361667,509
0.02528333,473
0.02695,457
0.02861667,441
0.03028333,508
0.03195,533
0.03361667,521
0.03528333,541
0.03695,565
0.03861667,588
0.04028333,590
0.04195,592
0.04361667,613
0.04528333,633
0.04695,665
0.04861667,545
0.05028334,525
0.05195,605
0.05361667,553
0.05528333,501
0.05695,566
0.05861667,585
0.06028333,525
0.06195,495
0.06361666,481
0.06528334,467
0.06695,630
0.06861667,657
0.07028333,624
0.07195,570
0.07361667,588
0.07528333,601
0.07695,615
0.07861666,524
0.08028334,592
0.08195,548
0.08361667,555
0.08528333,580
0.08695,545
0.08861667,564
0.09028333,582
0.09195,619
0.09361666,464
0.09528334,497
0.09695,641
0.09861667,445
0.1002833,453
0.10195,461
0.1036167,484
0.1052833,484
0.10695,462
0.1086167,440
0.1102833,583
0.11195,656
0.1136167,679
0.1152833,689
0.11695,542
0.1186167,606
0.1202833,508
0.12195,612
0.1236167,563
0.1252833,556
0.12695,480
0.1286167,599
0.1302833,588
0.13195,541
0.1336167,610
0.1352833,620
0.13695,617
0.1386167,614
0.1402833,600
0.14195,524
0.1436167,663
0.1452833,677
0.14695,528
0.1486167,524
0.1502833,583
0.15195,530
0.1536167,573
0.1552833,608
0.15695,643
0.1586167,599
0.1602833,436
0.16195,506
0.1636167,475
0.1652833,583
0.16695,657
0.1686167,657
0.1702833,693
0.17195,531
0.1736167,508
0.1752833,713
0.17695,491
0.1786167,429
0.1802833,521
0.18195,536
0.1836167,614
0.1852833,538
0.18695,427
0.1886167,402
0.1902833,449
0.19195,573
0.1936167,595
0.1952833,667
0.19695,525
0.1986167,568
0.2002833,489
0.20195,635
0.2036167,423
0.2052833,645
0.20695,545
0.2086167,614
0.2102833,426
0.21195,661
0.2136167,473
0.2152833,336
0.21695,344
0.2186167,537
0.2202833,489
0.22195,505
0.2236167,521
0.2252833,503
0.22695,491
0.2286167,485
0.2302833,494
0.23195,564
0.2336167,550
0.2352833,535
0.23695,552
0.2386167,443
0.2402833,508
0.24195,554
0.2436167,465
0.2452833,589
0.24695,618
0.2486167,477
0.2502833,693
0.25195,488
0.2536167,579
0.2552833,581
0.25695,586
0.2586167,658
0.2602833,470
0.26195,494
0.2636167,547
0.2652833,571
0.26695,595
0.2686167,392
0.2702833,448
0.27195,444
0.2736167,480
0.2752833,514
0.27695,534
0.2786167,528
0.2803,532
0.28195,536
0.2836167,531
0.2852833,466
0.28695,484
0.2886167,503
0.2902833,535
0.29195,567
0.2936333,629
0.2952833,586
0.29695,544
0.2986333,476
0.3002833,566
0.30195,612
0.3036167,579
0.3053,547
0.30695,654
0.3086167,626
0.3102833,599
0.31195,615
0.3136167,606
0.3153,597
0.31695,490
0.3186333,560
0.3202833,514
0.32195,548
0.3236167,582
0.3252833,597
0.3269667,614
0.3286167,595
0.3302833,627
0.33195,567
0.3336333,633
0.3353,566
0.33695,637
0.3386333,530
0.3402833,478
0.34195,487
0.3436333,614
0.3452833,663
0.34695,633
0.3486167,603
0.3503,642
0.3519667,565
0.3536167,531
0.3552833,385
0.3569667,688
0.3586167,711
0.3603,732
0.36195,737
0.3636167,816
0.3653,990
0.36695,1597
0.3686333,2221
0.3702833,2771
0.3719667,3665
0.3736167,3456
0.3753,3223
0.3769667,3796
0.3786333,3903
0.3802833,3526
0.3819667,3923
0.3836167,3994
0.3853,3683
0.38695,3766
0.3886333,3444
0.3903,2715
0.3919667,2634
0.3936333,2149
0.3953,1938
0.39695,1512
0.3986333,1203
0.4002833,1122
0.4019667,1309
0.4036333,1319
0.4053,1159
0.4069667,987
0.4086333,1155
0.4103,1226
0.4119667,1172
0.4136333,923
0.4153,1071
0.41695,1224
0.4186333,1135
0.4203,1012
0.4219667,1271
0.4236333,1304
0.4253,1314
0.4269667,1184
0.4286333,1274
0.4303,1438
0.4319667,1415
0.4336333,2075
0.4353,2500
0.4369667,3970
0.4386333,6948
0.4403,10668
0.4419667,18316
0.4436333,28236
0.4453,40192
0.4469667,57120
0.4486333,74592
0.4503,91776
0.4519667,111440
0.4536333,128464
0.4553,140416
0.4569667,154048
0.4586333,164096
0.4603,167424
0.4619667,174912
0.4636333,172096
0.4653,173184
0.4669667,170752
0.4686333,171072
0.4703,175232
0.4719667,178240
0.4736333,177920
0.4753,183104
0.4769667,190336
0.4786333,197248
0.4803,194880
0.4819667,195264
0.4836333,189888
0.4853,175360
0.4869667,164672
0.4886333,151296
0.4903,135488
0.4919667,121296
0.4936333,106032
0.4953,90496
0.4969667,74672
0.4986333,63264
0.5003,51968
0.5019667,43520
0.5036333,35360
0.5053,29008
0.5069667,22600
0.5086333,19796
0.5103,16444
0.5119666,13948
0.5136333,11568
0.5153,9628
0.5169666,8652
0.5186333,7638
0.5203,6576
0.5219667,6056
0.5236334,5101
0.5253,4847
0.5269667,4674
0.5286334,3892
0.5303,3900
0.5319667,3066
0.5336334,3118
0.5353,3023
0.5369667,2990
0.5386333,3197
0.5403,3108
0.5419667,2365
0.5436333,2514
0.5453,2200
0.5469667,2462
0.5486333,2556
0.5503,2205
0.5519667,2218
0.5536333,1949
0.5553,1864
0.5569667,1913
0.5586333,1862
0.5603,1669
0.5619667,1966
0.5636333,1475
0.5653,1805
0.5669667,1802
0.5686333,1771
0.5703,1707
0.5719666,1591
0.5736333,1671
0.5753,1551
0.5769666,1373
0.5786333,1535
0.5803,1516
0.5819666,1495
0.5836333,1349
0.5853,1488
0.5869667,1530
0.5886334,1432
0.5903,1448
0.5919667,1427
0.5936334,1449
0.5953,1449
0.5969667,1449
0.5986333,1550
0.6003,1502
0.6019667,1454
0.6036333,1466
0.6053,1438
0.6069667,1485
0.6086333,1532
0.6103,1377
0.6119667,1568
0.6136333,1279
0.6153,1445
0.6169667,1620
0.6186333,1301
0.6203,1569
0.6219667,1362
0.6236333,1591
0.6253,1057
0.6269667,1304
0.6286333,1025
0.6303,1169
0.6319667,1472
0.6336333,1295
0.6353,1351
0.6369666,995
0.6386333,1130
0.6403,1203
0.6419666,1113
0.6436333,1110
0.6453,1089
0.6469667,999
0.6486334,883
0.6503,1007
0.6519667,1145
0.6536334,1177
0.6553,1053
0.6569667,1038
0.6586334,985
0.6603,892
0.6619667,860
0.6636333,866
0.6653,1011
0.6669667,1040
0.6686333,1068
0.6703,1062
0.6719667,764
0.6736333,882
0.6753,916
0.6769667,991
0.6786333,884
0.6803,870
0.6819667,845
0.6836333,878
0.6853,893
0.6869667,884
0.6886333,875
0.6903,761
0.6919667,882
0.6936333,869
0.6953,857
0.6969666,920
0.6986333,969
0.7003,923
0.7019666,877
0.7036333,746
0.7053,762
0.7069666,874
0.7086333,726
0.7103,848
0.7119667,845
0.7136334,960
0.7153,921
0.7169667,882
0.7186334,811
0.7203,943
0.7219667,868
0.7236333,970
0.7253,974
0.7269667,739
0.7286333,852
0.7303,738
0.7319667,756
0.7336333,950
0.7353,957
0.7369667,845
0.7386333,889
0.7403,913
0.7419667,816
0.7436333,780
0.7453,897
0.7469667,812
0.7486333,931
0.7503,970
0.7519667,852
0.7536333,708
0.7553,721
0.7569667,734
0.7586333,767
0.7603,801
0.7619666,917
0.7636333,892
0.7653,955
0.7669666,916
0.7686333,842
0.7703,746
0.7719667,944
0.7736334,1041
0.7753,998
0.7769667,898
0.7786334,932
0.7803,972
0.7819667,953
0.7836334,934
0.7853,811
0.7869667,928
0.7886333,1020
0.7903,937
0.7919667,851
0.7936333,923
0.7953,996
0.7969667,929
0.7986333,1022
0.8003,897
0.8019667,846
0.8036333,850
0.8053,884
0.8069667,767
0.8086333,908
0.8103,854
0.8119667,935
0.8136333,918
0.8153,847
0.8169667,914
0.8186333,916
0.8203,917
0.8219666,902
0.8236333,931
0.8253,923
0.8269666,915
0.8286333,870
0.8303,1179
0.8319666,1156
0.8336333,1050
0.8353,938
0.8369667,872
0.8386334,787
0.8403,959
0.8419667,914
0.8436334,865
0.8453,883
0.8469667,948
0.8486333,973
0.8503,899
0.8519667,920
0.8536333,915
0.8553,910
0.8569667,904
0.8586333,865
0.8603,826
0.8619667,1023
0.8636333,974
0.8653,671
0.8669667,1139
0.8686333,907
0.8703,660
0.8719667,955
0.8736333,919
0.8753,1413
0.8769667,1372
0.8786333,1850
0.8803,2296
0.8819667,2651
0.8836333,3120
0.8853,3275
0.8869666,3845
0.8886333,3614
0.8903,4062
0.8919666,3820
0.8936333,3665
0.8953,3509
0.8969667,3244
0.8986334,3734
0.9003,3915
0.9019667,3652
0.9036334,3353
0.9053,3995
0.9069667,3721
0.9086334,3970
0.9103,3516
0.9119667,3809
0.9136333,4010
0.9153,3912
0.9169667,3604
0.9186333,3876
0.9203,3571
0.9219667,4090
0.9236333,3951
0.9253,3619
0.9269667,3568
0.9286333,3460
0.9303,3490
0.9319667,3312
0.9336333,2932
0.9353,3151
0.9369667,3296
0.9386333,3180
0.9403,3102
0.9419667,3328
0.9436333,2987
0.9453,3213
0.9469666,2736
0.9486333,2575
0.9503,2307
0.9519666,2348
0.9536333,2389
0.9553,1920
0.9569666,2460
0.9586333,2034
0.9603,1889
0.9619667,1700
0.9636334,2002
0.9653,1804
0.9669667,1749
0.9686334,1629
0.9703,1274
0.9719667,1569
0.9736333,1458
0.9753,1161
0.9769667,1071
0.9786333,1117
0.9803,845
0.9819667,864
0.9836333,884
0.9853,873
0.9869667,787
0.9886333,758
0.9903,720
0.9919667,663
0.9936333,730
0.9953,701
0.9969667,673
0.9986333,676
1.0003,680
1.001967,673
1.003633,846
1.0053,468
1.006967,599
1.008633,692
1.0103,739
1.011967,560
1.013633,609
1.0153,611
1.016967,615
1.018633,600
1.0203,597
1.021967,667
1.023633,691
1.0253,555
1.026967,665
1.028633,623
1.0303,578
1.031967,662
1.033633,611
1.0353,640
1.036967,579
1.038633,663
1.0403,719
1.041967,759
1.043633,673
1.0453,674
1.046967,606
1.048633,585
1.0503,709
1.051967,697
1.053633,535
1.0553,687
1.056967,572
1.058633,756
1.0603,741
1.061967,712
1.063633,640
1.0653,493
1.066967,636
1.068633,523
1.0703,619
1.071967,757
1.073633,800
1.0753,638
1.076967,676
1.078633,701
1.0803,507
1.081967,579
1.083633,603
1.0853,685
1.086967,734
1.088633,704
1.0903,605
1.091967,585
1.093633,681
1.0953,734
1.096967,685
1.098633,646
1.1003,685
1.101967,483
1.103633,669
1.1053,702
1.106967,772
1.108633,603
1.1103,744
1.111967,730
1.113633,835
1.1153,734
1.116967,741
1.118633,605
1.1203,704
1.121967,596
1.123633,730
1.1253,670
1.126967,610
1.128633,632
1.1303,486
1.131967,859
1.133633,752
1.1353,739
1.136967,733
1.138633,611
1.1403,681
1.141967,750
1.143633,698
1.1453,695
1.146967,923
1.148633,925
1.1503,633
1.151967,846
1.153633,798
1.1553,695
1.156967,870
1.158633,804
1.1603,738
1.161967,785
1.163633,773
1.1653,778
1.166967,790
1.168633,905
1.1703,928
1.171967,951
1.173633,785
1.1753,868
1.176967,782
1.178633,902
1.1803,856
1.181967,809
1.183633,829
1.1853,848
1.186967,967
1.188633,1003
1.1903,846
1.191967,990
1.193633,878
1.1953,902
1.196967,784
1.198633,927
