"SampleName","A2Rd2_02-73"
"Target Mass 1",
"Column Name","IA-3 (3um, 4.6X100)"
"Channel","QDa 1: SIR Ch2"
0.00195,607
0.003616667,742
0.005283333,611
0.00695,721
0.008616666,803
0.01028333,768
0.01195,732
0.01361667,828
0.01528333,992
0.01695,1024
0.01861667,1091
0.02028333,883
0.02195,828
0.02361667,1137
0.02528333,929
0.02695,918
0.02861667,1150
0.03028333,795
0.03195,973
0.03361667,745
0.03528333,972
0.03695,1016
0.03861667,1125
0.04028333,1051
0.04195,977
0.04361667,1052
0.04528333,1058
0.04695,1064
0.04861667,948
0.05028334,902
0.05195,927
0.05361667,953
0.05528333,1012
0.05695,1010
0.05861667,926
0.06028333,1015
0.06195,771
0.06361666,970
0.06528334,939
0.06695,1093
0.06861667,992
0.07028333,900
0.07195,951
0.07361667,1132
0.07528333,1147
0.07695,1051
0.07861666,837
0.08028334,943
0.08195,945
0.08361667,923
0.08528333,929
0.08695,935
0.08861667,901
0.09028333,921
0.09195,827
0.09361666,818
0.09528334,896
0.09695,860
0.09861667,905
0.1002833,955
0.10195,929
0.1036167,904
0.1052833,974
0.10695,945
0.1086167,916
0.1102833,785
0.11195,913
0.1136167,876
0.1152833,1006
0.11695,964
0.1186167,1033
0.1202833,822
0.12195,802
0.1236167,865
0.1252833,901
0.12695,989
0.1286167,993
0.1302833,836
0.13195,910
0.1336167,894
0.1352833,896
0.13695,954
0.1386167,678
0.1402833,788
0.14195,743
0.1436167,698
0.1452833,958
0.14695,914
0.1486167,824
0.1502833,900
0.15195,915
0.1536167,862
0.1552833,802
0.15695,742
0.1586167,901
0.1602833,885
0.16195,1010
0.1636167,737
0.1652833,962
0.16695,1043
0.1686167,797
0.1702833,821
0.17195,877
0.1736167,881
0.1752833,926
0.17695,990
0.1786167,958
0.1802833,998
0.18195,898
0.1836167,809
0.1852833,741
0.18695,901
0.1886167,833
0.1902833,764
0.19195,813
0.1936167,1042
0.1952833,1067
0.19695,724
0.1986167,707
0.2002833,821
0.20195,850
0.2036167,857
0.2052833,865
0.20695,887
0.2086167,912
0.2102833,893
0.21195,874
0.2136167,922
0.2152833,969
0.21695,780
0.2186167,1086
0.2202833,1045
0.22195,890
0.2236167,1023
0.2252833,1145
0.22695,1060
0.2286167,955
0.2302833,1255
0.23195,1140
0.2336167,1149
0.2352833,1233
0.23695,1222
0.2386167,1211
0.2402833,1178
0.24195,1046
0.2436167,1230
0.2452833,1276
0.24695,1317
0.2486167,1154
0.2502833,1238
0.25195,946
0.2536167,1176
0.2552833,1246
0.25695,1047
0.2586167,1039
0.2602833,1043
0.26195,1016
0.2636333,988
0.2652833,1088
0.26695,1096
0.2686167,1110
0.2702833,1118
0.27195,930
0.2736167,1236
0.2752833,783
0.27695,1050
0.2786167,1172
0.2803,1144
0.28195,1053
0.2836167,897
0.2852833,805
0.2869667,941
0.2886167,1131
0.2902833,1073
0.29195,1138
0.2936167,880
0.2952833,880
0.29695,881
0.2986333,1116
0.3002833,1067
0.30195,1128
0.3036333,1143
0.3052833,1134
0.30695,1024
0.3086167,973
0.3102833,922
0.31195,1439
0.3136333,1321
0.3153,1594
0.3169667,1478
0.3186333,1426
0.3203,1241
0.32195,1369
0.3236167,1402
0.3252833,1293
0.32695,1118
0.3286167,1344
0.3302833,1145
0.33195,1312
0.3336333,1104
0.3352833,1249
0.3369667,1248
0.3386333,1208
0.3403,1167
0.34195,1181
0.3436167,1195
0.3452833,1214
0.3469667,1148
0.3486167,1142
0.3503,1240
0.35195,1323
0.3536333,1303
0.3553,1284
0.3569667,1343
0.3586167,1397
0.3603,1404
0.36195,1294
0.3636333,1581
0.3652833,2548
0.3669667,3053
0.3686333,3220
0.3703,4042
0.3719667,3646
0.3736333,3819
0.3753,3225
0.3769667,3489
0.3786167,3469
0.3803,3353
0.38195,2921
0.3836333,2349
0.3853,2500
0.3869667,1810
0.3886333,1578
0.3903,1392
0.3919667,992
0.3936333,691
0.3953,565
0.3969667,622
0.3986333,593
0.4003,477
0.4019667,341
0.4036333,393
0.4053,478
0.4069667,608
0.4086333,526
0.4103,578
0.4119667,621
0.4136333,514
0.4153,544
0.4169667,721
0.4186333,799
0.4203,659
0.4219667,810
0.4236333,760
0.4253,634
0.4269667,836
0.4286333,783
0.4303,830
0.4319667,751
0.4336333,917
0.4353,907
0.4369667,1094
0.4386333,996
0.4403,796
0.4419667,961
0.4436333,1159
0.4453,1052
0.4469667,1130
0.4486333,1209
0.4503,1226
0.4519667,1312
0.4536333,1331
0.4553,1390
0.4569667,1220
0.4586333,1306
0.4603,1160
0.4619667,1259
0.4636333,1375
0.4653,1363
0.4669667,1351
0.4686333,1300
0.4703,1355
0.4719667,1403
0.4736333,1408
0.4753,1412
0.4769667,1421
0.4786333,1430
0.4803,1481
0.4819667,1499
0.4836333,1446
0.4853,1027
0.4869667,1429
0.4886333,1585
0.4903,1521
0.4919667,1348
0.4936333,1350
0.4953,1180
0.4969667,1195
0.4986333,1225
0.5003,962
0.5019667,1021
0.5036333,1080
0.5053,1247
0.5069667,1298
0.5086333,1005
0.5103,1015
0.5119666,1066
0.5136333,883
0.5153,1053
0.5169666,1111
0.5186333,967
0.5203,1157
0.5219667,931
0.5236334,979
0.5253,825
0.5269667,1023
0.5286334,994
0.5303,768
0.5319667,889
0.5336334,1076
0.5353,1043
0.5369667,908
0.5386333,985
0.5403,1038
0.5419667,804
0.5436333,812
0.5453,833
0.5469667,857
0.5486333,880
0.5503,900
0.5519667,891
0.5536333,883
0.5553,842
0.5569667,904
0.5586333,967
0.5603,1083
0.5619667,1061
0.5636333,934
0.5653,944
0.5669667,912
0.5686333,790
0.5703,992
0.5719666,954
0.5736333,868
0.5753,849
0.5769666,912
0.5786333,975
0.5803,926
0.5819666,877
0.5836333,1052
0.5853,1015
0.5869667,978
0.5886334,1009
0.5903,992
0.5919667,975
0.5936334,950
0.5953,774
0.5969667,1020
0.5986333,1121
0.6003,1080
0.6019667,900
0.6036333,946
0.6053,896
0.6069667,1076
0.6086333,1081
0.6103,849
0.6119667,1001
0.6136333,1069
0.6153,938
0.6169667,948
0.6186333,1027
0.6203,846
0.6219667,979
0.6236333,873
0.6253,1007
0.6269667,986
0.6286333,974
0.6303,925
0.6319667,983
0.6336333,736
0.6353,815
0.6369666,919
0.6386333,874
0.6403,824
0.6419666,880
0.6436333,806
0.6453,890
0.6469667,730
0.6486334,818
0.6503,906
0.6519667,916
0.6536334,930
0.6553,866
0.6569667,855
0.6586334,893
0.6603,810
0.6619667,1009
0.6636333,1005
0.6653,830
0.6669667,763
0.6686333,761
0.6703,876
0.6719667,789
0.6736333,703
0.6753,968
0.6769667,883
0.6786333,861
0.6803,954
0.6819667,880
0.6836333,755
0.6853,817
0.6869667,728
0.6886333,746
0.6903,765
0.6919667,766
0.6936333,546
0.6953,775
0.6969666,869
0.6986333,845
0.7003,820
0.7019666,760
0.7036333,700
0.7053,937
0.7069666,906
0.7086333,801
0.7103,849
0.7119667,886
0.7136334,889
0.7153,831
0.7169667,955
0.7186334,710
0.7203,882
0.7219667,796
0.7236333,823
0.7253,733
0.7269667,939
0.7286333,973
0.7303,976
0.7319667,652
0.7336333,943
0.7353,909
0.7369667,688
0.7386333,915
0.7403,853
0.7419667,747
0.7436333,844
0.7453,836
0.7469667,924
0.7486333,926
0.7503,928
0.7519667,884
0.7536333,771
0.7553,780
0.7569667,815
0.7586333,839
0.7603,1016
0.7619666,967
0.7636333,871
0.7653,872
0.7669666,829
0.7686333,787
0.7703,759
0.7719667,981
0.7736334,988
0.7753,894
0.7769667,825
0.7786334,702
0.7803,901
0.7819667,730
0.7836334,740
0.7853,941
0.7869667,996
0.7886333,949
0.7903,1029
0.7919667,811
0.7936333,888
0.7953,846
0.7969667,804
0.7986333,890
0.8003,823
0.8019667,888
0.8036333,872
0.8053,962
0.8069667,892
0.8086333,822
0.8103,987
0.8119667,897
0.8136333,964
0.8153,854
0.8169667,943
0.8186333,807
0.8203,944
0.8219666,1011
0.8236333,821
0.8253,895
0.8269666,1065
0.8286333,1009
0.8303,1049
0.8319666,1005
0.8336333,916
0.8353,788
0.8369667,749
0.8386334,767
0.8403,786
0.8419667,931
0.8436334,928
0.8453,942
0.8469667,873
0.8486333,960
0.8503,788
0.8519667,989
0.8536333,975
0.8553,900
0.8569667,882
0.8586333,875
0.8603,868
0.8619667,906
0.8636333,893
0.8653,880
0.8669667,804
0.8686333,856
0.8703,950
0.8719667,928
0.8736333,686
0.8753,849
0.8769667,913
0.8786333,1074
0.8803,1188
0.8819667,1137
0.8836333,1171
0.8853,1059
0.8869666,1115
0.8886333,1171
0.8903,1142
0.8919666,1113
0.8936333,1081
0.8953,1049
0.8969667,1147
0.8986334,1222
0.9003,1175
0.9019667,1129
0.9036334,1314
0.9053,1354
0.9069667,1285
0.9086334,1073
0.9103,1413
0.9119667,1016
0.9136333,1370
0.9153,1206
0.9169667,1144
0.9186333,1411
0.9203,1201
0.9219667,1061
0.9236333,1145
0.9253,1199
0.9269667,1305
0.9286333,1306
0.9303,1237
0.9319667,1130
0.9336333,1293
0.9353,1215
0.9369667,1280
0.9386333,1191
0.9403,1318
0.9419667,1101
0.9436333,1189
0.9453,1013
0.9469666,1148
0.9486333,1060
0.9503,1097
0.9519666,1134
0.9536333,1022
0.9553,1014
0.9569666,972
0.9586333,976
0.9603,981
0.9619667,877
0.9636334,964
0.9653,1040
0.9669667,954
0.9686334,1007
0.9703,853
0.9719667,867
0.9736333,881
0.9753,780
0.9769667,827
0.9786333,976
0.9803,973
0.9819667,884
0.9836333,685
0.9853,889
0.9869667,880
0.9886333,735
0.9903,752
0.9919667,719
0.9936333,919
0.9953,904
0.9969667,836
0.9986333,953
1.0003,906
1.001967,860
1.003633,1091
1.0053,1086
1.006967,954
1.008633,760
1.0103,836
1.011967,783
1.013633,700
1.0153,617
1.016967,986
1.018633,881
1.0203,779
1.021967,829
1.023633,816
1.0253,802
1.026967,740
1.028633,678
1.0303,837
1.031967,793
1.033633,748
1.0353,953
1.036967,917
1.038633,817
1.0403,985
1.041967,980
1.043633,873
1.0453,985
1.046967,701
1.048633,980
1.0503,880
1.051967,748
1.053633,848
1.0553,783
1.056967,719
1.058633,823
1.0603,927
1.061967,904
1.063633,875
1.0653,849
1.066967,838
1.068633,826
1.0703,793
1.071967,878
1.073633,862
1.0753,825
1.076967,856
1.078633,886
1.0803,786
1.081967,839
1.083633,888
1.0853,781
1.086967,874
1.088633,697
1.0903,850
1.091967,840
1.093633,903
1.0953,794
1.096967,940
1.098633,792
1.1003,967
1.101967,1024
1.103633,760
1.1053,880
1.106967,1021
1.108633,922
1.1103,822
1.111967,890
1.113633,932
1.1153,927
1.116967,786
1.118633,849
1.1203,873
1.121967,796
1.123633,876
1.1253,826
1.126967,947
1.128633,921
1.1303,827
1.131967,665
1.133633,872
1.1353,955
1.136967,746
1.138633,982
1.1403,1053
1.141967,1007
1.143633,1013
1.1453,957
1.146967,830
1.148633,837
1.1503,991
1.151967,867
1.153633,972
1.1553,633
1.156967,796
1.158633,657
1.1603,661
1.161967,907
1.163633,937
1.1653,804
1.166967,689
1.168633,776
1.1703,851
1.171967,810
1.173633,830
1.1753,851
1.176967,794
1.178633,858
1.1803,755
1.181967,794
1.183633,832
1.1853,867
1.186967,708
1.188633,874
1.1903,727
1.191967,802
1.193633,758
1.1953,717
1.196967,835
1.198633,798
