"SampleName","A2Rd2_02-22"
"Target Mass 1",
"Column Name","IA-3 (3um, 4.6X100)"
"Channel","QDa 1: SIR Ch1"
0.00195,454
0.003616667,498
0.005283333,488
0.00695,470
0.008616666,453
0.01028333,528
0.01195,545
0.01361667,529
0.01528333,512
0.01695,663
0.01861667,348
0.02028333,445
0.02195,611
0.02361667,601
0.02528333,429
0.02695,548
0.02861667,654
0.03028333,572
0.03195,521
0.03361667,627
0.03528333,495
0.03695,643
0.03861667,465
0.04028333,677
0.04195,621
0.04361667,519
0.04528333,590
0.04695,515
0.04861667,501
0.05028334,486
0.05195,562
0.05361667,585
0.05528333,543
0.05695,551
0.05861667,559
0.06028333,595
0.06195,498
0.06361666,599
0.06528334,467
0.06695,503
0.06861667,538
0.07028333,572
0.07195,615
0.07361667,571
0.07528333,627
0.07695,462
0.07861666,609
0.08028334,445
0.08195,630
0.08361667,458
0.08528333,470
0.08695,444
0.08861667,549
0.09028333,592
0.09195,639
0.09361666,543
0.09528334,593
0.09695,373
0.09861667,589
0.1002833,584
0.10195,583
0.1036167,563
0.1052833,618
0.10695,649
0.1086167,627
0.1102833,605
0.11195,530
0.1136167,579
0.1152833,498
0.11695,562
0.1186167,515
0.1202833,527
0.12195,539
0.1236167,479
0.1252833,506
0.12695,520
0.1286167,533
0.1302833,495
0.13195,512
0.1336167,528
0.1352833,569
0.13695,578
0.1386167,492
0.1402833,576
0.14195,408
0.1436167,500
0.1452833,576
0.14695,485
0.1486167,535
0.1502833,584
0.15195,564
0.1536167,601
0.1552833,486
0.15695,558
0.1586167,640
0.1602833,629
0.16195,589
0.1636167,512
0.1652833,436
0.16695,622
0.1686167,679
0.1702833,467
0.17195,503
0.1736167,571
0.1752833,570
0.17695,454
0.1786167,466
0.1802833,478
0.18195,460
0.1836167,441
0.1852833,441
0.18695,439
0.1886167,437
0.1902833,451
0.19195,482
0.1936167,461
0.1952833,440
0.19695,544
0.1986167,579
0.2002833,553
0.20195,400
0.2036167,524
0.2052833,458
0.20695,519
0.2086167,579
0.2102833,530
0.21195,564
0.2136167,599
0.2152833,517
0.21695,525
0.2186167,503
0.2202833,475
0.22195,538
0.2236167,315
0.2252833,457
0.22695,480
0.2286167,603
0.2302833,646
0.23195,567
0.2336167,563
0.2352833,540
0.23695,618
0.2386167,424
0.2402833,510
0.24195,572
0.2436167,537
0.2452833,515
0.24695,516
0.2486167,516
0.2502833,562
0.25195,574
0.2536167,587
0.2552833,560
0.25695,566
0.2586167,493
0.2602833,522
0.26195,552
0.2636333,494
0.2652833,474
0.26695,449
0.2686167,515
0.2702833,457
0.27195,399
0.2736167,617
0.2752833,604
0.27695,613
0.2786167,471
0.2803,477
0.2819667,462
0.2836167,447
0.2852833,521
0.28695,509
0.2886167,546
0.2902833,510
0.29195,569
0.2936167,598
0.2952833,553
0.29695,558
0.2986333,563
0.3002833,562
0.30195,594
0.3036167,625
0.3052833,656
0.30695,492
0.3086167,533
0.3102833,458
0.31195,520
0.3136333,519
0.3153,518
0.31695,453
0.3186167,633
0.3202833,608
0.32195,509
0.3236167,631
0.3252833,574
0.32695,578
0.3286333,507
0.3302833,508
0.3319667,567
0.3336333,572
0.3353,544
0.3369667,525
0.3386333,506
0.3402833,491
0.34195,476
0.3436167,522
0.3453,511
0.3469667,461
0.3486333,572
0.3503,564
0.3519667,560
0.3536333,510
0.3553,558
0.3569667,513
0.3586333,532
0.3602833,583
0.3619667,633
0.3636333,869
0.3653,1417
0.3669667,1925
0.3686333,2905
0.3703,4362
0.3719667,4086
0.3736167,4093
0.3753,4846
0.37695,5434
0.3786333,6501
0.3803,5780
0.3819667,5748
0.3836333,5292
0.3853,4671
0.3869667,3929
0.3886333,3159
0.3903,3282
0.3919667,2290
0.3936333,1852
0.3953,1378
0.3969667,1195
0.3986333,1245
0.4003,1202
0.4019667,1151
0.4036333,1191
0.4053,1213
0.4069667,1214
0.4086333,1214
0.4103,1094
0.4119667,1364
0.4136333,1505
0.4153,1557
0.4169667,1459
0.4186333,1534
0.4203,1608
0.4219667,1522
0.4236333,1622
0.4253,1602
0.4269667,1582
0.4286333,1722
0.4303,1862
0.4319667,1964
0.4336333,2468
0.4353,3270
0.4369667,4357
0.4386333,6719
0.4403,10176
0.4419667,15332
0.4436333,22508
0.4453,32232
0.4469667,45408
0.4486333,57072
0.4503,73200
0.4519667,86480
0.4536333,102128
0.4553,116064
0.4569667,126496
0.4586333,138624
0.4603,147200
0.4619667,153152
0.4636333,158720
0.4653,165440
0.4669667,175680
0.4686333,185280
0.4703,200192
0.4719667,208640
0.4736333,217600
0.4753,220736
0.4769667,220864
0.4786333,218048
0.4803,213632
0.4819667,198592
0.4836333,181824
0.4853,156544
0.4869667,134976
0.4886333,118640
0.4903,99952
0.4919667,83200
0.4936333,66992
0.4953,53632
0.4969667,43888
0.4986333,34240
0.5003,26012
0.5019667,21088
0.5036333,16644
0.5053,13516
0.5069667,11740
0.5086333,10588
0.5103,7984
0.5119666,6979
0.5136333,6736
0.5153,5380
0.5169666,4571
0.5186333,4931
0.5203,4233
0.5219667,4114
0.5236334,3408
0.5253,3553
0.5269667,3259
0.5286334,3225
0.5303,2853
0.5319667,2811
0.5336334,2704
0.5353,2719
0.5369667,2648
0.5386333,2623
0.5403,2458
0.5419667,2449
0.5436333,2149
0.5453,2140
0.5469667,2040
0.5486333,2097
0.5503,2138
0.5519667,1901
0.5536333,2045
0.5553,2013
0.5569667,1719
0.5586333,1679
0.5603,1680
0.5619667,1807
0.5636333,1470
0.5653,1729
0.5669667,1843
0.5686333,1522
0.5703,1413
0.5719666,1084
0.5736333,1497
0.5753,1219
0.5769666,1317
0.5786333,1441
0.5803,1393
0.5819666,1202
0.5836333,1259
0.5853,1234
0.5869667,1261
0.5886334,1287
0.5903,1305
0.5919667,1236
0.5936334,1205
0.5953,1289
0.5969667,1477
0.5986333,1406
0.6003,1451
0.6019667,1360
0.6036333,1271
0.6053,1138
0.6069667,1376
0.6086333,1012
0.6103,1336
0.6119667,1512
0.6136333,1487
0.6153,1240
0.6169667,1232
0.6186333,1209
0.6203,1105
0.6219667,1258
0.6236333,1149
0.6253,1216
0.6269667,1151
0.6286333,1047
0.6303,1126
0.6319667,1114
0.6336333,881
0.6353,1188
0.6369666,1155
0.6386333,964
0.6403,1091
0.6419666,877
0.6436333,1105
0.6453,755
0.6469667,1195
0.6486334,996
0.6503,1032
0.6519667,888
0.6536334,725
0.6553,960
0.6569667,887
0.6586334,898
0.6603,855
0.6619667,936
0.6636333,950
0.6653,886
0.6669667,897
0.6686333,1018
0.6703,981
0.6719667,810
0.6736333,722
0.6753,949
0.6769667,680
0.6786333,965
0.6803,726
0.6819667,769
0.6836333,898
0.6853,754
0.6869667,760
0.6886333,829
0.6903,678
0.6919667,801
0.6936333,727
0.6953,702
0.6969666,654
0.6986333,661
0.7003,668
0.7019666,740
0.7036333,714
0.7053,687
0.7069666,699
0.7086333,730
0.7103,573
0.7119667,635
0.7136334,813
0.7153,800
0.7169667,725
0.7186334,623
0.7203,751
0.7219667,731
0.7236333,712
0.7253,620
0.7269667,528
0.7286333,795
0.7303,736
0.7319667,785
0.7336333,613
0.7353,708
0.7369667,773
0.7386333,782
0.7403,828
0.7419667,625
0.7436333,610
0.7453,716
0.7469667,588
0.7486333,604
0.7503,620
0.7519667,731
0.7536333,718
0.7553,690
0.7569667,607
0.7586333,616
0.7603,684
0.7619666,675
0.7636333,665
0.7653,665
0.7669666,664
0.7686333,692
0.7703,720
0.7719667,708
0.7736334,697
0.7753,815
0.7769667,822
0.7786334,793
0.7803,649
0.7819667,596
0.7836334,707
0.7853,622
0.7869667,713
0.7886333,574
0.7903,692
0.7919667,635
0.7936333,600
0.7953,601
0.7969667,583
0.7986333,691
0.8003,693
0.8019667,499
0.8036333,703
0.8053,698
0.8069667,643
0.8086333,629
0.8103,603
0.8119667,599
0.8136333,610
0.8153,622
0.8169667,597
0.8186333,572
0.8203,616
0.8219666,661
0.8236333,656
0.8253,598
0.8269666,753
0.8286333,707
0.8303,659
0.8319666,629
0.8336333,612
0.8353,532
0.8369667,763
0.8386334,706
0.8403,411
0.8419667,690
0.8436334,686
0.8453,667
0.8469667,623
0.8486333,580
0.8503,652
0.8519667,674
0.8536333,525
0.8553,562
0.8569667,661
0.8586333,547
0.8603,682
0.8619667,656
0.8636333,712
0.8653,487
0.8669667,450
0.8686333,673
0.8703,614
0.8719667,696
0.8736333,430
0.8753,652
0.8769667,746
0.8786333,924
0.8803,1499
0.8819667,1301
0.8836333,1502
0.8853,1748
0.8869666,1943
0.8886333,1731
0.8903,1835
0.8919666,1940
0.8936333,2235
0.8953,2190
0.8969667,2078
0.8986334,2185
0.9003,2236
0.9019667,2123
0.9036334,2279
0.9053,2193
0.9069667,2171
0.9086334,1972
0.9103,2241
0.9119667,2071
0.9136333,2141
0.9153,2081
0.9169667,2206
0.9186333,2200
0.9203,2195
0.9219667,2195
0.9236333,2195
0.9253,2042
0.9269667,2360
0.9286333,1848
0.9303,1800
0.9319667,2149
0.9336333,2137
0.9353,2241
0.9369667,1945
0.9386333,2019
0.9403,1919
0.9419667,1666
0.9436333,1889
0.9453,1797
0.9469666,1537
0.9486333,1715
0.9503,1623
0.9519666,1520
0.9536333,1554
0.9553,1556
0.9569666,1402
0.9586333,1301
0.9603,1150
0.9619667,1172
0.9636334,1274
0.9653,826
0.9669667,1050
0.9686334,945
0.9703,1000
0.9719667,1001
0.9736333,765
0.9753,690
0.9769667,717
0.9786333,724
0.9803,731
0.9819667,674
0.9836333,756
0.9853,714
0.9869667,492
0.9886333,566
0.9903,666
0.9919667,516
0.9936333,528
0.9953,496
0.9969667,473
0.9986333,460
1.0003,493
1.001967,502
1.003633,511
1.0053,466
1.006967,421
1.008633,476
1.0103,460
1.011967,444
1.013633,447
1.0153,451
1.016967,488
1.018633,484
1.0203,480
1.021967,486
1.023633,423
1.0253,508
1.026967,534
1.028633,561
1.0303,413
1.031967,392
1.033633,504
1.0353,533
1.036967,562
1.038633,501
1.0403,498
1.041967,495
1.043633,478
1.0453,460
1.046967,475
1.048633,443
1.0503,573
1.051967,594
1.053633,549
1.0553,560
1.056967,584
1.058633,634
1.0603,442
1.061967,423
1.063633,555
1.0653,578
1.066967,544
1.068633,524
1.0703,598
1.071967,507
1.073633,480
1.0753,633
1.076967,456
1.078633,387
1.0803,409
1.081967,497
1.083633,450
1.0853,482
1.086967,521
1.088633,404
1.0903,473
1.091967,478
1.093633,525
1.0953,555
1.096967,522
1.098633,489
1.1003,476
1.101967,431
1.103633,536
1.1053,513
1.106967,576
1.108633,617
1.1103,547
1.111967,477
1.113633,564
1.1153,458
1.116967,585
1.118633,598
1.1203,567
1.121967,561
1.123633,497
1.1253,484
1.126967,472
1.128633,507
1.1303,482
1.131967,458
1.133633,464
1.1353,513
1.136967,561
1.138633,585
1.1403,503
1.141967,385
1.143633,469
1.1453,473
1.146967,515
1.148633,519
1.1503,501
1.151967,484
1.153633,527
1.1553,527
1.156967,545
1.158633,482
1.1603,570
1.161967,433
1.163633,567
1.1653,694
1.166967,674
1.168633,638
1.1703,546
1.171967,471
1.173633,537
1.1753,532
1.176967,527
1.178633,599
1.1803,553
1.181967,507
1.183633,637
1.1853,604
1.186967,571
1.188633,501
1.1903,486
1.191967,540
1.193633,551
1.1953,499
1.196967,487
1.198633,474
