"SampleName","A2Rd2_02-58"
"Target Mass 1",
"Column Name","IA-3 (3um, 4.6X100)"
"Channel","QDa 1: SIR Ch2"
0.00195,469
0.003616667,786
0.005283333,734
0.00695,840
0.008616666,710
0.01028333,791
0.01195,802
0.01361667,814
0.01528333,813
0.01695,812
0.01861667,931
0.02028333,941
0.02195,973
0.02361667,887
0.02528333,724
0.02695,782
0.02861667,841
0.03028333,897
0.03195,871
0.03361667,846
0.03528333,904
0.03695,765
0.03861667,775
0.04028333,1056
0.04195,1012
0.04361667,1216
0.04528333,1169
0.04695,1122
0.04861667,1107
0.05028334,939
0.05195,1067
0.05361667,1081
0.05528333,728
0.05695,988
0.05861667,992
0.06028333,875
0.06195,1017
0.06361666,922
0.06528334,839
0.06695,1100
0.06861667,1147
0.07028333,950
0.07195,883
0.07361667,997
0.07528333,878
0.07695,1040
0.07861666,948
0.08028334,845
0.08195,920
0.08361667,995
0.08528333,1046
0.08695,1066
0.08861667,983
0.09028333,944
0.09195,892
0.09361666,907
0.09528334,922
0.09695,913
0.09861667,799
0.1002833,1112
0.10195,1236
0.1036167,1004
0.1052833,955
0.10695,881
0.1086167,870
0.1102833,892
0.11195,955
0.1136167,1055
0.1152833,995
0.11695,935
0.1186167,982
0.1202833,960
0.12195,938
0.1236167,1048
0.1252833,863
0.12695,875
0.1286167,837
0.1302833,920
0.13195,866
0.1336167,812
0.1352833,1021
0.13695,1054
0.1386167,898
0.1402833,953
0.14195,995
0.1436167,1009
0.1452833,997
0.14695,1054
0.1486167,881
0.1502833,1119
0.15195,1083
0.1536167,787
0.1552833,1050
0.15695,982
0.1586167,896
0.1602833,1018
0.16195,841
0.1636167,1042
0.1652833,983
0.16695,831
0.1686167,784
0.1702833,930
0.17195,891
0.1736167,893
0.1752833,918
0.17695,910
0.1786167,938
0.1802833,967
0.18195,874
0.1836167,939
0.1852833,894
0.18695,686
0.1886167,887
0.1902833,1231
0.19195,1127
0.1936167,974
0.1952833,974
0.19695,1011
0.1986167,867
0.2002833,1041
0.20195,1022
0.2036167,847
0.2052833,921
0.20695,1063
0.2086167,1105
0.2102833,1188
0.21195,847
0.2136167,991
0.2152833,1004
0.21695,1114
0.2186167,1065
0.2202833,1036
0.22195,1215
0.2236167,1220
0.2252833,1140
0.22695,1160
0.2286167,1195
0.2302833,1189
0.23195,1183
0.2336167,1132
0.2352833,1010
0.23695,1194
0.2386167,1254
0.2402833,1191
0.24195,1067
0.2436167,1349
0.2452833,1339
0.24695,1162
0.2486167,1353
0.2502833,1236
0.25195,1197
0.2536333,1271
0.2552833,987
0.25695,1299
0.2586167,1144
0.2602833,875
0.26195,1132
0.2636167,1155
0.2652833,1230
0.26695,1170
0.2686167,1114
0.2702833,1146
0.27195,1106
0.2736167,1071
0.2752833,1084
0.27695,1098
0.2786167,1003
0.2803,966
0.28195,956
0.2836333,946
0.2852833,970
0.28695,987
0.2886167,924
0.2902833,921
0.29195,919
0.2936167,978
0.2952833,1037
0.29695,1019
0.2986333,1002
0.3003,1027
0.30195,1009
0.3036333,992
0.3052833,1020
0.30695,1018
0.3086167,1016
0.3102833,1134
0.31195,1194
0.3136167,1207
0.3153,1329
0.3169667,1436
0.3186167,1372
0.3202833,1201
0.32195,1319
0.3236167,1302
0.3252833,1291
0.32695,1078
0.3286167,1191
0.3302833,1259
0.3319667,1381
0.3336333,1414
0.3352833,1219
0.33695,1256
0.3386167,1514
0.3402833,1614
0.3419667,1540
0.3436167,1468
0.3452833,1447
0.34695,1391
0.3486167,1472
0.3503,1205
0.3519667,1230
0.3536333,1215
0.3552833,1245
0.35695,1275
0.3586333,1300
0.3602833,1123
0.36195,1108
0.3636167,1262
0.3653,2367
0.3669667,3215
0.3686333,3327
0.3703,3113
0.3719667,3203
0.3736167,3130
0.3753,2859
0.37695,2740
0.3786333,3041
0.3802833,2960
0.3819667,2800
0.3836333,2475
0.3853,1969
0.38695,1875
0.3886333,1514
0.3902833,879
0.3919667,969
0.3936167,778
0.3953,695
0.39695,636
0.3986333,371
0.4003,421
0.4019667,541
0.4036333,479
0.4053,487
0.4069667,528
0.4086333,536
0.4102833,544
0.4119667,695
0.4136333,661
0.4153,581
0.4169667,725
0.4186333,659
0.4203,594
0.4219667,675
0.4236333,704
0.4253,732
0.4269667,712
0.4286333,838
0.4303,863
0.4319667,748
0.4336333,749
0.4353,847
0.4369667,956
0.4386333,1030
0.4403,963
0.4419667,988
0.4436333,1107
0.4453,1070
0.4469667,1080
0.4486333,1117
0.4503,1125
0.4519667,1168
0.4536333,1229
0.4553,1289
0.4569667,1315
0.4586333,1228
0.4603,1246
0.4619667,1264
0.4636333,1275
0.4653,1462
0.4669667,1676
0.4686333,1656
0.4703,1312
0.4719667,1385
0.4736333,1701
0.4753,1329
0.4769667,1275
0.4786333,1505
0.4803,1344
0.4819667,1241
0.4836333,1428
0.4853,1290
0.4869667,1267
0.4886333,1196
0.4903,1164
0.4919667,1211
0.4936333,1235
0.4953,1198
0.4969667,1114
0.4986333,973
0.5003,1173
0.5019667,1150
0.5036333,949
0.5053,1300
0.5069667,1069
0.5086333,960
0.5103,945
0.5119666,1015
0.5136333,1084
0.5153,1047
0.5169666,1052
0.5186333,990
0.5203,1130
0.5219667,837
0.5236334,1092
0.5253,931
0.5269667,875
0.5286334,847
0.5303,905
0.5319667,963
0.5336334,1019
0.5353,1047
0.5369667,1075
0.5386333,1104
0.5403,1194
0.5419667,931
0.5436333,1236
0.5453,1108
0.5469667,880
0.5486333,979
0.5503,890
0.5519667,964
0.5536333,823
0.5553,894
0.5569667,965
0.5586333,913
0.5603,1109
0.5619667,1052
0.5636333,916
0.5653,960
0.5669667,1004
0.5686333,1010
0.5703,1016
0.5719666,967
0.5736333,919
0.5753,980
0.5769666,784
0.5786333,1142
0.5803,1108
0.5819666,987
0.5836333,992
0.5853,956
0.5869667,1118
0.5886334,1175
0.5903,1036
0.5919667,992
0.5936334,1057
0.5953,867
0.5969667,1036
0.5986333,991
0.6003,1107
0.6019667,1015
0.6036333,923
0.6053,1020
0.6069667,999
0.6086333,933
0.6103,867
0.6119667,1050
0.6136333,1015
0.6153,1038
0.6169667,1060
0.6186333,1077
0.6203,1093
0.6219667,1118
0.6236333,1142
0.6253,1050
0.6269667,1119
0.6286333,1189
0.6303,985
0.6319667,1006
0.6336333,1199
0.6353,1133
0.6369666,1277
0.6386333,1227
0.6403,1162
0.6419666,1047
0.6436333,1233
0.6453,1149
0.6469667,1140
0.6486334,1058
0.6503,1101
0.6519667,1081
0.6536334,1097
0.6553,1114
0.6569667,960
0.6586334,992
0.6603,1024
0.6619667,957
0.6636333,967
0.6653,977
0.6669667,1307
0.6686333,1228
0.6703,1413
0.6719667,1817
0.6736333,2325
0.6753,2374
0.6769667,3023
0.6786333,3933
0.6803,4714
0.6819667,6800
0.6836333,7957
0.6853,10184
0.6869667,12592
0.6886333,15536
0.6903,17132
0.6919667,18656
0.6936333,21176
0.6953,23876
0.6969666,25424
0.6986333,27184
0.7003,26880
0.7019666,28060
0.7036333,27080
0.7053,26488
0.7069666,26916
0.7086333,26452
0.7103,25156
0.7119667,25300
0.7136334,24264
0.7153,23168
0.7169667,23068
0.7186334,23340
0.7203,23192
0.7219667,21948
0.7236333,22252
0.7253,20952
0.7269667,20816
0.7286333,17136
0.7303,17492
0.7319667,16072
0.7336333,13976
0.7353,12436
0.7369667,11496
0.7386333,10144
0.7403,8052
0.7419667,7960
0.7436333,6742
0.7453,5464
0.7469667,6017
0.7486333,4415
0.7503,4296
0.7519667,4243
0.7536333,3312
0.7553,3442
0.7569667,2987
0.7586333,2549
0.7603,2848
0.7619666,2308
0.7636333,2191
0.7653,1990
0.7669666,1993
0.7686333,1832
0.7703,2128
0.7719667,2140
0.7736334,2523
0.7753,2756
0.7769667,3464
0.7786334,3871
0.7803,5017
0.7819667,6249
0.7836334,7623
0.7853,10188
0.7869667,13132
0.7886333,15376
0.7903,19208
0.7919667,22264
0.7936333,25536
0.7953,28604
0.7969667,32272
0.7986333,34848
0.8003,36432
0.8019667,37552
0.8036333,39504
0.8053,38960
0.8069667,39184
0.8086333,38896
0.8103,38608
0.8119667,36128
0.8136333,36064
0.8153,34288
0.8169667,35184
0.8186333,32344
0.8203,32848
0.8219666,32256
0.8236333,32192
0.8253,32124
0.8269666,32004
0.8286333,32680
0.8303,30748
0.8319666,29572
0.8336333,28584
0.8353,27052
0.8369667,25712
0.8386334,22624
0.8403,21056
0.8419667,19232
0.8436334,17956
0.8453,15900
0.8469667,14684
0.8486333,12240
0.8503,12028
0.8519667,9248
0.8536333,9004
0.8553,7609
0.8569667,7020
0.8586333,6200
0.8603,5776
0.8619667,5251
0.8636333,4167
0.8653,3732
0.8669667,4102
0.8686333,3449
0.8703,3272
0.8719667,3124
0.8736333,2592
0.8753,2549
0.8769667,2496
0.8786333,2622
0.8803,2843
0.8819667,2889
0.8836333,2865
0.8853,2865
0.8869666,2865
0.8886333,2618
0.8903,2722
0.8919666,2259
0.8936333,2462
0.8953,2453
0.8969667,2157
0.8986334,2472
0.9003,2440
0.9019667,2506
0.9036334,2306
0.9053,2137
0.9069667,2220
0.9086334,2318
0.9103,2253
0.9119667,2244
0.9136333,2161
0.9153,1966
0.9169667,1925
0.9186333,1959
0.9203,1889
0.9219667,1820
0.9236333,2057
0.9253,1702
0.9269667,1637
0.9286333,1727
0.9303,1818
0.9319667,1855
0.9336333,1793
0.9353,1730
0.9369667,1778
0.9386333,1696
0.9403,1613
0.9419667,1714
0.9436333,1814
0.9453,2037
0.9469666,2084
0.9486333,2086
0.9503,2089
0.9519666,2856
0.9536333,3527
0.9553,4606
0.9569666,4392
0.9586333,5682
0.9603,6643
0.9619667,8428
0.9636334,10020
0.9653,11996
0.9669667,14396
0.9686334,17536
0.9703,20320
0.9719667,22564
0.9736333,26820
0.9753,29556
0.9769667,34144
0.9786333,36912
0.9803,39680
0.9819667,43408
0.9836333,45824
0.9853,47408
0.9869667,48400
0.9886333,52448
0.9903,53680
0.9919667,52592
0.9936333,52304
0.9953,51168
0.9969667,52000
0.9986333,50832
1.0003,49536
1.001967,48624
1.003633,48944
1.0053,47376
1.006967,48848
1.008633,48080
1.0103,46480
1.011967,45856
1.013633,47392
1.0153,46800
1.016967,47136
1.018633,46352
1.0203,47168
1.021967,46880
1.023633,46592
1.0253,45216
1.026967,43312
1.028633,41760
1.0303,39808
1.031967,37232
1.033633,36496
1.0353,33664
1.036967,31284
1.038633,30812
1.0403,27764
1.041967,25052
1.043633,23728
1.0453,21044
1.046967,19584
1.048633,18724
1.0503,19144
1.051967,17656
1.053633,17100
1.0553,17576
1.056967,16100
1.058633,16912
1.0603,16480
1.061967,17368
1.063633,18120
1.0653,19116
1.066967,18524
1.068633,19220
1.0703,19504
1.071967,19960
1.073633,20028
1.0753,20164
1.076967,20300
1.078633,20540
1.0803,20784
1.081967,21628
1.083633,21460
1.0853,21288
1.086967,19844
1.088633,19704
1.0903,19392
1.091967,19620
1.093633,19472
1.0953,19328
1.096967,18188
1.098633,18804
1.1003,18672
1.101967,18892
1.103633,17916
1.1053,18180
1.106967,17972
1.108633,17300
1.1103,17344
1.111967,17860
1.113633,17580
1.1153,17024
1.116967,15104
1.118633,15324
1.1203,14408
1.121967,14644
1.123633,13132
1.1253,13528
1.126967,11940
1.128633,11904
1.1303,11492
1.131967,11152
1.133633,9956
1.1353,9988
1.136967,9372
1.138633,8220
1.1403,7327
1.141967,6981
1.143633,7109
1.1453,6075
1.146967,5526
1.148633,6070
1.1503,5315
1.151967,4992
1.153633,4686
1.1553,4434
1.156967,4230
1.158633,3615
1.1603,3839
1.161967,3451
1.163633,3273
1.1653,3129
1.166967,2889
1.168633,2693
1.1703,2789
1.171967,2598
1.173633,2529
1.1753,2716
1.176967,2562
1.178633,2396
1.1803,2203
1.181967,2509
1.183633,2491
1.1853,2321
1.186967,2313
1.188633,2305
1.1903,2272
1.191967,2240
1.193633,2718
1.1953,2842
1.196967,3356
1.198633,3231
