"SampleName","A2Rd2_02-7"
"Target Mass 1",
"Column Name","IA-3 (3um, 4.6X100)"
"Channel","QDa 1: SIR Ch1"
0.00195,386
0.003616667,603
0.005283333,581
0.00695,647
0.008616666,675
0.01028333,527
0.01195,489
0.01361667,539
0.01528333,566
0.01695,583
0.01861667,577
0.02028333,571
0.02195,524
0.02361667,518
0.02528333,533
0.02695,507
0.02861667,502
0.03028333,515
0.03195,500
0.03361667,485
0.03528333,549
0.03695,613
0.03861667,571
0.04028333,553
0.04195,615
0.04361667,517
0.04528333,544
0.04695,574
0.04861667,500
0.05028334,493
0.05195,485
0.05361667,519
0.05528333,489
0.05695,459
0.05861667,492
0.06028333,501
0.06195,510
0.06361666,511
0.06528334,600
0.06695,592
0.06861667,424
0.07028333,461
0.07195,503
0.07361667,459
0.07528333,415
0.07695,537
0.07861666,566
0.08028334,594
0.08195,579
0.08361667,673
0.08528333,356
0.08695,511
0.08861667,498
0.09028333,568
0.09195,580
0.09361666,507
0.09528334,505
0.09695,502
0.09861667,517
0.1002833,451
0.10195,443
0.1036167,556
0.1052833,371
0.10695,401
0.1086167,432
0.1102833,396
0.11195,460
0.1136167,458
0.1152833,456
0.11695,434
0.1186167,624
0.1202833,623
0.12195,692
0.1236167,561
0.1252833,571
0.12695,466
0.1286167,570
0.1302833,514
0.13195,517
0.1336167,553
0.1352833,541
0.13695,419
0.1386167,492
0.1402833,471
0.14195,560
0.1436167,594
0.1452833,549
0.14695,527
0.1486167,476
0.1502833,627
0.15195,579
0.1536167,554
0.1552833,640
0.15695,667
0.1586167,572
0.1602833,503
0.16195,675
0.1636167,498
0.1652833,658
0.16695,515
0.1686167,544
0.1702833,562
0.17195,559
0.1736167,556
0.1752833,515
0.17695,544
0.1786167,494
0.1802833,461
0.18195,480
0.1836167,564
0.1852833,572
0.18695,487
0.1886167,528
0.1902833,569
0.19195,608
0.1936167,628
0.1952833,396
0.19695,375
0.1986167,672
0.2002833,581
0.20195,503
0.2036167,484
0.2052833,477
0.20695,492
0.2086167,507
0.2102833,506
0.21195,505
0.2136167,513
0.2152833,507
0.21695,502
0.2186167,508
0.2202833,507
0.22195,541
0.2236167,519
0.2252833,496
0.22695,408
0.2286167,475
0.2302833,439
0.23195,404
0.2336167,536
0.2352833,545
0.23695,555
0.2386167,508
0.2402833,521
0.24195,382
0.2436167,519
0.2453,525
0.24695,525
0.2486167,524
0.2502833,525
0.25195,525
0.2536167,606
0.2552833,649
0.25695,591
0.2586167,573
0.2602833,432
0.26195,482
0.2636333,498
0.2652833,499
0.26695,499
0.2686167,427
0.2702833,512
0.27195,589
0.2736167,528
0.2752833,557
0.27695,608
0.2786167,554
0.2803,501
0.28195,519
0.2836167,501
0.2852833,540
0.28695,603
0.2886167,597
0.2902833,592
0.29195,550
0.2936167,579
0.2952833,416
0.29695,508
0.2986333,594
0.3002833,556
0.30195,595
0.3036333,465
0.3052833,610
0.30695,486
0.3086167,641
0.3102833,483
0.31195,500
0.3136167,562
0.3153,567
0.31695,571
0.3186167,575
0.3202833,590
0.32195,604
0.3236167,642
0.3252833,654
0.3269667,595
0.3286333,555
0.3302833,499
0.33195,597
0.3336333,525
0.3352833,500
0.33695,481
0.3386167,603
0.3402833,590
0.34195,576
0.3436333,456
0.3453,522
0.34695,588
0.3486167,654
0.3503,576
0.35195,400
0.3536333,619
0.3552833,460
0.3569667,554
0.3586167,489
0.3603,636
0.3619667,674
0.3636167,858
0.3652833,1245
0.36695,1754
0.3686333,3156
0.3703,3784
0.3719667,4177
0.3736333,4851
0.3753,4735
0.3769667,5104
0.3786333,5410
0.3803,5214
0.3819667,5018
0.3836333,4564
0.3853,3984
0.3869667,3837
0.3886333,3060
0.3903,2980
0.3919667,2309
0.3936333,1872
0.3953,1535
0.3969667,1309
0.3986333,1217
0.4003,1244
0.4019667,1226
0.4036333,1207
0.4053,1306
0.4069667,1283
0.4086333,1260
0.4103,1261
0.4119667,1241
0.4136333,1220
0.4153,1309
0.4169667,1398
0.4186333,1453
0.4203,1508
0.4219667,1701
0.4236333,1717
0.4253,1732
0.4269667,1682
0.4286333,1632
0.4303,1789
0.4319667,2213
0.4336333,2558
0.4353,3333
0.4369667,5263
0.4386333,7349
0.4403,12420
0.4419667,17880
0.4436333,26156
0.4453,36976
0.4469667,50560
0.4486333,65552
0.4503,83040
0.4519667,100752
0.4536333,119264
0.4553,130864
0.4569667,144448
0.4586333,156864
0.4603,170752
0.4619667,177792
0.4636333,184448
0.4653,202176
0.4669667,208768
0.4686333,222336
0.4703,242048
0.4719667,260544
0.4736333,269120
0.4753,275136
0.4769667,280960
0.4786333,275008
0.4803,265920
0.4819667,244800
0.4836333,228480
0.4853,201088
0.4869667,172992
0.4886333,147904
0.4903,122432
0.4919667,101376
0.4936333,85136
0.4953,65968
0.4969667,52032
0.4986333,41824
0.5003,31896
0.5019667,25620
0.5036333,21452
0.5053,16812
0.5069667,13800
0.5086333,11860
0.5103,9400
0.5119666,7686
0.5136333,7287
0.5153,6345
0.5169666,6320
0.5186333,5188
0.5203,4718
0.5219667,4722
0.5236334,4271
0.5253,4076
0.5269667,4266
0.5286334,3617
0.5303,3436
0.5319667,3351
0.5336334,3239
0.5353,3384
0.5369667,3262
0.5386333,2898
0.5403,3224
0.5419667,2734
0.5436333,2480
0.5453,2450
0.5469667,2272
0.5486333,2256
0.5503,2160
0.5519667,2412
0.5536333,1931
0.5553,2306
0.5569667,2199
0.5586333,1991
0.5603,2011
0.5619667,1797
0.5636333,1726
0.5653,2084
0.5669667,1840
0.5686333,1689
0.5703,1432
0.5719666,1595
0.5736333,1703
0.5753,1543
0.5769666,1297
0.5786333,1694
0.5803,1440
0.5819666,1455
0.5836333,1470
0.5853,1392
0.5869667,1397
0.5886334,1402
0.5903,1368
0.5919667,1334
0.5936334,1555
0.5953,1513
0.5969667,1471
0.5986333,1388
0.6003,1455
0.6019667,1342
0.6036333,1461
0.6053,1543
0.6069667,1621
0.6086333,1683
0.6103,1219
0.6119667,1318
0.6136333,1329
0.6153,1390
0.6169667,1247
0.6186333,1243
0.6203,1420
0.6219667,1246
0.6236333,1295
0.6253,1251
0.6269667,1079
0.6286333,1071
0.6303,1120
0.6319667,1145
0.6336333,1171
0.6353,1034
0.6369666,913
0.6386333,1128
0.6403,1161
0.6419666,966
0.6436333,1043
0.6453,1018
0.6469667,986
0.6486334,953
0.6503,1086
0.6519667,743
0.6536334,964
0.6553,679
0.6569667,860
0.6586334,804
0.6603,821
0.6619667,833
0.6636333,838
0.6653,843
0.6669667,887
0.6686333,860
0.6703,832
0.6719667,728
0.6736333,988
0.6753,936
0.6769667,814
0.6786333,780
0.6803,641
0.6819667,711
0.6836333,781
0.6853,845
0.6869667,840
0.6886333,800
0.6903,762
0.6919667,783
0.6936333,769
0.6953,643
0.6969666,708
0.6986333,634
0.7003,762
0.7019666,726
0.7036333,691
0.7053,655
0.7069666,748
0.7086333,763
0.7103,778
0.7119667,595
0.7136334,763
0.7153,643
0.7169667,644
0.7186334,737
0.7203,646
0.7219667,660
0.7236333,723
0.7253,720
0.7269667,728
0.7286333,736
0.7303,715
0.7319667,694
0.7336333,690
0.7353,687
0.7369667,666
0.7386333,610
0.7403,640
0.7419667,670
0.7436333,642
0.7453,613
0.7469667,631
0.7486333,649
0.7503,732
0.7519667,738
0.7536333,744
0.7553,681
0.7569667,512
0.7586333,839
0.7603,678
0.7619666,517
0.7636333,867
0.7653,812
0.7669666,649
0.7686333,767
0.7703,784
0.7719667,602
0.7736334,786
0.7753,732
0.7769667,770
0.7786334,765
0.7803,760
0.7819667,603
0.7836334,638
0.7853,687
0.7869667,582
0.7886333,785
0.7903,764
0.7919667,741
0.7936333,625
0.7953,511
0.7969667,609
0.7986333,572
0.8003,617
0.8019667,663
0.8036333,704
0.8053,516
0.8069667,690
0.8086333,572
0.8103,739
0.8119667,644
0.8136333,619
0.8153,705
0.8169667,659
0.8186333,613
0.8203,601
0.8219666,639
0.8236333,635
0.8253,632
0.8269666,783
0.8286333,753
0.8303,639
0.8319666,658
0.8336333,634
0.8353,634
0.8369667,634
0.8386334,494
0.8403,581
0.8419667,669
0.8436334,674
0.8453,537
0.8469667,638
0.8486333,622
0.8503,618
0.8519667,615
0.8536333,674
0.8553,651
0.8569667,627
0.8586333,618
0.8603,609
0.8619667,626
0.8636333,613
0.8653,600
0.8669667,660
0.8686333,720
0.8703,680
0.8719667,666
0.8736333,621
0.8753,606
0.8769667,629
0.8786333,738
0.8803,799
0.8819667,1117
0.8836333,1322
0.8853,1530
0.8869666,1670
0.8886333,2294
0.8903,2092
0.8919666,2157
0.8936333,2210
0.8953,2264
0.8969667,2276
0.8986334,2302
0.9003,2447
0.9019667,2527
0.9036334,2607
0.9053,2602
0.9069667,2546
0.9086334,2490
0.9103,2525
0.9119667,2626
0.9136333,2642
0.9153,2608
0.9169667,2545
0.9186333,2482
0.9203,2484
0.9219667,2458
0.9236333,2380
0.9253,2254
0.9269667,2292
0.9286333,2474
0.9303,2499
0.9319667,2312
0.9336333,2593
0.9353,2275
0.9369667,2532
0.9386333,2128
0.9403,2437
0.9419667,2242
0.9436333,2158
0.9453,1948
0.9469666,1968
0.9486333,1565
0.9503,1616
0.9519666,1659
0.9536333,1633
0.9553,1750
0.9569666,1722
0.9586333,1602
0.9603,1792
0.9619667,1402
0.9636334,1703
0.9653,1220
0.9669667,1319
0.9686334,1236
0.9703,1095
0.9719667,1166
0.9736333,978
0.9753,882
0.9769667,1014
0.9786333,974
0.9803,895
0.9819667,638
0.9836333,886
0.9853,600
0.9869667,602
0.9886333,598
0.9903,572
0.9919667,547
0.9936333,558
0.9953,549
0.9969667,470
0.9986333,467
1.0003,464
1.001967,449
1.003633,433
1.0053,559
1.006967,555
1.008633,555
1.0103,567
1.011967,604
1.013633,451
1.0153,556
1.016967,589
1.018633,541
1.0203,563
1.021967,567
1.023633,575
1.0253,565
1.026967,555
1.028633,527
1.0303,499
1.031967,492
1.033633,471
1.0353,551
1.036967,565
1.038633,553
1.0403,537
1.041967,520
1.043633,502
1.0453,483
1.046967,501
1.048633,519
1.0503,505
1.051967,502
1.053633,498
1.0553,671
1.056967,739
1.058633,704
1.0603,380
1.061967,494
1.063633,473
1.0653,549
1.066967,539
1.068633,366
1.0703,605
1.071967,545
1.073633,563
1.0753,502
1.076967,476
1.078633,532
1.0803,565
1.081967,598
1.083633,601
1.0853,657
1.086967,482
1.088633,657
1.0903,578
1.091967,599
1.093633,628
1.0953,559
1.096967,562
1.098633,566
1.1003,488
1.101967,569
1.103633,622
1.1053,507
1.106967,507
1.108633,520
1.1103,460
1.111967,525
1.113633,577
1.1153,622
1.116967,475
1.118633,513
1.1203,515
1.121967,555
1.123633,520
1.1253,486
1.126967,590
1.128633,583
1.1303,577
1.131967,493
1.133633,543
1.1353,536
1.136967,528
1.138633,492
1.1403,564
1.141967,537
1.143633,586
1.1453,543
1.146967,499
1.148633,526
1.1503,693
1.151967,708
1.153633,622
1.1553,524
1.156967,536
1.158633,637
1.1603,635
1.161967,692
1.163633,522
1.1653,551
1.166967,544
1.168633,534
1.1703,523
1.171967,606
1.173633,698
1.1753,396
1.176967,461
1.178633,538
1.1803,639
1.181967,557
1.183633,627
1.1853,700
1.186967,501
1.188633,487
1.1903,634
1.191967,575
1.193633,733
1.1953,667
1.196967,545
1.198633,678
