"SampleName","A2Rd2_02-23"
"Target Mass 1",
"Column Name","IA-3 (3um, 4.6X100)"
"Channel","QDa 1: SIR Ch2"
0.00195,379
0.003616667,614
0.005283333,815
0.00695,677
0.008616666,946
0.01028333,968
0.01195,1122
0.01361667,1007
0.01528333,966
0.01695,1038
0.01861667,1033
0.02028333,1027
0.02195,1201
0.02361667,821
0.02528333,1142
0.02695,915
0.02861667,1180
0.03028333,1201
0.03195,982
0.03361667,840
0.03528333,969
0.03695,998
0.03861667,1056
0.04028333,1067
0.04195,1081
0.04361667,1095
0.04528333,965
0.04695,885
0.04861667,1165
0.05028334,1236
0.05195,1024
0.05361667,975
0.05528333,923
0.05695,881
0.05861667,838
0.06028333,864
0.06195,890
0.06361666,925
0.06528334,903
0.06695,916
0.06861667,929
0.07028333,1135
0.07195,1212
0.07361667,1057
0.07528333,941
0.07695,951
0.07861666,1109
0.08028334,787
0.08195,974
0.08361667,960
0.08528333,956
0.08695,1058
0.08861667,800
0.09028333,1172
0.09195,1034
0.09361666,898
0.09528334,1065
0.09695,925
0.09861667,1129
0.1002833,1046
0.10195,696
0.1036167,1080
0.1052833,699
0.10695,816
0.1086167,831
0.1102833,883
0.11195,900
0.1136167,874
0.1152833,848
0.11695,832
0.1186167,817
0.1202833,952
0.12195,992
0.1236167,1033
0.1252833,959
0.12695,1036
0.1286167,1120
0.1302833,763
0.13195,927
0.1336167,893
0.1352833,1036
0.13695,1018
0.1386167,957
0.1402833,967
0.14195,829
0.1436167,821
0.1452833,813
0.14695,904
0.1486167,928
0.1502833,980
0.15195,981
0.1536167,1007
0.1552833,911
0.15695,910
0.1586167,833
0.1602833,840
0.16195,921
0.1636167,1001
0.1652833,1043
0.16695,818
0.1686167,898
0.1702833,931
0.17195,887
0.1736167,905
0.1752833,946
0.17695,987
0.1786167,973
0.1802833,941
0.18195,909
0.1836167,876
0.1852833,895
0.18695,994
0.1886167,894
0.1902833,794
0.19195,984
0.1936167,782
0.1952833,1020
0.19695,1080
0.1986167,768
0.2002833,898
0.20195,896
0.2036167,943
0.2052833,1019
0.20695,1002
0.2086167,985
0.2102833,1061
0.21195,1077
0.2136167,1094
0.2152833,978
0.21695,887
0.2186167,1115
0.2202833,868
0.22195,926
0.2236167,983
0.2252833,1245
0.22695,1270
0.2286167,1239
0.2302833,1158
0.23195,1161
0.2336167,1203
0.2352833,1246
0.23695,988
0.2386167,1208
0.2402833,1106
0.24195,1266
0.2436167,1235
0.2452833,1204
0.24695,1238
0.2486167,1273
0.2502833,1123
0.25195,1250
0.2536167,1100
0.2552833,1244
0.25695,1287
0.2586167,1295
0.2602833,1284
0.26195,1129
0.2636167,1233
0.2652833,1081
0.26695,1222
0.2686167,1197
0.2702833,1172
0.27195,896
0.2736167,1114
0.2752833,1002
0.27695,1376
0.2786167,1275
0.2802833,1085
0.28195,1179
0.2836167,1257
0.2852833,1056
0.28695,1146
0.2886167,1085
0.2902833,1203
0.29195,955
0.2936167,1317
0.2952833,1162
0.29695,1195
0.2986333,1276
0.3002833,1107
0.30195,1061
0.3036167,1245
0.3052833,1130
0.30695,1263
0.3086167,1122
0.3102833,1369
0.31195,1266
0.3136167,1438
0.3153,1368
0.31695,1298
0.3186167,1450
0.3202833,1649
0.32195,1627
0.3236167,999
0.3252833,1327
0.3269667,1208
0.3286167,1073
0.3302833,1136
0.33195,1161
0.3336333,1186
0.3352833,1221
0.33695,1032
0.3386167,1121
0.3402833,1209
0.34195,1509
0.3436167,1463
0.3452833,1438
0.34695,1289
0.3486167,1511
0.3503,1507
0.35195,1430
0.3536167,1562
0.3553,1564
0.35695,1319
0.3586167,1460
0.3602833,1324
0.36195,1604
0.3636167,1596
0.3652833,2259
0.36695,3251
0.3686333,3323
0.3702833,3531
0.3719667,3437
0.3736167,3343
0.3753,3352
0.3769667,3414
0.3786167,3336
0.3802833,3259
0.38195,2933
0.3836167,2601
0.3853,2070
0.38695,1916
0.3886333,1676
0.3903,1061
0.39195,1007
0.3936167,908
0.3952833,678
0.39695,712
0.3986333,566
0.4002833,572
0.40195,586
0.4036333,456
0.4053,572
0.4069667,566
0.4086333,490
0.4102833,660
0.4119667,685
0.4136333,796
0.4153,707
0.4169667,759
0.4186333,735
0.4203,718
0.4219667,664
0.4236333,696
0.4253,728
0.4269667,817
0.4286333,858
0.4302833,1024
0.4319667,988
0.4336167,776
0.4353,912
0.4369667,1055
0.4386333,863
0.4403,1075
0.4419667,1096
0.4436333,1248
0.4453,1142
0.4469667,1046
0.4486333,1162
0.4503,1085
0.4519667,1009
0.4536333,1346
0.4553,1403
0.4569667,1320
0.4586333,1297
0.4603,1135
0.4619667,1370
0.4636333,1420
0.4653,1458
0.4669667,1252
0.4686333,1316
0.4703,1394
0.4719667,1391
0.4736333,1381
0.4753,1465
0.4769667,1229
0.4786333,1147
0.4803,1286
0.4819667,1205
0.4836333,1123
0.4853,1100
0.4869667,1224
0.4886333,1095
0.4903,1046
0.4919667,1003
0.4936333,996
0.4953,989
0.4969667,1017
0.4986333,1004
0.5003,991
0.5019667,902
0.5036333,986
0.5053,1061
0.5069667,1104
0.5086333,1070
0.5103,1194
0.5119666,776
0.5136333,775
0.5153,1038
0.5169666,1046
0.5186333,980
0.5203,800
0.5219667,960
0.5236334,844
0.5253,1107
0.5269667,1171
0.5286334,1078
0.5303,979
0.5319667,1149
0.5336334,924
0.5353,1015
0.5369667,999
0.5386333,1028
0.5403,841
0.5419667,973
0.5436333,1005
0.5453,948
0.5469667,882
0.5486333,925
0.5503,1037
0.5519667,1005
0.5536333,835
0.5553,969
0.5569667,1070
0.5586333,824
0.5603,1080
0.5619667,1004
0.5636333,968
0.5653,1073
0.5669667,824
0.5686333,824
0.5703,884
0.5719666,864
0.5736333,844
0.5753,1237
0.5769666,1161
0.5786333,975
0.5803,1025
0.5819666,1009
0.5836333,1120
0.5853,812
0.5869667,1157
0.5886334,925
0.5903,1122
0.5919667,1211
0.5936334,1064
0.5953,1040
0.5969667,1207
0.5986333,1179
0.6003,1005
0.6019667,818
0.6036333,1025
0.6053,838
0.6069667,995
0.6086333,1043
0.6103,1023
0.6119667,1022
0.6136333,1042
0.6153,1002
0.6169667,879
0.6186333,936
0.6203,876
0.6219667,947
0.6236333,999
0.6253,1005
0.6269667,991
0.6286333,959
0.6303,876
0.6319667,997
0.6336333,928
0.6353,981
0.6369666,1063
0.6386333,759
0.6403,985
0.6419666,906
0.6436333,1023
0.6453,1055
0.6469667,924
0.6486334,899
0.6503,936
0.6519667,923
0.6536334,910
0.6553,933
0.6569667,916
0.6586334,875
0.6603,833
0.6619667,924
0.6636333,834
0.6653,975
0.6669667,1058
0.6686333,984
0.6703,1097
0.6719667,744
0.6736333,972
0.6753,955
0.6769667,949
0.6786333,930
0.6803,912
0.6819667,920
0.6836333,929
0.6853,976
0.6869667,727
0.6886333,930
0.6903,847
0.6919667,785
0.6936333,808
0.6953,752
0.6969666,956
0.6986333,951
0.7003,1009
0.7019666,946
0.7036333,882
0.7053,1020
0.7069666,780
0.7086333,837
0.7103,917
0.7119667,884
0.7136334,855
0.7153,930
0.7169667,931
0.7186334,940
0.7203,949
0.7219667,713
0.7236333,973
0.7253,850
0.7269667,963
0.7286333,1010
0.7303,978
0.7319667,957
0.7336333,935
0.7353,935
0.7369667,935
0.7386333,943
0.7403,921
0.7419667,869
0.7436333,867
0.7453,865
0.7469667,909
0.7486333,711
0.7503,758
0.7519667,805
0.7536333,791
0.7553,988
0.7569667,957
0.7586333,830
0.7603,965
0.7619666,1061
0.7636333,1053
0.7653,956
0.7669666,1038
0.7686333,853
0.7703,1035
0.7719667,936
0.7736334,833
0.7753,873
0.7769667,871
0.7786334,918
0.7803,965
0.7819667,983
0.7836334,985
0.7853,987
0.7869667,949
0.7886333,947
0.7903,944
0.7919667,916
0.7936333,814
0.7953,872
0.7969667,1125
0.7986333,1080
0.8003,1119
0.8019667,1027
0.8036333,844
0.8053,1047
0.8069667,967
0.8086333,942
0.8103,1062
0.8119667,1051
0.8136333,1022
0.8153,984
0.8169667,1185
0.8186333,1187
0.8203,1102
0.8219666,854
0.8236333,879
0.8253,1001
0.8269666,1020
0.8286333,861
0.8303,1075
0.8319666,1111
0.8336333,1063
0.8353,862
0.8369667,800
0.8386334,1038
0.8403,976
0.8419667,995
0.8436334,947
0.8453,771
0.8469667,794
0.8486333,833
0.8503,828
0.8519667,810
0.8536333,982
0.8553,957
0.8569667,1013
0.8586333,889
0.8603,875
0.8619667,875
0.8636333,864
0.8653,800
0.8669667,675
0.8686333,975
0.8703,903
0.8719667,831
0.8736333,920
0.8753,929
0.8769667,939
0.8786333,878
0.8803,994
0.8819667,1239
0.8836333,1304
0.8853,1266
0.8869666,1276
0.8886333,1285
0.8903,1334
0.8919666,1383
0.8936333,1441
0.8953,1493
0.8969667,1181
0.8986334,1234
0.9003,1400
0.9019667,1276
0.9036334,1358
0.9053,1355
0.9069667,1398
0.9086334,1313
0.9103,1525
0.9119667,1504
0.9136333,1446
0.9153,1417
0.9169667,1441
0.9186333,1488
0.9203,1472
0.9219667,1456
0.9236333,1423
0.9253,1548
0.9269667,1581
0.9286333,1521
0.9303,1344
0.9319667,1603
0.9336333,1486
0.9353,1254
0.9369667,1383
0.9386333,1572
0.9403,1437
0.9419667,1397
0.9436333,1563
0.9453,1484
0.9469666,1348
0.9486333,1466
0.9503,1376
0.9519666,1308
0.9536333,1316
0.9553,1180
0.9569666,1182
0.9586333,1218
0.9603,1237
0.9619667,1227
0.9636334,1106
0.9653,1146
0.9669667,1145
0.9686334,1177
0.9703,869
0.9719667,1044
0.9736333,935
0.9753,1016
0.9769667,988
0.9786333,961
0.9803,963
0.9819667,1084
0.9836333,731
0.9853,909
0.9869667,924
0.9886333,889
0.9903,946
0.9919667,960
0.9936333,922
0.9953,885
0.9969667,961
0.9986333,1021
1.0003,813
1.001967,1007
1.003633,868
1.0053,999
1.006967,1080
1.008633,1006
1.0103,1012
1.011967,1018
1.013633,918
1.0153,927
1.016967,906
1.018633,885
1.0203,972
1.021967,928
1.023633,883
1.0253,1116
1.026967,634
1.028633,1080
1.0303,815
1.031967,834
1.033633,977
1.0353,954
1.036967,930
1.038633,959
1.0403,757
1.041967,879
1.043633,1075
1.0453,1063
1.046967,1069
1.048633,1015
1.0503,1120
1.051967,850
1.053633,1020
1.0553,1024
1.056967,866
1.058633,967
1.0603,968
1.061967,871
1.063633,848
1.0653,939
1.066967,925
1.068633,995
1.0703,746
1.071967,882
1.073633,885
1.0753,900
1.076967,873
1.078633,792
1.0803,884
1.081967,843
1.083633,802
1.0853,851
1.086967,851
1.088633,851
1.0903,895
1.091967,938
1.093633,883
1.0953,828
1.096967,888
1.098633,949
1.1003,1080
1.101967,1008
1.103633,937
1.1053,684
1.106967,908
1.108633,815
1.1103,1055
1.111967,1061
1.113633,914
1.1153,904
1.116967,894
1.118633,909
1.1203,941
1.121967,967
1.123633,992
1.1253,952
1.126967,904
1.128633,1025
1.1303,964
1.131967,901
1.133633,990
1.1353,889
1.136967,849
1.138633,809
1.1403,827
1.141967,846
1.143633,856
1.1453,866
1.146967,892
1.148633,918
1.1503,893
1.151967,869
1.153633,821
1.1553,809
1.156967,865
1.158633,921
1.1603,932
1.161967,1041
1.163633,728
1.1653,914
1.166967,814
1.168633,851
1.1703,833
1.171967,814
1.173633,764
1.1753,714
1.176967,809
1.178633,903
1.1803,954
1.181967,1036
1.183633,1008
1.1853,708
1.186967,966
1.188633,890
1.1903,843
1.191967,709
1.193633,965
1.1953,883
1.196967,928
1.198633,910
