"SampleName","A2Rd2_02-69"
"Target Mass 1",
"Column Name","IA-3 (3um, 4.6X100)"
"Channel","QDa 1: SIR Ch2"
0.00195,566
0.003616667,772
0.005283333,658
0.00695,822
0.008616666,885
0.01028333,909
0.01195,856
0.01361667,803
0.01528333,914
0.01695,878
0.01861667,841
0.02028333,796
0.02195,837
0.02361667,879
0.02528333,862
0.02695,846
0.02861667,951
0.03028333,974
0.03195,998
0.03361667,1036
0.03528333,1084
0.03695,1155
0.03861667,1209
0.04028333,1148
0.04195,1181
0.04361667,1213
0.04528333,1021
0.04695,1102
0.04861667,910
0.05028334,909
0.05195,1100
0.05361667,1044
0.05528333,923
0.05695,911
0.05861667,898
0.06028333,936
0.06195,974
0.06361666,918
0.06528334,862
0.06695,1034
0.06861667,993
0.07028333,973
0.07195,954
0.07361667,871
0.07528333,977
0.07695,978
0.07861666,1058
0.08028334,1031
0.08195,1060
0.08361667,856
0.08528333,881
0.08695,939
0.08861667,996
0.09028333,876
0.09195,757
0.09361666,954
0.09528334,930
0.09695,908
0.09861667,900
0.1002833,892
0.10195,872
0.1036167,871
0.1052833,870
0.10695,1075
0.1086167,1124
0.1102833,1023
0.11195,864
0.1136167,813
0.1152833,984
0.11695,717
0.1186167,924
0.1202833,944
0.12195,949
0.1236167,1030
0.1252833,1037
0.12695,849
0.1286167,1026
0.1302833,1011
0.13195,895
0.1336167,1028
0.1352833,991
0.13695,926
0.1386167,1083
0.1402833,847
0.14195,1066
0.1436167,821
0.1452833,888
0.14695,963
0.1486167,932
0.1502833,1003
0.15195,1011
0.1536167,868
0.1552833,989
0.15695,953
0.1586167,935
0.1602833,917
0.16195,901
0.1636167,884
0.1652833,773
0.16695,943
0.1686167,977
0.1702833,941
0.17195,907
0.1736167,805
0.1752833,1001
0.17695,785
0.1786167,1182
0.1802833,1067
0.18195,840
0.1836167,940
0.1852833,913
0.18695,1001
0.1886167,949
0.1902833,931
0.19195,1006
0.1936167,776
0.1952833,1116
0.19695,965
0.1986167,1103
0.2002833,956
0.20195,880
0.2036167,987
0.2052833,995
0.20695,656
0.2086167,1146
0.2102833,981
0.21195,975
0.2136167,992
0.2152833,990
0.21695,988
0.2186167,1064
0.2202833,1077
0.22195,1061
0.2236167,999
0.2252833,1001
0.22695,1003
0.2286167,977
0.2302833,1159
0.23195,1180
0.2336167,1109
0.2352833,1172
0.23695,1177
0.2386167,1248
0.2402833,1281
0.24195,1227
0.2436167,1222
0.2452833,1274
0.24695,1088
0.2486167,1307
0.2502833,1270
0.25195,1232
0.2536167,983
0.2552833,1395
0.25695,1215
0.2586167,1076
0.2602833,1173
0.26195,1157
0.2636333,1186
0.2652833,1173
0.26695,1009
0.2686167,1028
0.2702833,998
0.27195,1037
0.2736167,1125
0.2752833,1169
0.27695,1154
0.2786167,1163
0.2803,1182
0.28195,1004
0.2836167,1003
0.2852833,1011
0.28695,1055
0.2886167,1039
0.2902833,1024
0.29195,916
0.2936167,1058
0.2952833,977
0.29695,1035
0.2986333,1047
0.3002833,1031
0.30195,1016
0.3036333,1080
0.3052833,1099
0.30695,1119
0.3086167,1139
0.3102833,1189
0.31195,1191
0.3136167,1145
0.3153,1318
0.31695,1298
0.3186167,1278
0.3202833,1332
0.32195,1386
0.3236167,1403
0.3252833,1243
0.32695,1230
0.3286167,1528
0.3302833,1435
0.33195,1243
0.3336333,1304
0.3352833,1196
0.33695,1050
0.3386167,1321
0.3402833,1235
0.34195,1179
0.3436167,1199
0.3452833,977
0.34695,1281
0.3486167,1306
0.3503,1292
0.35195,1211
0.3536167,1254
0.3552833,1337
0.35695,1400
0.3586333,1342
0.3603,1384
0.36195,1341
0.3636167,1232
0.3652833,1862
0.36695,2980
0.3686333,2830
0.3702833,3033
0.3719667,2927
0.3736167,2831
0.3753,2735
0.3769667,2625
0.3786167,2520
0.3802833,2591
0.38195,2631
0.3836167,2670
0.3853,2357
0.3869667,2232
0.3886333,1561
0.3903,1106
0.3919667,1083
0.3936333,834
0.3952833,807
0.3969667,566
0.3986167,526
0.4002833,484
0.40195,583
0.4036333,555
0.4053,696
0.4069667,667
0.4086333,539
0.4103,633
0.4119667,717
0.4136333,604
0.4153,743
0.4169667,812
0.4186333,698
0.4203,609
0.4219667,783
0.4236333,719
0.4253,810
0.4269667,797
0.4286333,785
0.4303,872
0.4319667,881
0.4336333,778
0.4353,675
0.4369667,936
0.4386333,1077
0.4403,928
0.4419667,896
0.4436333,1095
0.4453,1313
0.4469667,1189
0.4486333,1270
0.4503,1098
0.4519667,1122
0.4536333,1323
0.4553,1416
0.4569667,1298
0.4586333,1514
0.4603,1574
0.4619667,1332
0.4636333,1435
0.4653,1470
0.4669667,1485
0.4686333,1612
0.4703,1637
0.4719667,1343
0.4736333,1464
0.4753,1266
0.4769667,1259
0.4786333,1259
0.4803,1250
0.4819667,1241
0.4836333,1241
0.4853,1264
0.4869667,1287
0.4886333,1109
0.4903,1152
0.4919667,1195
0.4936333,1208
0.4953,1337
0.4969667,1374
0.4986333,964
0.5003,1259
0.5019667,1020
0.5036333,1159
0.5053,1107
0.5069667,1118
0.5086333,1162
0.5103,983
0.5119666,1082
0.5136333,1100
0.5153,959
0.5169666,1057
0.5186333,1050
0.5203,972
0.5219667,1176
0.5236334,861
0.5253,837
0.5269667,1079
0.5286334,995
0.5303,1167
0.5319667,1066
0.5336334,1166
0.5353,1214
0.5369667,884
0.5386333,979
0.5403,749
0.5419667,829
0.5436333,831
0.5453,937
0.5469667,1043
0.5486333,1046
0.5503,928
0.5519667,944
0.5536333,842
0.5553,993
0.5569667,1021
0.5586333,896
0.5603,861
0.5619667,766
0.5636333,823
0.5653,880
0.5669667,1035
0.5686333,1033
0.5703,1101
0.5719666,944
0.5736333,996
0.5753,987
0.5769666,926
0.5786333,971
0.5803,988
0.5819666,962
0.5836333,935
0.5853,832
0.5869667,900
0.5886334,1008
0.5903,1069
0.5919667,1022
0.5936334,847
0.5953,1105
0.5969667,991
0.5986333,1186
0.6003,1081
0.6019667,954
0.6036333,1018
0.6053,1001
0.6069667,971
0.6086333,942
0.6103,918
0.6119667,951
0.6136333,984
0.6153,1011
0.6169667,1057
0.6186333,862
0.6203,894
0.6219667,931
0.6236333,909
0.6253,1082
0.6269667,1084
0.6286333,987
0.6303,884
0.6319667,947
0.6336333,990
0.6353,1032
0.6369666,1006
0.6386333,1067
0.6403,874
0.6419666,1046
0.6436333,832
0.6453,1008
0.6469667,1011
0.6486334,885
0.6503,967
0.6519667,943
0.6536334,930
0.6553,899
0.6569667,877
0.6586334,1034
0.6603,1000
0.6619667,1011
0.6636333,856
0.6653,735
0.6669667,1059
0.6686333,809
0.6703,1060
0.6719667,920
0.6736333,1005
0.6753,1009
0.6769667,887
0.6786333,1092
0.6803,892
0.6819667,896
0.6836333,989
0.6853,923
0.6869667,781
0.6886333,903
0.6903,766
0.6919667,711
0.6936333,779
0.6953,812
0.6969666,845
0.6986333,831
0.7003,818
0.7019666,836
0.7036333,854
0.7053,927
0.7069666,944
0.7086333,962
0.7103,892
0.7119667,829
0.7136334,1003
0.7153,858
0.7169667,970
0.7186334,819
0.7203,871
0.7219667,840
0.7236333,863
0.7253,835
0.7269667,830
0.7286333,849
0.7303,851
0.7319667,853
0.7336333,905
0.7353,865
0.7369667,825
0.7386333,873
0.7403,920
0.7419667,944
0.7436333,969
0.7453,995
0.7469667,899
0.7486333,877
0.7503,844
0.7519667,863
0.7536333,926
0.7553,935
0.7569667,931
0.7586333,883
0.7603,926
0.7619666,1018
0.7636333,785
0.7653,788
0.7669666,845
0.7686333,885
0.7703,925
0.7719667,850
0.7736334,749
0.7753,683
0.7769667,804
0.7786334,925
0.7803,982
0.7819667,874
0.7836334,810
0.7853,892
0.7869667,801
0.7886333,763
0.7903,725
0.7919667,721
0.7936333,718
0.7953,715
0.7969667,867
0.7986333,1146
0.8003,1087
0.8019667,826
0.8036333,1036
0.8053,1167
0.8069667,960
0.8086333,820
0.8103,842
0.8119667,882
0.8136333,921
0.8153,918
0.8169667,972
0.8186333,746
0.8203,880
0.8219666,840
0.8236333,801
0.8253,773
0.8269666,825
0.8286333,814
0.8303,802
0.8319666,859
0.8336333,916
0.8353,887
0.8369667,858
0.8386334,914
0.8403,890
0.8419667,854
0.8436334,773
0.8453,928
0.8469667,766
0.8486333,869
0.8503,972
0.8519667,821
0.8536333,966
0.8553,936
0.8569667,945
0.8586333,1082
0.8603,671
0.8619667,884
0.8636333,928
0.8653,978
0.8669667,952
0.8686333,848
0.8703,977
0.8719667,895
0.8736333,928
0.8753,727
0.8769667,739
0.8786333,910
0.8803,1036
0.8819667,1131
0.8836333,1021
0.8853,910
0.8869666,1105
0.8886333,1114
0.8903,1101
0.8919666,1070
0.8936333,1266
0.8953,1268
0.8969667,1233
0.8986334,1210
0.9003,1174
0.9019667,1045
0.9036334,1160
0.9053,1218
0.9069667,1130
0.9086334,1131
0.9103,1143
0.9119667,1155
0.9136333,1194
0.9153,1233
0.9169667,1214
0.9186333,1194
0.9203,1252
0.9219667,1340
0.9236333,1238
0.9253,1136
0.9269667,1217
0.9286333,1186
0.9303,1155
0.9319667,1241
0.9336333,1340
0.9353,1407
0.9369667,1357
0.9386333,1332
0.9403,1485
0.9419667,1095
0.9436333,1263
0.9453,1294
0.9469666,1178
0.9486333,1155
0.9503,926
0.9519666,1276
0.9536333,988
0.9553,1087
0.9569666,1342
0.9586333,1108
0.9603,971
0.9619667,1107
0.9636334,1058
0.9653,979
0.9669667,1206
0.9686334,908
0.9703,632
0.9719667,942
0.9736333,958
0.9753,974
0.9769667,841
0.9786333,895
0.9803,949
0.9819667,830
0.9836333,775
0.9853,899
0.9869667,904
0.9886333,823
0.9903,932
0.9919667,875
0.9936333,925
0.9953,859
0.9969667,795
0.9986333,802
1.0003,776
1.001967,878
1.003633,884
1.0053,890
1.006967,886
1.008633,882
1.0103,859
1.011967,837
1.013633,908
1.0153,907
1.016967,649
1.018633,1088
1.0203,1112
1.021967,882
1.023633,941
1.0253,884
1.026967,858
1.028633,831
1.0303,850
1.031967,757
1.033633,859
1.0353,841
1.036967,823
1.038633,819
1.0403,799
1.041967,778
1.043633,828
1.0453,731
1.046967,782
1.048633,834
1.0503,1017
1.051967,1045
1.053633,767
1.0553,1055
1.056967,850
1.058633,827
1.0603,879
1.061967,931
1.063633,761
1.0653,886
1.066967,941
1.068633,863
1.0703,870
1.071967,762
1.073633,795
1.0753,827
1.076967,871
1.078633,887
1.0803,850
1.081967,809
1.083633,768
1.0853,747
1.086967,1090
1.088633,1025
1.0903,967
1.091967,933
1.093633,995
1.0953,956
1.096967,811
1.098633,881
1.1003,972
1.101967,945
1.103633,814
1.1053,984
1.106967,949
1.108633,873
1.1103,906
1.111967,911
1.113633,916
1.1153,734
1.116967,1145
1.118633,1023
1.1203,1139
1.121967,1009
1.123633,724
1.1253,845
1.126967,778
1.128633,883
1.1303,880
1.131967,1037
1.133633,1017
1.1353,909
1.136967,850
1.138633,1003
1.1403,718
1.141967,762
1.143633,895
1.1453,919
1.146967,901
1.148633,882
1.1503,876
1.151967,899
1.153633,822
1.1553,814
1.156967,756
1.158633,866
1.1603,709
1.161967,844
1.163633,783
1.1653,839
1.166967,778
1.168633,716
1.1703,712
1.171967,740
1.173633,767
1.1753,849
1.176967,916
1.178633,935
1.1803,899
1.181967,881
1.183633,826
1.1853,742
1.186967,933
1.188633,907
1.1903,813
1.191967,750
1.193633,880
1.1953,983
1.196967,983
1.198633,662
