"SampleName","A2Rd2_02-13"
"Target Mass 1",
"Column Name","IA-3 (3um, 4.6X100)"
"Channel","QDa 1: SIR Ch2"
0.00195,429
0.003616667,899
0.005283333,535
0.00695,887
0.008616666,715
0.01028333,1060
0.01195,1031
0.01361667,1125
0.01528333,1171
0.01695,807
0.01861667,847
0.02028333,920
0.02195,959
0.02361667,910
0.02528333,985
0.02695,982
0.02861667,862
0.03028333,859
0.03195,855
0.03361667,991
0.03528333,989
0.03695,1088
0.03861667,993
0.04028333,877
0.04195,915
0.04361667,953
0.04528333,989
0.04695,1025
0.04861667,1004
0.05028334,967
0.05195,929
0.05361667,893
0.05528333,937
0.05695,907
0.05861667,877
0.06028333,874
0.06195,1046
0.06361666,1091
0.06528334,891
0.06695,1059
0.06861667,768
0.07028333,904
0.07195,927
0.07361667,974
0.07528333,934
0.07695,876
0.07861666,847
0.08028334,1031
0.08195,1074
0.08361667,884
0.08528333,1030
0.08695,892
0.08861667,904
0.09028333,758
0.09195,814
0.09361666,871
0.09528334,897
0.09695,924
0.09861667,921
0.1002833,874
0.10195,828
0.1036167,856
0.1052833,858
0.10695,861
0.1086167,916
0.1102833,847
0.11195,777
0.1136167,781
0.1152833,827
0.11695,855
0.1186167,854
0.1202833,852
0.12195,833
0.1236167,917
0.1252833,996
0.12695,696
0.1286167,936
0.1302833,887
0.13195,758
0.1336167,899
0.1352833,848
0.13695,881
0.1386167,914
0.1402833,980
0.14195,961
0.1436167,897
0.1452833,1011
0.14695,912
0.1486167,948
0.1502833,983
0.15195,712
0.1536167,730
0.1552833,938
0.15695,953
0.1586167,985
0.1602833,902
0.16195,893
0.1636167,632
0.1652833,989
0.16695,957
0.1686167,840
0.1702833,829
0.17195,817
0.1736167,950
0.1752833,1012
0.17695,1062
0.1786167,933
0.1802833,848
0.18195,856
0.1836167,725
0.1852833,886
0.18695,636
0.1886167,817
0.1902833,860
0.19195,904
0.1936167,888
0.1952833,940
0.19695,806
0.1986167,918
0.2002833,915
0.20195,1144
0.2036167,1058
0.2052833,892
0.20695,1086
0.2086167,837
0.2102833,917
0.21195,1046
0.2136167,1015
0.2152833,1002
0.21695,974
0.2186167,1044
0.2202833,1062
0.22195,1079
0.2236167,1063
0.2252833,1047
0.22695,1145
0.2286167,1242
0.2302833,1164
0.23195,1087
0.2336167,1167
0.2352833,1255
0.23695,1444
0.2386167,1399
0.2402833,1451
0.24195,1157
0.2436167,1024
0.2452833,1483
0.24695,1106
0.2486167,1155
0.2502833,1189
0.25195,1190
0.2536167,1214
0.2552833,1238
0.25695,1233
0.2586167,1229
0.2602833,1301
0.26195,1271
0.2636333,1242
0.2652833,1182
0.26695,939
0.2686167,1227
0.2702833,1308
0.27195,1091
0.2736167,1159
0.2752833,1068
0.27695,1169
0.2786167,1215
0.2802833,1079
0.28195,1119
0.2836167,1159
0.2852833,983
0.28695,1093
0.2886167,1176
0.2902833,1176
0.29195,1089
0.2936167,800
0.2952833,1351
0.29695,1218
0.2986333,1255
0.3002833,1083
0.30195,1315
0.3036333,1225
0.3052833,1076
0.30695,1415
0.3086333,1344
0.3102833,1100
0.31195,1230
0.3136333,1196
0.3153,1184
0.31695,1171
0.3186167,1142
0.3202833,1114
0.32195,1204
0.3236167,1293
0.3252833,1278
0.32695,1262
0.3286167,1246
0.3302833,1230
0.33195,1330
0.3336333,1358
0.3352833,1175
0.33695,1249
0.3386167,1324
0.3402833,1276
0.34195,1236
0.3436167,1196
0.3452833,1268
0.34695,1273
0.3486167,1279
0.3503,1245
0.35195,1301
0.3536167,1357
0.3552833,1386
0.35695,1396
0.3586167,1406
0.3602833,1290
0.36195,1282
0.3636333,1552
0.3652833,2656
0.36695,3810
0.3686333,4047
0.3703,4287
0.3719667,4602
0.3736167,4639
0.3753,4033
0.3769667,4338
0.3786167,4444
0.3802833,3926
0.38195,3690
0.3836167,3335
0.3853,2334
0.3869667,1577
0.3886167,1307
0.3903,1196
0.39195,830
0.3936333,665
0.3952833,764
0.39695,732
0.3986167,625
0.4002833,439
0.40195,459
0.4036333,405
0.4052833,487
0.4069667,570
0.4086333,588
0.4102833,540
0.4119667,528
0.4136333,515
0.4153,575
0.41695,636
0.4186333,714
0.4203,688
0.4219667,750
0.4236333,553
0.4253,762
0.4269667,717
0.4286333,873
0.4302833,807
0.4319667,815
0.4336167,852
0.4353,710
0.4369667,932
0.4386333,1094
0.4403,972
0.4419667,941
0.4436333,1276
0.4453,1345
0.4469667,1129
0.4486333,1344
0.4503,1148
0.4519667,1352
0.4536333,1386
0.4553,1502
0.4569667,1358
0.4586333,1387
0.4603,1415
0.4619667,1700
0.4636333,1719
0.4653,1738
0.4669667,1476
0.4686333,1636
0.4703,1796
0.4719667,1913
0.4736333,1998
0.4753,1725
0.4769667,1621
0.4786333,1428
0.4803,1435
0.4819667,1885
0.4836333,1882
0.4853,1422
0.4869667,1471
0.4886333,1582
0.4903,1396
0.4919667,1095
0.4936333,1352
0.4953,1297
0.4969667,1202
0.4986333,1306
0.5003,1302
0.5019667,1172
0.5036333,1159
0.5053,1106
0.5069667,1046
0.5086333,928
0.5103,1009
0.5119666,923
0.5136333,908
0.5153,1058
0.5169666,812
0.5186333,1078
0.5203,1001
0.5219667,1052
0.5236334,1074
0.5253,1095
0.5269667,870
0.5286334,1048
0.5303,853
0.5319667,1014
0.5336334,913
0.5353,930
0.5369667,946
0.5386333,837
0.5403,876
0.5419667,914
0.5436333,906
0.5453,899
0.5469667,845
0.5486333,1038
0.5503,939
0.5519667,839
0.5536333,1043
0.5553,996
0.5569667,755
0.5586333,1004
0.5603,902
0.5619667,787
0.5636333,907
0.5653,893
0.5669667,871
0.5686333,849
0.5703,809
0.5719666,981
0.5736333,962
0.5753,1029
0.5769666,925
0.5786333,820
0.5803,913
0.5819666,1232
0.5836333,1285
0.5853,1013
0.5869667,969
0.5886334,1139
0.5903,902
0.5919667,997
0.5936334,1092
0.5953,882
0.5969667,1109
0.5986333,916
0.6003,1012
0.6019667,1004
0.6036333,917
0.6053,830
0.6069667,849
0.6086333,851
0.6103,865
0.6119667,879
0.6136333,909
0.6153,939
0.6169667,927
0.6186333,809
0.6203,925
0.6219667,1012
0.6236333,907
0.6253,836
0.6269667,1028
0.6286333,1033
0.6303,897
0.6319667,754
0.6336333,1079
0.6353,783
0.6369666,877
0.6386333,771
0.6403,913
0.6419666,967
0.6436333,911
0.6453,913
0.6469667,914
0.6486334,890
0.6503,907
0.6519667,969
0.6536334,1006
0.6553,1019
0.6569667,852
0.6586334,839
0.6603,896
0.6619667,893
0.6636333,890
0.6653,867
0.6669667,799
0.6686333,732
0.6703,891
0.6719667,808
0.6736333,794
0.6753,779
0.6769667,898
0.6786333,870
0.6803,841
0.6819667,878
0.6836333,915
0.6853,935
0.6869667,1025
0.6886333,751
0.6903,1004
0.6919667,980
0.6936333,831
0.6953,934
0.6969666,775
0.6986333,832
0.7003,880
0.7019666,928
0.7036333,665
0.7053,871
0.7069666,959
0.7086333,950
0.7103,829
0.7119667,766
0.7136334,891
0.7153,737
0.7169667,911
0.7186334,910
0.7203,692
0.7219667,887
0.7236333,856
0.7253,795
0.7269667,889
0.7286333,866
0.7303,841
0.7319667,816
0.7336333,858
0.7353,900
0.7369667,923
0.7386333,838
0.7403,735
0.7419667,886
0.7436333,732
0.7453,782
0.7469667,907
0.7486333,901
0.7503,889
0.7519667,1034
0.7536333,1042
0.7553,1032
0.7569667,1112
0.7586333,803
0.7603,862
0.7619666,854
0.7636333,897
0.7653,939
0.7669666,913
0.7686333,790
0.7703,971
0.7719667,806
0.7736334,829
0.7753,919
0.7769667,789
0.7786334,945
0.7803,1014
0.7819667,777
0.7836334,564
0.7853,909
0.7869667,876
0.7886333,780
0.7903,789
0.7919667,1001
0.7936333,1064
0.7953,732
0.7969667,817
0.7986333,1052
0.8003,854
0.8019667,917
0.8036333,1097
0.8053,963
0.8069667,766
0.8086333,908
0.8103,821
0.8119667,912
0.8136333,849
0.8153,892
0.8169667,948
0.8186333,820
0.8203,867
0.8219666,830
0.8236333,926
0.8253,918
0.8269666,960
0.8286333,867
0.8303,905
0.8319666,882
0.8336333,813
0.8353,966
0.8369667,925
0.8386334,1014
0.8403,969
0.8419667,946
0.8436334,1002
0.8453,778
0.8469667,804
0.8486333,938
0.8503,861
0.8519667,932
0.8536333,798
0.8553,795
0.8569667,842
0.8586333,842
0.8603,972
0.8619667,1020
0.8636333,1022
0.8653,1015
0.8669667,1001
0.8686333,823
0.8703,890
0.8719667,739
0.8736333,851
0.8753,874
0.8769667,987
0.8786333,1101
0.8803,1277
0.8819667,1420
0.8836333,1344
0.8853,1412
0.8869666,1222
0.8886333,1383
0.8903,1410
0.8919666,1447
0.8936333,1401
0.8953,1497
0.8969667,1442
0.8986334,1387
0.9003,1303
0.9019667,1384
0.9036334,1238
0.9053,1341
0.9069667,1524
0.9086334,1554
0.9103,1369
0.9119667,1490
0.9136333,1297
0.9153,1384
0.9169667,1293
0.9186333,1419
0.9203,1332
0.9219667,1343
0.9236333,1382
0.9253,1293
0.9269667,1358
0.9286333,1108
0.9303,1441
0.9319667,1578
0.9336333,1585
0.9353,1175
0.9369667,1652
0.9386333,1356
0.9403,1565
0.9419667,1405
0.9436333,1336
0.9453,1278
0.9469666,1282
0.9486333,1286
0.9503,1220
0.9519666,1153
0.9536333,1190
0.9553,1228
0.9569666,1167
0.9586333,1200
0.9603,1233
0.9619667,1054
0.9636334,1189
0.9653,926
0.9669667,1207
0.9686334,988
0.9703,995
0.9719667,1058
0.9736333,761
0.9753,1011
0.9769667,1085
0.9786333,942
0.9803,846
0.9819667,734
0.9836333,794
0.9853,956
0.9869667,938
0.9886333,881
0.9903,903
0.9919667,844
0.9936333,805
0.9953,847
0.9969667,763
0.9986333,780
1.0003,798
1.001967,783
1.003633,771
1.0053,903
1.006967,932
1.008633,992
1.0103,1032
1.011967,868
1.013633,774
1.0153,1064
1.016967,776
1.018633,1004
1.0203,877
1.021967,900
1.023633,913
1.0253,988
1.026967,819
1.028633,650
1.0303,842
1.031967,881
1.033633,989
1.0353,864
1.036967,739
1.038633,886
1.0403,721
1.041967,902
1.043633,807
1.0453,786
1.046967,902
1.048633,827
1.0503,786
1.051967,745
1.053633,887
1.0553,847
1.056967,835
1.058633,823
1.0603,793
1.061967,867
1.063633,870
1.0653,873
1.066967,892
1.068633,948
1.0703,952
1.071967,955
1.073633,896
1.0753,1016
1.076967,973
1.078633,711
1.0803,824
1.081967,1004
1.083633,950
1.0853,803
1.086967,834
1.088633,1016
1.0903,943
1.091967,978
1.093633,851
1.0953,752
1.096967,940
1.098633,948
1.1003,872
1.101967,917
1.103633,959
1.1053,1001
1.106967,965
1.108633,930
1.1103,972
1.111967,765
1.113633,763
1.1153,951
1.116967,878
1.118633,805
1.1203,842
1.121967,870
1.123633,927
1.1253,984
1.126967,760
1.128633,751
1.1303,1011
1.131967,853
1.133633,842
1.1353,1016
1.136967,1055
1.138633,742
1.1403,905
1.141967,693
1.143633,954
1.1453,728
1.146967,922
1.148633,729
1.1503,883
1.151967,981
1.153633,965
1.1553,903
1.156967,963
1.158633,767
1.1603,778
1.161967,989
1.163633,977
1.1653,846
1.166967,949
1.168633,710
1.1703,871
1.171967,983
1.173633,924
1.1753,831
1.176967,857
1.178633,646
1.1803,718
1.181967,790
1.183633,855
1.1853,866
1.186967,823
1.188633,803
1.1903,782
1.191967,880
1.193633,872
1.1953,864
1.196967,702
1.198633,891
