"SampleName","A2Rd2_02-62"
"Target Mass 1",
"Column Name","IA-3 (3um, 4.6X100)"
"Channel","QDa 1: SIR Ch1"
0.00195,303
0.003616667,432
0.005283333,537
0.00695,575
0.008616666,589
0.01028333,421
0.01195,549
0.01361667,552
0.01528333,623
0.01695,536
0.01861667,540
0.02028333,545
0.02195,428
0.02361667,357
0.02528333,496
0.02695,513
0.02861667,488
0.03028333,442
0.03195,424
0.03361667,388
0.03528333,426
0.03695,433
0.03861667,405
0.04028333,423
0.04195,414
0.04361667,406
0.04528333,398
0.04695,391
0.04861667,425
0.05028334,398
0.05195,371
0.05361667,467
0.05528333,461
0.05695,455
0.05861667,458
0.06028333,439
0.06195,420
0.06361666,438
0.06528334,431
0.06695,424
0.06861667,401
0.07028333,506
0.07195,298
0.07361667,484
0.07528333,559
0.07695,544
0.07861666,478
0.08028334,402
0.08195,474
0.08361667,464
0.08528333,454
0.08695,400
0.08861667,401
0.09028333,401
0.09195,395
0.09361666,388
0.09528334,403
0.09695,417
0.09861667,441
0.1002833,464
0.10195,466
0.1036167,450
0.1052833,433
0.10695,384
0.1086167,434
0.1102833,503
0.11195,304
0.1136167,392
0.1152833,524
0.11695,407
0.1186167,504
0.1202833,504
0.12195,509
0.1236167,514
0.1252833,445
0.12695,394
0.1286167,458
0.1302833,465
0.13195,473
0.1336167,453
0.1352833,391
0.13695,417
0.1386167,444
0.1402833,306
0.14195,392
0.1436167,507
0.1452833,501
0.14695,467
0.1486167,442
0.1502833,428
0.15195,421
0.1536167,414
0.1552833,388
0.15695,356
0.1586167,381
0.1602833,391
0.16195,400
0.1636167,453
0.1652833,448
0.16695,443
0.1686167,455
0.1702833,468
0.17195,433
0.1736167,397
0.1752833,412
0.17695,427
0.1786167,421
0.1802833,416
0.18195,441
0.1836167,467
0.1852833,288
0.18695,405
0.1886167,411
0.1902833,417
0.19195,427
0.1936167,338
0.1952833,337
0.19695,337
0.1986167,534
0.2002833,492
0.20195,449
0.2036167,465
0.2052833,525
0.20695,488
0.2086167,452
0.2102833,498
0.21195,448
0.2136167,441
0.2152833,500
0.21695,317
0.2186167,332
0.2202833,526
0.22195,520
0.2236167,474
0.2252833,545
0.22695,454
0.2286167,403
0.2302833,468
0.23195,401
0.2336167,410
0.2352833,419
0.23695,420
0.2386167,421
0.2402833,432
0.24195,436
0.2436167,440
0.2453,421
0.24695,330
0.2486167,319
0.2502833,357
0.25195,502
0.2536167,468
0.2552833,452
0.25695,460
0.2586167,386
0.2602833,418
0.26195,450
0.2636333,416
0.2652833,431
0.26695,375
0.2686167,427
0.2702833,429
0.27195,432
0.2736167,451
0.2752833,433
0.27695,416
0.2786167,403
0.2803,462
0.2819667,520
0.2836167,510
0.2852833,537
0.28695,472
0.2886167,444
0.2902833,351
0.29195,483
0.2936167,511
0.2952833,553
0.29695,509
0.2986333,573
0.3002833,483
0.30195,426
0.3036167,479
0.3052833,416
0.30695,368
0.3086167,377
0.3102833,564
0.31195,541
0.3136167,556
0.3153,569
0.31695,582
0.3186167,442
0.3202833,666
0.32195,518
0.3236167,424
0.3252833,580
0.32695,565
0.3286167,640
0.3302833,584
0.3319667,730
0.3336333,418
0.3352833,519
0.3369667,355
0.3386167,514
0.3402833,456
0.34195,343
0.3436167,527
0.3452833,457
0.34695,387
0.3486167,537
0.3503,571
0.35195,362
0.3536333,447
0.3552833,519
0.35695,466
0.3586167,453
0.3602833,439
0.36195,687
0.3636167,752
0.3652833,982
0.36695,1711
0.3686333,2890
0.3703,3691
0.37195,4466
0.3736167,4450
0.3752833,4164
0.37695,4547
0.3786167,5095
0.3802833,4943
0.3819667,5365
0.3836333,5329
0.3853,4636
0.38695,4092
0.3886333,3711
0.3902833,3480
0.3919667,2446
0.3936167,2134
0.3953,1667
0.3969667,1353
0.3986333,1268
0.4003,1124
0.4019667,818
0.4036333,1094
0.4053,886
0.4069667,819
0.4086333,814
0.4103,855
0.4119667,860
0.4136333,866
0.4153,1001
0.4169667,967
0.4186333,1064
0.4203,1075
0.4219667,1041
0.4236333,975
0.4253,943
0.4269667,958
0.4286333,1124
0.4303,1201
0.4319667,1313
0.4336333,1959
0.4353,3237
0.4369667,4615
0.4386333,8416
0.4403,14204
0.4419667,20484
0.4436333,31308
0.4453,44672
0.4469667,60768
0.4486333,77136
0.4503,92992
0.4519667,109744
0.4536333,123168
0.4553,133440
0.4569667,142976
0.4586333,150208
0.4603,155776
0.4619667,157696
0.4636333,159424
0.4653,159168
0.4669667,161984
0.4686333,166592
0.4703,171072
0.4719667,177920
0.4736333,186816
0.4753,192448
0.4769667,197056
0.4786333,198976
0.4803,192192
0.4819667,183808
0.4836333,169408
0.4853,154944
0.4869667,140608
0.4886333,122992
0.4903,107248
0.4919667,91120
0.4936333,75808
0.4953,64128
0.4969667,52912
0.4986333,43392
0.5003,35520
0.5019667,27132
0.5036333,22304
0.5053,18776
0.5069667,15428
0.5086333,12612
0.5103,9772
0.5119666,9144
0.5136333,7476
0.5153,6693
0.5169666,6320
0.5186333,5089
0.5203,4741
0.5219667,3703
0.5236334,4430
0.5253,3763
0.5269667,3573
0.5286334,3193
0.5303,3386
0.5319667,2837
0.5336334,3049
0.5353,2450
0.5369667,2515
0.5386333,2696
0.5403,2544
0.5419667,2229
0.5436333,2464
0.5453,1990
0.5469667,2034
0.5486333,2035
0.5503,1907
0.5519667,1899
0.5536333,1797
0.5553,1732
0.5569667,1735
0.5586333,1767
0.5603,1697
0.5619667,1576
0.5636333,1431
0.5653,1441
0.5669667,1607
0.5686333,1226
0.5703,1773
0.5719666,1502
0.5736333,1453
0.5753,1231
0.5769666,1188
0.5786333,1226
0.5803,1357
0.5819666,1246
0.5836333,1135
0.5853,1233
0.5869667,1149
0.5886334,1332
0.5903,1325
0.5919667,1317
0.5936334,1205
0.5953,1267
0.5969667,1330
0.5986333,1254
0.6003,1055
0.6019667,1141
0.6036333,1107
0.6053,1180
0.6069667,1254
0.6086333,1293
0.6103,1215
0.6119667,1082
0.6136333,1292
0.6153,1184
0.6169667,1095
0.6186333,1058
0.6203,1240
0.6219667,955
0.6236333,1055
0.6253,1126
0.6269667,960
0.6286333,1076
0.6303,995
0.6319667,1113
0.6336333,669
0.6353,1083
0.6369666,675
0.6386333,983
0.6403,852
0.6419666,1061
0.6436333,1123
0.6453,900
0.6469667,1029
0.6486334,836
0.6503,978
0.6519667,997
0.6536334,823
0.6553,820
0.6569667,906
0.6586334,864
0.6603,954
0.6619667,939
0.6636333,877
0.6653,753
0.6669667,880
0.6686333,855
0.6703,787
0.6719667,929
0.6736333,875
0.6753,822
0.6769667,727
0.6786333,841
0.6803,795
0.6819667,930
0.6836333,877
0.6853,780
0.6869667,782
0.6886333,774
0.6903,757
0.6919667,930
0.6936333,934
0.6953,927
0.6969666,636
0.6986333,717
0.7003,757
0.7019666,771
0.7036333,809
0.7053,847
0.7069666,882
0.7086333,872
0.7103,862
0.7119667,724
0.7136334,855
0.7153,716
0.7169667,671
0.7186334,780
0.7203,901
0.7219667,832
0.7236333,897
0.7253,817
0.7269667,570
0.7286333,837
0.7303,829
0.7319667,539
0.7336333,632
0.7353,772
0.7369667,840
0.7386333,880
0.7403,665
0.7419667,756
0.7436333,763
0.7453,815
0.7469667,703
0.7486333,840
0.7503,791
0.7519667,760
0.7536333,768
0.7553,784
0.7569667,747
0.7586333,709
0.7603,779
0.7619666,700
0.7636333,806
0.7653,810
0.7669666,826
0.7686333,814
0.7703,802
0.7719667,738
0.7736334,781
0.7753,824
0.7769667,687
0.7786334,650
0.7803,872
0.7819667,782
0.7836334,727
0.7853,866
0.7869667,955
0.7886333,911
0.7903,824
0.7919667,788
0.7936333,690
0.7953,684
0.7969667,746
0.7986333,744
0.8003,743
0.8019667,739
0.8036333,824
0.8053,769
0.8069667,715
0.8086333,846
0.8103,858
0.8119667,898
0.8136333,893
0.8153,888
0.8169667,826
0.8186333,833
0.8203,840
0.8219666,934
0.8236333,912
0.8253,808
0.8269666,854
0.8286333,763
0.8303,850
0.8319666,793
0.8336333,880
0.8353,810
0.8369667,869
0.8386334,990
0.8403,1010
0.8419667,778
0.8436334,981
0.8453,880
0.8469667,998
0.8486333,991
0.8503,984
0.8519667,845
0.8536333,931
0.8553,901
0.8569667,843
0.8586333,854
0.8603,860
0.8619667,841
0.8636333,857
0.8653,859
0.8669667,757
0.8686333,782
0.8703,719
0.8719667,729
0.8736333,739
0.8753,1162
0.8769667,1418
0.8786333,1920
0.8803,2271
0.8819667,2426
0.8836333,3022
0.8853,2887
0.8869666,3539
0.8886333,3260
0.8903,3057
0.8919666,3144
0.8936333,3228
0.8953,3248
0.8969667,3268
0.8986334,3301
0.9003,3434
0.9019667,3502
0.9036334,3482
0.9053,3461
0.9069667,3461
0.9086334,3461
0.9103,3333
0.9119667,3304
0.9136333,3275
0.9153,3322
0.9169667,3283
0.9186333,3420
0.9203,3322
0.9219667,3224
0.9236333,3358
0.9253,3353
0.9269667,3348
0.9286333,3500
0.9303,3109
0.9319667,2889
0.9336333,3232
0.9353,3052
0.9369667,3025
0.9386333,2777
0.9403,2863
0.9419667,2949
0.9436333,2834
0.9453,2745
0.9469666,2818
0.9486333,2634
0.9503,2570
0.9519666,2518
0.9536333,2138
0.9553,2028
0.9569666,2192
0.9586333,1984
0.9603,2037
0.9619667,1986
0.9636334,1935
0.9653,1773
0.9669667,1448
0.9686334,1458
0.9703,1584
0.9719667,1249
0.9736333,1353
0.9753,1219
0.9769667,1086
0.9786333,1069
0.9803,1181
0.9819667,885
0.9836333,1156
0.9853,1018
0.9869667,1055
0.9886333,746
0.9903,816
0.9919667,804
0.9936333,790
0.9953,776
0.9969667,742
0.9986333,770
1.0003,646
1.001967,616
1.003633,659
1.0053,550
1.006967,664
1.008633,630
1.0103,588
1.011967,715
1.013633,664
1.0153,662
1.016967,660
1.018633,611
1.0203,775
1.021967,805
1.023633,682
1.0253,649
1.026967,728
1.028633,597
1.0303,622
1.031967,547
1.033633,544
1.0353,610
1.036967,772
1.038633,833
1.0403,664
1.041967,735
1.043633,501
1.0453,544
1.046967,549
1.048633,677
1.0503,657
1.051967,637
1.053633,664
1.0553,691
1.056967,692
1.058633,605
1.0603,748
1.061967,543
1.063633,560
1.0653,632
1.066967,663
1.068633,694
1.0703,606
1.071967,548
1.073633,731
1.0753,591
1.076967,699
1.078633,655
1.0803,610
1.081967,616
1.083633,631
1.0853,624
1.086967,617
1.088633,605
1.0903,610
1.091967,615
1.093633,629
1.0953,643
1.096967,592
1.098633,542
1.1003,574
1.101967,607
1.103633,564
1.1053,521
1.106967,640
1.108633,690
1.1103,622
1.111967,765
1.113633,722
1.1153,679
1.116967,589
1.118633,499
1.1203,587
1.121967,750
1.123633,688
1.1253,665
1.126967,704
1.128633,599
1.1303,654
1.131967,554
1.133633,591
1.1353,628
1.136967,555
1.138633,596
1.1403,682
1.141967,706
1.143633,603
1.1453,602
1.146967,732
1.148633,584
1.1503,680
1.151967,894
1.153633,956
1.1553,665
1.156967,836
1.158633,860
1.1603,892
1.161967,676
1.163633,766
1.1653,686
1.166967,779
1.168633,794
1.1703,676
1.171967,787
1.173633,836
1.1753,794
1.176967,753
1.178633,792
1.1803,807
1.181967,741
1.183633,749
1.1853,705
1.186967,733
1.188633,761
1.1903,836
1.191967,997
1.193633,1054
1.1953,868
1.196967,854
1.198633,1022
