"SampleName","A2Rd2_02-43"
"Target Mass 1",
"Column Name","IA-3 (3um, 4.6X100)"
"Channel","QDa 1: SIR Ch2"
0.00195,491
0.003616667,665
0.005283333,733
0.00695,695
0.008616666,881
0.01028333,829
0.01195,917
0.01361667,917
0.01528333,917
0.01695,938
0.01861667,844
0.02028333,809
0.02195,826
0.02361667,843
0.02528333,805
0.02695,767
0.02861667,774
0.03028333,783
0.03195,791
0.03361667,856
0.03528333,920
0.03695,949
0.03861667,880
0.04028333,836
0.04195,792
0.04361667,1023
0.04528333,974
0.04695,1112
0.04861667,911
0.05028334,1009
0.05195,952
0.05361667,876
0.05528333,934
0.05695,684
0.05861667,891
0.06028333,1044
0.06195,908
0.06361666,886
0.06528334,1088
0.06695,756
0.06861667,988
0.07028333,972
0.07195,989
0.07361667,969
0.07528333,1066
0.07695,738
0.07861666,1173
0.08028334,1078
0.08195,907
0.08361667,1003
0.08528333,824
0.08695,822
0.08861667,822
0.09028333,901
0.09195,929
0.09361666,917
0.09528334,904
0.09695,766
0.09861667,844
0.1002833,752
0.10195,997
0.1036167,968
0.1052833,819
0.10695,749
0.1086167,956
0.1102833,822
0.11195,824
0.1136167,826
0.1152833,891
0.11695,950
0.1186167,913
0.1202833,911
0.12195,861
0.1236167,811
0.1252833,845
0.12695,729
0.1286167,729
0.1302833,851
0.13195,892
0.1336167,846
0.1352833,934
0.13695,902
0.1386167,859
0.1402833,919
0.14195,848
0.1436167,777
0.1452833,853
0.14695,930
0.1486167,939
0.1502833,948
0.15195,867
0.1536167,696
0.1552833,777
0.15695,876
0.1586167,945
0.1602833,852
0.16195,651
0.1636167,972
0.1652833,882
0.16695,997
0.1686167,959
0.1702833,970
0.17195,889
0.1736167,843
0.1752833,935
0.17695,792
0.1786167,872
0.1802833,823
0.18195,825
0.1836167,826
0.1852833,839
0.18695,853
0.1886167,902
0.1902833,864
0.19195,826
0.1936167,834
0.1952833,950
0.19695,864
0.1986167,779
0.2002833,1011
0.20195,1012
0.2036167,903
0.2052833,806
0.20695,942
0.2086167,848
0.2102833,865
0.21195,882
0.2136167,908
0.2152833,935
0.21695,940
0.2186167,1122
0.2202833,1273
0.22195,1271
0.2236167,939
0.2252833,991
0.22695,1121
0.2286167,1087
0.2302833,1037
0.23195,1206
0.2336167,1209
0.2352833,1135
0.23695,1061
0.2386167,869
0.2402833,1089
0.24195,1203
0.2436167,1147
0.2452833,1119
0.24695,1149
0.2486167,1179
0.2502833,1151
0.25195,1123
0.2536167,1092
0.2552833,1072
0.25695,1052
0.2586167,1152
0.2602833,974
0.26195,1056
0.2636167,1007
0.2652833,950
0.26695,976
0.2686167,1002
0.2702833,1021
0.27195,1007
0.2736167,994
0.2752833,999
0.27695,1034
0.2786167,1003
0.2803,973
0.28195,850
0.2836333,966
0.2852833,950
0.28695,934
0.2886167,1081
0.2902833,1107
0.29195,1146
0.2936167,1065
0.2952833,920
0.29695,1006
0.2986333,959
0.3002833,911
0.30195,1018
0.3036167,1126
0.3052833,1179
0.30695,1105
0.3086167,1031
0.3102833,1222
0.31195,995
0.3136167,1382
0.3153,1361
0.31695,1192
0.3186167,1341
0.3202833,1413
0.32195,1478
0.3236167,1012
0.3252833,1397
0.32695,1409
0.3286167,1166
0.3302833,1380
0.33195,1331
0.3336333,1437
0.3352833,1112
0.33695,1234
0.3386167,1065
0.3403,1332
0.34195,1274
0.3436167,1280
0.3452833,1286
0.3469667,1255
0.3486333,1224
0.3503,1231
0.35195,1305
0.3536167,1334
0.3552833,1357
0.3569667,1303
0.3586167,1248
0.3603,1168
0.36195,1386
0.3636333,1474
0.3653,2280
0.3669667,2468
0.3686333,3153
0.3703,3451
0.3719667,3356
0.3736333,3192
0.3752833,3031
0.3769667,3016
0.3786167,3097
0.3803,2579
0.3819667,2611
0.3836333,2576
0.3853,1989
0.3869667,1798
0.3886333,1335
0.3903,1359
0.39195,979
0.3936333,674
0.3952833,560
0.3969667,681
0.3986333,487
0.4003,700
0.40195,589
0.4036333,562
0.4053,602
0.4069667,605
0.4086167,622
0.4103,496
0.41195,571
0.4136333,517
0.4153,603
0.4169667,618
0.4186167,632
0.4203,758
0.4219667,766
0.4236333,742
0.4253,719
0.4269667,749
0.4286333,779
0.4303,564
0.4319667,762
0.4336333,816
0.4353,974
0.4369667,889
0.4386333,906
0.4403,1088
0.4419667,1114
0.4436333,1099
0.4453,1013
0.4469667,1093
0.4486333,1078
0.4503,980
0.4519667,1258
0.4536333,1205
0.4553,1135
0.4569667,1370
0.4586333,1431
0.4603,1243
0.4619667,1344
0.4636333,1413
0.4653,1170
0.4669667,1174
0.4686333,1237
0.4703,1206
0.4719667,1174
0.4736333,1132
0.4753,1308
0.4769667,1337
0.4786333,1309
0.4803,1257
0.4819667,1205
0.4836333,1265
0.4853,1244
0.4869667,1224
0.4886333,1101
0.4903,1242
0.4919667,1333
0.4936333,930
0.4953,1221
0.4969667,1083
0.4986333,896
0.5003,918
0.5019667,959
0.5036333,961
0.5053,941
0.5069667,920
0.5086333,930
0.5103,984
0.5119666,988
0.5136333,1025
0.5153,1027
0.5169666,942
0.5186333,1004
0.5203,1032
0.5219667,861
0.5236334,895
0.5253,976
0.5269667,938
0.5286334,900
0.5303,937
0.5319667,974
0.5336334,930
0.5353,886
0.5369667,1071
0.5386333,1027
0.5403,1004
0.5419667,1079
0.5436333,792
0.5453,868
0.5469667,1020
0.5486333,1063
0.5503,972
0.5519667,863
0.5536333,971
0.5553,890
0.5569667,1110
0.5586333,1131
0.5603,854
0.5619667,773
0.5636333,925
0.5653,978
0.5669667,1093
0.5686333,1134
0.5703,827
0.5719666,1076
0.5736333,1217
0.5753,750
0.5769666,790
0.5786333,993
0.5803,880
0.5819666,1011
0.5836333,943
0.5853,882
0.5869667,755
0.5886334,866
0.5903,976
0.5919667,1001
0.5936334,993
0.5953,950
0.5969667,847
0.5986333,934
0.6003,884
0.6019667,822
0.6036333,938
0.6053,936
0.6069667,943
0.6086333,816
0.6103,834
0.6119667,851
0.6136333,808
0.6153,881
0.6169667,955
0.6186333,986
0.6203,896
0.6219667,1026
0.6236333,799
0.6253,883
0.6269667,1081
0.6286333,842
0.6303,982
0.6319667,841
0.6336333,978
0.6353,946
0.6369666,914
0.6386333,955
0.6403,930
0.6419666,904
0.6436333,732
0.6453,845
0.6469667,735
0.6486334,725
0.6503,715
0.6519667,717
0.6536334,719
0.6553,867
0.6569667,873
0.6586334,878
0.6603,717
0.6619667,751
0.6636333,784
0.6653,817
0.6669667,851
0.6686333,868
0.6703,917
0.6719667,753
0.6736333,906
0.6753,793
0.6769667,679
0.6786333,792
0.6803,1019
0.6819667,966
0.6836333,892
0.6853,938
0.6869667,917
0.6886333,915
0.6903,838
0.6919667,893
0.6936333,948
0.6953,980
0.6969666,1013
0.6986333,954
0.7003,970
0.7019666,986
0.7036333,964
0.7053,941
0.7069666,1013
0.7086333,1046
0.7103,1000
0.7119667,955
0.7136334,983
0.7153,1058
0.7169667,1064
0.7186334,881
0.7203,1181
0.7219667,863
0.7236333,865
0.7253,987
0.7269667,1039
0.7286333,1030
0.7303,943
0.7319667,949
0.7336333,1013
0.7353,751
0.7369667,834
0.7386333,824
0.7403,909
0.7419667,937
0.7436333,712
0.7453,873
0.7469667,822
0.7486333,806
0.7503,790
0.7519667,813
0.7536333,1004
0.7553,1024
0.7569667,879
0.7586333,911
0.7603,960
0.7619666,823
0.7636333,744
0.7653,811
0.7669666,903
0.7686333,839
0.7703,775
0.7719667,895
0.7736334,888
0.7753,884
0.7769667,737
0.7786334,874
0.7803,829
0.7819667,823
0.7836334,817
0.7853,849
0.7869667,882
0.7886333,1031
0.7903,966
0.7919667,901
0.7936333,1068
0.7953,1111
0.7969667,1192
0.7986333,1177
0.8003,1248
0.8019667,1208
0.8036333,1167
0.8053,1149
0.8069667,1184
0.8086333,1274
0.8103,1178
0.8119667,1081
0.8136333,1243
0.8153,1081
0.8169667,1114
0.8186333,1269
0.8203,1211
0.8219666,1154
0.8236333,1289
0.8253,1328
0.8269666,1191
0.8286333,1282
0.8303,1372
0.8319666,1012
0.8336333,1280
0.8353,1193
0.8369667,995
0.8386334,935
0.8403,1111
0.8419667,1018
0.8436334,1038
0.8453,815
0.8469667,1022
0.8486333,918
0.8503,1026
0.8519667,1187
0.8536333,707
0.8553,930
0.8569667,981
0.8586333,949
0.8603,940
0.8619667,978
0.8636333,1042
0.8653,829
0.8669667,899
0.8686333,970
0.8703,980
0.8719667,836
0.8736333,837
0.8753,761
0.8769667,785
0.8786333,829
0.8803,872
0.8819667,1031
0.8836333,1014
0.8853,1205
0.8869666,1354
0.8886333,1216
0.8903,1208
0.8919666,944
0.8936333,1253
0.8953,1208
0.8969667,1139
0.8986334,1088
0.9003,1089
0.9019667,1134
0.9036334,1036
0.9053,938
0.9069667,1325
0.9086334,1255
0.9103,1180
0.9119667,1227
0.9136333,1108
0.9153,1096
0.9169667,1247
0.9186333,1151
0.9203,1212
0.9219667,1146
0.9236333,952
0.9253,1018
0.9269667,1266
0.9286333,1237
0.9303,1196
0.9319667,1247
0.9336333,1202
0.9353,1071
0.9369667,1047
0.9386333,1135
0.9403,1044
0.9419667,1026
0.9436333,1338
0.9453,1444
0.9469666,1011
0.9486333,1288
0.9503,994
0.9519666,972
0.9536333,1098
0.9553,971
0.9569666,1052
0.9586333,984
0.9603,1140
0.9619667,1162
0.9636334,1129
0.9653,856
0.9669667,1089
0.9686334,1026
0.9703,899
0.9719667,931
0.9736333,963
0.9753,959
0.9769667,954
0.9786333,1084
0.9803,1092
0.9819667,1099
0.9836333,1040
0.9853,1069
0.9869667,1099
0.9886333,1092
0.9903,1020
0.9919667,939
0.9936333,977
0.9953,1166
0.9969667,1117
0.9986333,1162
1.0003,1155
1.001967,1168
1.003633,1097
1.0053,1092
1.006967,1089
1.008633,1067
1.0103,1062
1.011967,1058
1.013633,1025
1.0153,1083
1.016967,977
1.018633,1031
1.0203,1057
1.021967,1083
1.023633,1001
1.0253,1039
1.026967,1097
1.028633,1155
1.0303,1143
1.031967,1062
1.033633,1143
1.0353,991
1.036967,990
1.038633,1126
1.0403,1087
1.041967,1047
1.043633,968
1.0453,877
1.046967,896
1.048633,954
1.0503,1054
1.051967,1008
1.053633,923
1.0553,1031
1.056967,991
1.058633,904
1.0603,961
1.061967,900
1.063633,915
1.0653,1087
1.066967,1073
1.068633,1217
1.0703,879
1.071967,868
1.073633,787
1.0753,941
1.076967,954
1.078633,1153
1.0803,1057
1.081967,1023
1.083633,995
1.0853,1001
1.086967,865
1.088633,765
1.0903,989
1.091967,926
1.093633,989
1.0953,801
1.096967,883
1.098633,1106
1.1003,989
1.101967,1050
1.103633,1111
1.1053,973
1.106967,1160
1.108633,936
1.1103,1138
1.111967,989
1.113633,743
1.1153,1257
1.116967,1086
1.118633,811
1.1203,910
1.121967,930
1.123633,959
1.1253,939
1.126967,919
1.128633,831
1.1303,892
1.131967,820
1.133633,823
1.1353,825
1.136967,881
1.138633,836
1.1403,790
1.141967,679
1.143633,867
1.1453,910
1.146967,858
1.148633,828
1.1503,693
1.151967,1065
1.153633,957
1.1553,633
1.156967,818
1.158633,799
1.1603,749
1.161967,698
1.163633,943
1.1653,859
1.166967,775
1.168633,862
1.1703,830
1.171967,798
1.173633,692
1.1753,695
1.176967,698
1.178633,772
1.1803,846
1.181967,871
1.183633,811
1.1853,666
1.186967,891
1.188633,786
1.1903,922
1.191967,854
1.193633,960
1.1953,789
1.196967,993
1.198633,974
