"SampleName","A2Rd2_02-67"
"Target Mass 1",
"Column Name","IA-3 (3um, 4.6X100)"
"Channel","QDa 1: SIR Ch1"
0.00195,384
0.003616667,586
0.005283333,427
0.00695,594
0.008616666,708
0.01028333,611
0.01195,596
0.01361667,549
0.01528333,463
0.01695,545
0.01861667,557
0.02028333,507
0.02195,566
0.02361667,604
0.02528333,590
0.02695,569
0.02861667,667
0.03028333,496
0.03195,623
0.03361667,495
0.03528333,434
0.03695,554
0.03861667,521
0.04028333,488
0.04195,470
0.04361667,382
0.04528333,460
0.04695,398
0.04861667,424
0.05028334,604
0.05195,610
0.05361667,520
0.05528333,515
0.05695,466
0.05861667,529
0.06028333,555
0.06195,593
0.06361666,571
0.06528334,524
0.06695,582
0.06861667,496
0.07028333,450
0.07195,597
0.07361667,633
0.07528333,589
0.07695,484
0.07861666,536
0.08028334,607
0.08195,438
0.08361667,522
0.08528333,505
0.08695,449
0.08861667,445
0.09028333,368
0.09195,539
0.09361666,513
0.09528334,600
0.09695,572
0.09861667,466
0.1002833,618
0.10195,628
0.1036167,461
0.1052833,590
0.10695,600
0.1086167,406
0.1102833,503
0.11195,604
0.1136167,588
0.1152833,616
0.11695,621
0.1186167,528
0.1202833,469
0.12195,407
0.1236167,469
0.1252833,531
0.12695,593
0.1286167,567
0.1302833,629
0.13195,599
0.1336167,424
0.1352833,592
0.13695,600
0.1386167,597
0.1402833,441
0.14195,571
0.1436167,580
0.1452833,567
0.14695,388
0.1486167,605
0.1502833,574
0.15195,548
0.1536167,587
0.1552833,605
0.15695,616
0.1586167,457
0.1602833,544
0.16195,493
0.1636167,425
0.1652833,427
0.16695,480
0.1686167,405
0.1702833,481
0.17195,433
0.1736167,543
0.1752833,507
0.17695,471
0.1786167,525
0.1802833,483
0.18195,512
0.1836167,540
0.1852833,523
0.18695,577
0.1886167,458
0.1902833,443
0.19195,464
0.1936167,398
0.1952833,561
0.19695,523
0.1986167,450
0.2002833,443
0.20195,543
0.2036167,471
0.2052833,489
0.20695,507
0.2086167,471
0.2102833,496
0.21195,521
0.2136167,466
0.2152833,499
0.21695,494
0.2186167,436
0.2202833,362
0.22195,506
0.2236167,560
0.2252833,455
0.22695,453
0.2286167,450
0.2302833,496
0.23195,555
0.2336167,575
0.2352833,480
0.23695,524
0.2386167,465
0.2402833,508
0.24195,519
0.2436167,474
0.2452833,444
0.24695,487
0.2486167,475
0.2502833,515
0.25195,488
0.2536167,560
0.2552833,536
0.25695,508
0.2586167,400
0.2602833,597
0.26195,476
0.2636167,424
0.2652833,682
0.26695,593
0.2686167,434
0.2702833,492
0.27195,584
0.2736167,566
0.2752833,483
0.27695,461
0.2786167,610
0.2802833,605
0.28195,489
0.2836167,396
0.2852833,592
0.28695,522
0.2886167,626
0.2902833,685
0.29195,641
0.2936167,662
0.2952833,519
0.29695,591
0.2986333,484
0.3002833,464
0.30195,586
0.3036167,556
0.3052833,401
0.30695,500
0.3086167,553
0.3102833,607
0.31195,645
0.3136167,681
0.3153,615
0.3169667,531
0.3186167,481
0.3202833,609
0.32195,546
0.3236167,627
0.3252833,565
0.32695,488
0.3286167,667
0.3302833,587
0.33195,501
0.3336333,591
0.3352833,573
0.3369667,538
0.3386167,509
0.3402833,633
0.34195,598
0.3436167,632
0.3452833,388
0.34695,647
0.3486167,558
0.3503,666
0.35195,597
0.3536167,507
0.3553,545
0.35695,582
0.3586333,545
0.3602833,591
0.36195,637
0.3636167,967
0.3652833,1107
0.3669667,1514
0.3686333,3077
0.3702833,3625
0.3719667,3761
0.3736167,3563
0.3753,3595
0.37695,3637
0.3786167,4245
0.3802833,4513
0.38195,4435
0.3836333,4358
0.3853,4378
0.3869667,3562
0.3886333,3120
0.3902833,2729
0.3919667,2359
0.3936167,2095
0.3952833,1453
0.39695,1398
0.3986167,1299
0.4003,1272
0.4019667,1026
0.4036333,1276
0.4053,1146
0.4069667,1302
0.4086333,1111
0.4102833,1077
0.41195,1044
0.4136333,1081
0.4152833,1119
0.4169667,1166
0.4186333,1214
0.4203,1339
0.4219667,1464
0.4236333,1615
0.4253,1593
0.4269667,1628
0.4286167,1601
0.4302833,1957
0.43195,1936
0.4336333,2055
0.4353,3197
0.4369667,5111
0.4386333,8348
0.4403,13740
0.4419667,20580
0.4436333,30224
0.4453,42384
0.4469667,53120
0.4486333,70784
0.4503,82944
0.4519667,98176
0.4536333,111504
0.4553,124176
0.4569667,132608
0.4586333,135488
0.4603,139328
0.4619667,143616
0.4636333,145408
0.4653,141632
0.4669667,147328
0.4686333,147712
0.4703,153600
0.4719667,158848
0.4736333,161472
0.4753,171776
0.4769667,176000
0.4786333,179392
0.4803,179072
0.4819667,177600
0.4836333,167104
0.4853,153280
0.4869667,141888
0.4886333,121904
0.4903,107456
0.4919667,91248
0.4936333,76864
0.4953,62336
0.4969667,53888
0.4986333,43648
0.5003,36464
0.5019667,29296
0.5036333,22988
0.5053,18556
0.5069667,15252
0.5086333,13272
0.5103,10556
0.5119666,8792
0.5136333,7316
0.5153,6744
0.5169666,6051
0.5186333,5521
0.5203,4612
0.5219667,4730
0.5236334,4205
0.5253,3585
0.5269667,3551
0.5286334,3557
0.5303,3123
0.5319667,3364
0.5336334,3094
0.5353,2653
0.5369667,2639
0.5386333,2812
0.5403,2134
0.5419667,2623
0.5436333,2159
0.5453,2451
0.5469667,2121
0.5486333,2137
0.5503,2130
0.5519667,2081
0.5536333,2029
0.5553,2108
0.5569667,1760
0.5586333,1937
0.5603,1726
0.5619667,1893
0.5636333,1832
0.5653,1784
0.5669667,1607
0.5686333,1712
0.5703,1573
0.5719666,1593
0.5736333,1448
0.5753,1478
0.5769666,1181
0.5786333,1250
0.5803,1531
0.5819666,1505
0.5836333,1148
0.5853,1266
0.5869667,1621
0.5886334,1388
0.5903,1337
0.5919667,1313
0.5936334,1217
0.5953,1336
0.5969667,1187
0.5986333,1138
0.6003,1085
0.6019667,1415
0.6036333,1384
0.6053,1250
0.6069667,1283
0.6086333,1315
0.6103,1366
0.6119667,1114
0.6136333,1182
0.6153,1302
0.6169667,1202
0.6186333,1085
0.6203,1278
0.6219667,1329
0.6236333,1264
0.6253,962
0.6269667,1258
0.6286333,1225
0.6303,1183
0.6319667,1127
0.6336333,1018
0.6353,1050
0.6369666,1061
0.6386333,1055
0.6403,998
0.6419666,940
0.6436333,1087
0.6453,896
0.6469667,772
0.6486334,1111
0.6503,952
0.6519667,985
0.6536334,843
0.6553,983
0.6569667,1112
0.6586334,697
0.6603,889
0.6619667,847
0.6636333,786
0.6653,787
0.6669667,771
0.6686333,871
0.6703,810
0.6719667,749
0.6736333,770
0.6753,794
0.6769667,777
0.6786333,760
0.6803,810
0.6819667,888
0.6836333,918
0.6853,958
0.6869667,987
0.6886333,939
0.6903,839
0.6919667,683
0.6936333,919
0.6953,798
0.6969666,866
0.6986333,688
0.7003,691
0.7019666,659
0.7036333,796
0.7053,774
0.7069666,717
0.7086333,724
0.7103,731
0.7119667,663
0.7136334,717
0.7153,652
0.7169667,743
0.7186334,721
0.7203,601
0.7219667,797
0.7236333,623
0.7253,545
0.7269667,514
0.7286333,561
0.7303,608
0.7319667,582
0.7336333,555
0.7353,706
0.7369667,708
0.7386333,643
0.7403,658
0.7419667,688
0.7436333,810
0.7453,783
0.7469667,771
0.7486333,730
0.7503,735
0.7519667,755
0.7536333,759
0.7553,612
0.7569667,666
0.7586333,700
0.7603,748
0.7619666,563
0.7636333,622
0.7653,603
0.7669666,569
0.7686333,536
0.7703,547
0.7719667,559
0.7736334,665
0.7753,611
0.7769667,557
0.7786334,752
0.7803,776
0.7819667,613
0.7836334,670
0.7853,603
0.7869667,600
0.7886333,592
0.7903,653
0.7919667,714
0.7936333,676
0.7953,736
0.7969667,557
0.7986333,692
0.8003,504
0.8019667,622
0.8036333,534
0.8053,592
0.8069667,650
0.8086333,555
0.8103,591
0.8119667,563
0.8136333,568
0.8153,574
0.8169667,562
0.8186333,551
0.8203,611
0.8219666,560
0.8236333,510
0.8253,642
0.8269666,723
0.8286333,642
0.8303,571
0.8319666,735
0.8336333,612
0.8353,713
0.8369667,618
0.8386334,526
0.8403,617
0.8419667,681
0.8436334,725
0.8453,567
0.8469667,713
0.8486333,766
0.8503,580
0.8519667,591
0.8536333,728
0.8553,520
0.8569667,604
0.8586333,451
0.8603,596
0.8619667,499
0.8636333,530
0.8653,532
0.8669667,542
0.8686333,552
0.8703,559
0.8719667,566
0.8736333,513
0.8753,615
0.8769667,702
0.8786333,882
0.8803,906
0.8819667,1085
0.8836333,1399
0.8853,1315
0.8869666,1408
0.8886333,1347
0.8903,1286
0.8919666,1406
0.8936333,1526
0.8953,1521
0.8969667,1411
0.8986334,1472
0.9003,1532
0.9019667,1508
0.9036334,1483
0.9053,1485
0.9069667,1486
0.9086334,1593
0.9103,1354
0.9119667,1649
0.9136333,1547
0.9153,1805
0.9169667,1950
0.9186333,1437
0.9203,1633
0.9219667,1566
0.9236333,1464
0.9253,1544
0.9269667,1624
0.9286333,1681
0.9303,1444
0.9319667,1652
0.9336333,1575
0.9353,1403
0.9369667,1582
0.9386333,1694
0.9403,1435
0.9419667,1422
0.9436333,1588
0.9453,1390
0.9469666,1551
0.9486333,1498
0.9503,1354
0.9519666,1058
0.9536333,1326
0.9553,1214
0.9569666,1051
0.9586333,982
0.9603,1137
0.9619667,1078
0.9636334,1036
0.9653,903
0.9669667,931
0.9686334,891
0.9703,924
0.9719667,956
0.9736333,1039
0.9753,783
0.9769667,853
0.9786333,691
0.9803,698
0.9819667,627
0.9836333,671
0.9853,672
0.9869667,627
0.9886333,632
0.9903,603
0.9919667,624
0.9936333,540
0.9953,516
0.9969667,488
0.9986333,660
1.0003,716
1.001967,550
1.003633,534
1.0053,626
1.006967,522
1.008633,332
1.0103,400
1.011967,402
1.013633,403
1.0153,376
1.016967,414
1.018633,585
1.0203,635
1.021967,580
1.023633,530
1.0253,573
1.026967,547
1.028633,385
1.0303,477
1.031967,527
1.033633,471
1.0353,396
1.036967,433
1.038633,438
1.0403,419
1.041967,399
1.043633,572
1.0453,570
1.046967,443
1.048633,602
1.0503,450
1.051967,519
1.053633,502
1.0553,480
1.056967,465
1.058633,369
1.0603,517
1.061967,606
1.063633,577
1.0653,495
1.066967,499
1.068633,503
1.0703,327
1.071967,310
1.073633,467
1.0753,481
1.076967,559
1.078633,446
1.0803,561
1.081967,479
1.083633,471
1.0853,465
1.086967,459
1.088633,643
1.0903,635
1.091967,648
1.093633,578
1.0953,415
1.096967,447
1.098633,594
1.1003,514
1.101967,434
1.103633,570
1.1053,566
1.106967,455
1.108633,464
1.1103,490
1.111967,446
1.113633,401
1.1153,508
1.116967,611
1.118633,614
1.1203,483
1.121967,505
1.123633,523
1.1253,493
1.126967,446
1.128633,411
1.1303,492
1.131967,596
1.133633,553
1.1353,475
1.136967,443
1.138633,475
1.1403,458
1.141967,440
1.143633,485
1.1453,530
1.146967,508
1.148633,485
1.1503,566
1.151967,496
1.153633,426
1.1553,388
1.156967,611
1.158633,550
1.1603,433
1.161967,555
1.163633,528
1.1653,503
1.166967,535
1.168633,563
1.1703,548
1.171967,533
1.173633,456
1.1753,450
1.176967,639
1.178633,603
1.1803,612
1.181967,596
1.183633,509
1.1853,614
1.186967,546
1.188633,506
1.1903,500
1.191967,493
1.193633,330
1.1953,451
1.196967,622
1.198633,684
