"SampleName","A2Rd2_02-70"
"Target Mass 1",
"Column Name","IA-3 (3um, 4.6X100)"
"Channel","QDa 1: SIR Ch1"
0.00195,271
0.003616667,671
0.005283333,559
0.00695,592
0.008616666,593
0.01028333,533
0.01195,517
0.01361667,505
0.01528333,386
0.01695,507
0.01861667,625
0.02028333,668
0.02195,536
0.02361667,596
0.02528333,512
0.02695,524
0.02861667,536
0.03028333,515
0.03195,493
0.03361667,539
0.03528333,516
0.03695,494
0.03861667,532
0.04028333,503
0.04195,571
0.04361667,600
0.04528333,615
0.04695,512
0.04861667,637
0.05028334,537
0.05195,452
0.05361667,633
0.05528333,568
0.05695,562
0.05861667,605
0.06028333,560
0.06195,510
0.06361666,616
0.06528334,573
0.06695,504
0.06861667,571
0.07028333,551
0.07195,458
0.07361667,477
0.07528333,539
0.07695,515
0.07861666,491
0.08028334,571
0.08195,456
0.08361667,468
0.08528333,525
0.08695,581
0.08861667,578
0.09028333,629
0.09195,611
0.09361666,594
0.09528334,515
0.09695,586
0.09861667,526
0.1002833,507
0.10195,538
0.1036167,530
0.1052833,544
0.10695,537
0.1086167,530
0.1102833,560
0.11195,590
0.1136167,468
0.1152833,524
0.11695,442
0.1186167,466
0.1202833,615
0.12195,595
0.1236167,686
0.1252833,674
0.12695,605
0.1286167,579
0.1302833,469
0.13195,573
0.1336167,527
0.1352833,480
0.13695,553
0.1386167,536
0.1402833,519
0.14195,511
0.1436167,359
0.1452833,610
0.14695,578
0.1486167,411
0.1502833,534
0.15195,664
0.1536167,429
0.1552833,507
0.15695,537
0.1586167,586
0.1602833,529
0.16195,502
0.1636167,471
0.1652833,374
0.16695,497
0.1686167,496
0.1702833,496
0.17195,494
0.1736167,493
0.1752833,463
0.17695,433
0.1786167,447
0.1802833,508
0.18195,485
0.1836167,462
0.1852833,497
0.18695,532
0.1886167,521
0.1902833,510
0.19195,415
0.1936167,509
0.1952833,369
0.19695,471
0.1986167,473
0.2002833,475
0.20195,481
0.2036167,487
0.2052833,492
0.20695,418
0.2086167,437
0.2102833,455
0.21195,444
0.2136167,433
0.2152833,474
0.21695,515
0.2186167,491
0.2202833,466
0.22195,447
0.2236167,426
0.2252833,405
0.22695,403
0.2286333,401
0.2302833,424
0.23195,448
0.2336167,527
0.2352833,552
0.23695,502
0.2386167,453
0.2402833,612
0.24195,649
0.2436167,484
0.2452833,425
0.24695,494
0.2486167,591
0.2502833,560
0.25195,534
0.2536167,555
0.2552833,473
0.25695,574
0.2586167,508
0.2602833,545
0.26195,466
0.2636333,376
0.2652833,559
0.26695,603
0.2686167,607
0.2702833,397
0.27195,600
0.2736167,498
0.2752833,471
0.27695,510
0.2786167,549
0.2803,616
0.28195,567
0.2836167,380
0.2852833,572
0.28695,447
0.2886167,514
0.2902833,493
0.29195,608
0.2936167,572
0.2952833,494
0.29695,583
0.2986333,462
0.3002833,537
0.30195,445
0.3036167,535
0.3053,543
0.30695,520
0.3086167,543
0.3102833,566
0.3119667,594
0.3136167,605
0.3153,621
0.31695,582
0.3186333,474
0.3202833,613
0.32195,541
0.3236167,556
0.3252833,537
0.3269667,467
0.3286167,398
0.3302833,532
0.33195,428
0.3336333,451
0.3353,474
0.33695,435
0.3386167,480
0.3402833,527
0.34195,525
0.3436333,523
0.3452833,454
0.34695,422
0.3486167,606
0.3503,543
0.3519667,452
0.3536333,504
0.3553,571
0.3569667,638
0.3586167,738
0.3603,695
0.36195,734
0.3636333,895
0.3653,1358
0.3669667,1930
0.3686333,2704
0.3703,3835
0.3719667,3706
0.3736333,3923
0.3752833,3858
0.3769667,3771
0.3786167,4008
0.3803,4245
0.38195,4428
0.3836333,4750
0.3853,4867
0.3869667,3645
0.3886333,3716
0.3903,2626
0.3919667,2233
0.3936333,1840
0.3953,1709
0.3969667,1261
0.3986333,1322
0.4003,1311
0.4019667,1234
0.4036333,1161
0.4053,876
0.4069667,879
0.4086333,1027
0.4103,1014
0.4119667,945
0.4136333,1163
0.4153,1164
0.4169667,1106
0.4186333,1172
0.4203,1239
0.4219667,1265
0.4236333,1291
0.4253,1249
0.4269667,1163
0.4286333,1304
0.4303,1273
0.4319667,1535
0.4336333,2131
0.4353,2657
0.4369667,4627
0.4386333,7465
0.4403,12140
0.4419667,18876
0.4436333,27016
0.4453,41392
0.4469667,53904
0.4486333,68624
0.4503,85104
0.4519667,100096
0.4536333,115024
0.4553,124288
0.4569667,132544
0.4586333,139776
0.4603,144192
0.4619667,148736
0.4636333,145984
0.4653,145728
0.4669667,148800
0.4686333,152192
0.4703,154944
0.4719667,158592
0.4736333,169792
0.4753,173504
0.4769667,177088
0.4786333,179008
0.4803,179456
0.4819667,174656
0.4836333,159744
0.4853,151168
0.4869667,132608
0.4886333,120000
0.4903,105216
0.4919667,89488
0.4936333,77184
0.4953,63888
0.4969667,50192
0.4986333,40688
0.5003,35088
0.5019667,27612
0.5036333,22572
0.5053,18692
0.5069667,15664
0.5086333,12700
0.5103,11060
0.5119666,7990
0.5136333,7793
0.5153,6325
0.5169666,6183
0.5186333,5262
0.5203,4434
0.5219667,4193
0.5236334,4257
0.5253,4485
0.5269667,3582
0.5286334,3217
0.5303,3250
0.5319667,2497
0.5336334,2983
0.5353,2835
0.5369667,2654
0.5386333,2165
0.5403,2408
0.5419667,2355
0.5436333,2032
0.5453,2238
0.5469667,2050
0.5486333,2221
0.5503,1712
0.5519667,2140
0.5536333,1766
0.5553,1428
0.5569667,1604
0.5586333,1681
0.5603,1692
0.5619667,1716
0.5636333,1741
0.5653,1861
0.5669667,1481
0.5686333,1522
0.5703,1652
0.5719666,1479
0.5736333,1504
0.5753,1421
0.5769666,1307
0.5786333,1474
0.5803,1340
0.5819666,1275
0.5836333,1469
0.5853,1388
0.5869667,1387
0.5886334,1393
0.5903,1231
0.5919667,1548
0.5936334,1456
0.5953,1379
0.5969667,1418
0.5986333,1510
0.6003,1073
0.6019667,1257
0.6036333,1219
0.6053,1119
0.6069667,1067
0.6086333,1240
0.6103,1174
0.6119667,1266
0.6136333,1278
0.6153,1265
0.6169667,1253
0.6186333,1234
0.6203,926
0.6219667,1328
0.6236333,1225
0.6253,1225
0.6269667,1154
0.6286333,1357
0.6303,997
0.6319667,1074
0.6336333,1118
0.6353,935
0.6369666,962
0.6386333,900
0.6403,1110
0.6419666,1129
0.6436333,862
0.6453,909
0.6469667,1068
0.6486334,890
0.6503,868
0.6519667,1087
0.6536334,969
0.6553,1039
0.6569667,795
0.6586334,1054
0.6603,1037
0.6619667,1019
0.6636333,926
0.6653,899
0.6669667,1015
0.6686333,789
0.6703,860
0.6719667,1002
0.6736333,983
0.6753,859
0.6769667,951
0.6786333,818
0.6803,774
0.6819667,730
0.6836333,702
0.6853,760
0.6869667,792
0.6886333,818
0.6903,750
0.6919667,703
0.6936333,912
0.6953,900
0.6969666,922
0.6986333,895
0.7003,849
0.7019666,897
0.7036333,657
0.7053,755
0.7069666,853
0.7086333,887
0.7103,974
0.7119667,882
0.7136334,979
0.7153,864
0.7169667,845
0.7186334,927
0.7203,761
0.7219667,861
0.7236333,777
0.7253,971
0.7269667,928
0.7286333,885
0.7303,855
0.7319667,891
0.7336333,804
0.7353,786
0.7369667,840
0.7386333,710
0.7403,881
0.7419667,973
0.7436333,866
0.7453,981
0.7469667,916
0.7486333,850
0.7503,956
0.7519667,1033
0.7536333,1060
0.7553,924
0.7569667,755
0.7586333,893
0.7603,813
0.7619666,810
0.7636333,852
0.7653,839
0.7669666,827
0.7686333,866
0.7703,870
0.7719667,856
0.7736334,781
0.7753,873
0.7769667,848
0.7786334,823
0.7803,754
0.7819667,829
0.7836334,771
0.7853,712
0.7869667,951
0.7886333,934
0.7903,880
0.7919667,839
0.7936333,948
0.7953,861
0.7969667,799
0.7986333,884
0.8003,830
0.8019667,883
0.8036333,715
0.8053,946
0.8069667,1086
0.8086333,1030
0.8103,789
0.8119667,961
0.8136333,947
0.8153,814
0.8169667,896
0.8186333,978
0.8203,949
0.8219666,944
0.8236333,939
0.8253,952
0.8269666,965
0.8286333,738
0.8303,1061
0.8319666,1006
0.8336333,1078
0.8353,1024
0.8369667,1123
0.8386334,917
0.8403,957
0.8419667,1124
0.8436334,1109
0.8453,1094
0.8469667,1070
0.8486333,1001
0.8503,1024
0.8519667,1046
0.8536333,1053
0.8553,1022
0.8569667,856
0.8586333,1007
0.8603,950
0.8619667,1034
0.8636333,930
0.8653,820
0.8669667,846
0.8686333,903
0.8703,743
0.8719667,725
0.8736333,917
0.8753,1182
0.8769667,1781
0.8786333,2105
0.8803,2530
0.8819667,2949
0.8836333,2979
0.8853,3877
0.8869666,3853
0.8886333,3734
0.8903,3748
0.8919666,3899
0.8936333,4050
0.8953,4091
0.8969667,4038
0.8986334,3836
0.9003,3820
0.9019667,3848
0.9036334,3876
0.9053,4012
0.9069667,4176
0.9086334,4097
0.9103,4233
0.9119667,4103
0.9136333,3974
0.9153,4058
0.9169667,4189
0.9186333,4101
0.9203,3902
0.9219667,3946
0.9236333,3990
0.9253,3869
0.9269667,3553
0.9286333,3790
0.9303,3669
0.9319667,3691
0.9336333,3712
0.9353,3427
0.9369667,3372
0.9386333,3256
0.9403,3269
0.9419667,3037
0.9436333,2914
0.9453,3004
0.9469666,3054
0.9486333,2627
0.9503,3043
0.9519666,2883
0.9536333,2703
0.9553,2075
0.9569666,2342
0.9586333,1940
0.9603,2382
0.9619667,1848
0.9636334,1868
0.9653,1841
0.9669667,1757
0.9686334,1481
0.9703,1503
0.9719667,1472
0.9736333,1294
0.9753,1295
0.9769667,1331
0.9786333,1023
0.9803,1066
0.9819667,1024
0.9836333,1190
0.9853,795
0.9869667,925
0.9886333,814
0.9903,774
0.9919667,927
0.9936333,672
0.9953,656
0.9969667,680
0.9986333,627
1.0003,749
1.001967,548
1.003633,713
1.0053,753
1.006967,789
1.008633,715
1.0103,464
1.011967,814
1.013633,639
1.0153,773
1.016967,510
1.018633,663
1.0203,658
1.021967,575
1.023633,573
1.0253,572
1.026967,557
1.028633,543
1.0303,533
1.031967,744
1.033633,740
1.0353,678
1.036967,731
1.038633,599
1.0403,638
1.041967,629
1.043633,621
1.0453,696
1.046967,630
1.048633,565
1.0503,690
1.051967,605
1.053633,750
1.0553,702
1.056967,577
1.058633,746
1.0603,636
1.061967,791
1.063633,685
1.0653,657
1.066967,608
1.068633,678
1.0703,492
1.071967,516
1.073633,540
1.0753,554
1.076967,568
1.078633,511
1.0803,546
1.081967,581
1.083633,611
1.0853,640
1.086967,641
1.088633,619
1.0903,598
1.091967,674
1.093633,751
1.0953,765
1.096967,673
1.098633,793
1.1003,740
1.101967,687
1.103633,649
1.1053,595
1.106967,750
1.108633,548
1.1103,773
1.111967,582
1.113633,616
1.1153,649
1.116967,645
1.118633,604
1.1203,583
1.121967,780
1.123633,693
1.1253,605
1.126967,539
1.128633,526
1.1303,518
1.131967,511
1.133633,717
1.1353,732
1.136967,746
1.138633,715
1.1403,683
1.141967,756
1.143633,741
1.1453,721
1.146967,799
1.148633,818
1.1503,811
1.151967,804
1.153633,741
1.1553,586
1.156967,739
1.158633,843
1.1603,761
1.161967,693
1.163633,876
1.1653,914
1.166967,886
1.168633,922
1.1703,823
1.171967,853
1.173633,882
1.1753,892
1.176967,816
1.178633,931
1.1803,792
1.181967,736
1.183633,904
1.1853,730
1.186967,980
1.188633,936
1.1903,776
1.191967,868
1.193633,885
1.1953,901
1.196967,929
1.198633,958
