"SampleName","A2Rd2_02-75"
"Target Mass 1",
"Column Name","IA-3 (3um, 4.6X100)"
"Channel","QDa 1: SIR Ch2"
0.00195,477
0.003616667,523
0.005283333,769
0.00695,974
0.008616666,790
0.01028333,695
0.01195,833
0.01361667,826
0.01528333,778
0.01695,888
0.01861667,948
0.02028333,1039
0.02195,1049
0.02361667,747
0.02528333,1018
0.02695,1070
0.02861667,939
0.03028333,978
0.03195,933
0.03361667,1019
0.03528333,671
0.03695,909
0.03861667,863
0.04028333,923
0.04195,973
0.04361667,1023
0.04528333,1013
0.04695,1004
0.04861667,770
0.05028334,934
0.05195,945
0.05361667,807
0.05528333,981
0.05695,972
0.05861667,890
0.06028333,1037
0.06195,722
0.06361666,917
0.06528334,1065
0.06695,1104
0.06861667,1033
0.07028333,1001
0.07195,941
0.07361667,973
0.07528333,831
0.07695,913
0.07861666,877
0.08028334,894
0.08195,918
0.08361667,996
0.08528333,961
0.08695,925
0.08861667,870
0.09028333,986
0.09195,843
0.09361666,802
0.09528334,946
0.09695,844
0.09861667,857
0.1002833,894
0.10195,881
0.1036167,869
0.1052833,835
0.10695,862
0.1086167,816
0.1102833,839
0.11195,871
0.1136167,923
0.1152833,912
0.11695,901
0.1186167,849
0.1202833,797
0.12195,896
0.1236167,883
0.1252833,874
0.12695,865
0.1286167,911
0.1302833,958
0.13195,964
0.1336167,939
0.1352833,739
0.13695,698
0.1386167,855
0.1402833,861
0.14195,867
0.1436167,879
0.1452833,874
0.14695,870
0.1486167,743
0.1502833,849
0.15195,678
0.1536167,953
0.1552833,955
0.15695,854
0.1586167,866
0.1602833,878
0.16195,859
0.1636167,840
0.1652833,860
0.16695,825
0.1686167,789
0.1702833,902
0.17195,677
0.1736167,808
0.1752833,760
0.17695,973
0.1786167,919
0.1802833,727
0.18195,730
0.1836167,728
0.1852833,726
0.18695,686
0.1886167,830
0.1902833,846
0.19195,863
0.1936167,829
0.1952833,826
0.19695,823
0.1986167,971
0.2002833,913
0.20195,856
0.2036167,721
0.2052833,882
0.20695,1003
0.2086167,916
0.2102833,870
0.21195,824
0.2136167,863
0.2152833,898
0.21695,933
0.2186167,1023
0.2202833,1146
0.22195,1119
0.2236167,994
0.2252833,1306
0.22695,1223
0.2286167,1175
0.2302833,1124
0.23195,1153
0.2336167,979
0.2352833,1047
0.23695,1186
0.2386167,1007
0.2402833,1089
0.24195,1094
0.2436167,1098
0.2452833,1009
0.24695,1084
0.2486167,1044
0.2502833,1198
0.25195,1340
0.2536167,1258
0.2552833,1198
0.25695,1310
0.2586167,1059
0.2602833,1162
0.26195,829
0.2636167,1002
0.2652833,1035
0.26695,982
0.2686167,928
0.2702833,952
0.27195,914
0.2736167,875
0.2752833,876
0.27695,982
0.2786167,1029
0.2803,986
0.28195,990
0.2836167,993
0.2852833,1044
0.28695,831
0.2886167,876
0.2902833,896
0.29195,961
0.2936167,958
0.2952833,956
0.29695,1047
0.2986333,1046
0.3002833,910
0.30195,973
0.3036167,1035
0.3052833,1017
0.30695,1090
0.3086167,1048
0.3102833,1007
0.31195,1199
0.3136167,1198
0.3153,1197
0.31695,1290
0.3186167,1289
0.3203,1304
0.32195,1233
0.3236167,1182
0.3252833,1334
0.32695,1025
0.3286167,1106
0.3302833,1140
0.33195,1152
0.3336333,1183
0.3352833,1215
0.3369667,1080
0.3386167,1380
0.3402833,1411
0.34195,1293
0.3436333,1176
0.3452833,1170
0.34695,1099
0.3486167,1114
0.3503,1130
0.35195,1149
0.3536333,1233
0.3552833,1240
0.3569667,1261
0.3586333,1264
0.3603,1268
0.36195,1520
0.3636333,1548
0.3652833,2092
0.3669667,3057
0.3686333,3404
0.3703,3580
0.3719667,3191
0.3736333,3540
0.3753,2498
0.3769667,2806
0.3786167,2693
0.3803,2645
0.38195,2692
0.3836333,2739
0.3853,2244
0.3869667,1932
0.3886333,1722
0.3903,1439
0.3919667,1129
0.3936333,758
0.3953,643
0.3969667,558
0.3986333,589
0.4003,536
0.4019667,393
0.4036333,504
0.4053,498
0.4069667,535
0.4086333,578
0.4103,582
0.4119667,512
0.4136333,552
0.4153,610
0.4169667,668
0.4186333,615
0.4203,578
0.4219667,643
0.4236333,593
0.4253,818
0.4269667,903
0.4286333,872
0.4303,855
0.4319667,772
0.4336333,673
0.4353,678
0.4369667,892
0.4386333,906
0.4403,747
0.4419667,889
0.4436333,1031
0.4453,1280
0.4469667,1221
0.4486333,1329
0.4503,1272
0.4519667,1216
0.4536333,1386
0.4553,1384
0.4569667,1382
0.4586333,1311
0.4603,1311
0.4619667,1310
0.4636333,1253
0.4653,1196
0.4669667,1588
0.4686333,1691
0.4703,1409
0.4719667,1765
0.4736333,1754
0.4753,1591
0.4769667,1500
0.4786333,1423
0.4803,1541
0.4819667,1545
0.4836333,1305
0.4853,1278
0.4869667,1408
0.4886333,1349
0.4903,1360
0.4919667,1372
0.4936333,1129
0.4953,1440
0.4969667,1156
0.4986333,1134
0.5003,1138
0.5019667,1208
0.5036333,1227
0.5053,836
0.5069667,1082
0.5086333,897
0.5103,879
0.5119666,1170
0.5136333,697
0.5153,928
0.5169666,820
0.5186333,754
0.5203,938
0.5219667,898
0.5236334,842
0.5253,787
0.5269667,806
0.5286334,825
0.5303,1130
0.5319667,1129
0.5336334,1035
0.5353,797
0.5369667,798
0.5386333,767
0.5403,887
0.5419667,855
0.5436333,822
0.5453,879
0.5469667,936
0.5486333,897
0.5503,858
0.5519667,945
0.5536333,882
0.5553,809
0.5569667,807
0.5586333,826
0.5603,845
0.5619667,859
0.5636333,829
0.5653,799
0.5669667,887
0.5686333,904
0.5703,921
0.5719666,957
0.5736333,946
0.5753,935
0.5769666,932
0.5786333,928
0.5803,860
0.5819666,855
0.5836333,944
0.5853,888
0.5869667,951
0.5886334,952
0.5903,909
0.5919667,810
0.5936334,996
0.5953,1017
0.5969667,773
0.5986333,986
0.6003,745
0.6019667,956
0.6036333,935
0.6053,1010
0.6069667,696
0.6086333,1065
0.6103,837
0.6119667,1062
0.6136333,946
0.6153,1074
0.6169667,1047
0.6186333,870
0.6203,939
0.6219667,764
0.6236333,823
0.6253,799
0.6269667,789
0.6286333,832
0.6303,795
0.6319667,839
0.6336333,882
0.6353,856
0.6369666,829
0.6386333,825
0.6403,808
0.6419666,851
0.6436333,894
0.6453,1009
0.6469667,959
0.6486334,835
0.6503,903
0.6519667,909
0.6536334,813
0.6553,842
0.6569667,871
0.6586334,881
0.6603,958
0.6619667,1040
0.6636333,1020
0.6653,897
0.6669667,978
0.6686333,911
0.6703,813
0.6719667,772
0.6736333,810
0.6753,696
0.6769667,738
0.6786333,760
0.6803,745
0.6819667,729
0.6836333,671
0.6853,613
0.6869667,851
0.6886333,884
0.6903,924
0.6919667,636
0.6936333,798
0.6953,825
0.6969666,615
0.6986333,701
0.7003,983
0.7019666,1158
0.7036333,919
0.7053,855
0.7069666,693
0.7086333,727
0.7103,851
0.7119667,794
0.7136334,904
0.7153,839
0.7169667,773
0.7186334,939
0.7203,976
0.7219667,1189
0.7236333,1097
0.7253,783
0.7269667,942
0.7286333,916
0.7303,719
0.7319667,990
0.7336333,860
0.7353,763
0.7369667,1063
0.7386333,968
0.7403,768
0.7419667,770
0.7436333,840
0.7453,852
0.7469667,864
0.7486333,816
0.7503,808
0.7519667,800
0.7536333,822
0.7553,845
0.7569667,878
0.7586333,850
0.7603,821
0.7619666,835
0.7636333,811
0.7653,837
0.7669666,844
0.7686333,851
0.7703,901
0.7719667,908
0.7736334,753
0.7753,815
0.7769667,619
0.7786334,870
0.7803,940
0.7819667,850
0.7836334,696
0.7853,883
0.7869667,749
0.7886333,913
0.7903,896
0.7919667,845
0.7936333,936
0.7953,804
0.7969667,856
0.7986333,955
0.8003,764
0.8019667,811
0.8036333,930
0.8053,869
0.8069667,890
0.8086333,861
0.8103,899
0.8119667,938
0.8136333,859
0.8153,780
0.8169667,866
0.8186333,730
0.8203,987
0.8219666,982
0.8236333,1043
0.8253,989
0.8269666,857
0.8286333,815
0.8303,814
0.8319666,957
0.8336333,985
0.8353,905
0.8369667,892
0.8386334,821
0.8403,892
0.8419667,891
0.8436334,892
0.8453,761
0.8469667,808
0.8486333,861
0.8503,692
0.8519667,862
0.8536333,945
0.8553,964
0.8569667,952
0.8586333,779
0.8603,966
0.8619667,927
0.8636333,888
0.8653,638
0.8669667,922
0.8686333,866
0.8703,762
0.8719667,898
0.8736333,978
0.8753,900
0.8769667,827
0.8786333,949
0.8803,1021
0.8819667,959
0.8836333,959
0.8853,959
0.8869666,1082
0.8886333,1204
0.8903,1180
0.8919666,1229
0.8936333,1110
0.8953,1064
0.8969667,1126
0.8986334,1150
0.9003,1109
0.9019667,1156
0.9036334,1102
0.9053,1093
0.9069667,1138
0.9086334,1183
0.9103,1019
0.9119667,1087
0.9136333,1126
0.9153,1177
0.9169667,1233
0.9186333,1202
0.9203,1095
0.9219667,1078
0.9236333,867
0.9253,935
0.9269667,1004
0.9286333,996
0.9303,987
0.9319667,1003
0.9336333,1060
0.9353,1116
0.9369667,1178
0.9386333,1225
0.9403,1048
0.9419667,989
0.9436333,1138
0.9453,1122
0.9469666,1105
0.9486333,1260
0.9503,1282
0.9519666,1117
0.9536333,1323
0.9553,1031
0.9569666,781
0.9586333,905
0.9603,1171
0.9619667,1231
0.9636334,1104
0.9653,904
0.9669667,967
0.9686334,1074
0.9703,904
0.9719667,911
0.9736333,760
0.9753,815
0.9769667,869
0.9786333,782
0.9803,812
0.9819667,703
0.9836333,762
0.9853,896
0.9869667,833
0.9886333,667
0.9903,819
0.9919667,828
0.9936333,757
0.9953,747
0.9969667,690
0.9986333,554
1.0003,760
1.001967,869
1.003633,916
1.0053,829
1.006967,882
1.008633,909
1.0103,852
1.011967,601
1.013633,836
1.0153,739
1.016967,875
1.018633,872
1.0203,874
1.021967,832
1.023633,928
1.0253,772
1.026967,775
1.028633,1018
1.0303,954
1.031967,689
1.033633,689
1.0353,792
1.036967,787
1.038633,782
1.0403,845
1.041967,817
1.043633,789
1.0453,848
1.046967,907
1.048633,916
1.0503,748
1.051967,718
1.053633,918
1.0553,1085
1.056967,1104
1.058633,856
1.0603,861
1.061967,827
1.063633,858
1.0653,889
1.066967,744
1.068633,818
1.0703,761
1.071967,902
1.073633,1107
1.0753,1018
1.076967,886
1.078633,931
1.0803,857
1.081967,844
1.083633,865
1.0853,887
1.086967,796
1.088633,847
1.0903,895
1.091967,977
1.093633,1086
1.0953,733
1.096967,845
1.098633,757
1.1003,763
1.101967,886
1.103633,908
1.1053,930
1.106967,781
1.108633,808
1.1103,828
1.111967,776
1.113633,794
1.1153,813
1.116967,871
1.118633,868
1.1203,684
1.121967,785
1.123633,929
1.1253,918
1.126967,652
1.128633,636
1.1303,895
1.131967,861
1.133633,952
1.1353,912
1.136967,859
1.138633,722
1.1403,988
1.141967,737
1.143633,812
1.1453,811
1.146967,829
1.148633,846
1.1503,862
1.151967,722
1.153633,854
1.1553,790
1.156967,726
1.158633,758
1.1603,789
1.161967,821
1.163633,852
1.1653,721
1.166967,738
1.168633,750
1.1703,761
1.171967,869
1.173633,840
1.1753,764
1.176967,913
1.178633,864
1.1803,755
1.181967,714
1.183633,670
1.1853,753
1.186967,721
1.188633,690
1.1903,708
1.191967,726
1.193633,706
1.1953,763
1.196967,836
1.198633,871
