"SampleName","A2Rd2_02-41"
"Target Mass 1",
"Column Name","IA-3 (3um, 4.6X100)"
"Channel","QDa 1: SIR Ch2"
0.00195,545
0.003616667,606
0.005283333,626
0.00695,729
0.008616666,667
0.01028333,605
0.01195,742
0.01361667,880
0.01528333,905
0.01695,930
0.01861667,704
0.02028333,867
0.02195,839
0.02361667,794
0.02528333,833
0.02695,871
0.02861667,814
0.03028333,758
0.03195,812
0.03361667,866
0.03528333,938
0.03695,1047
0.03861667,994
0.04028333,949
0.04195,990
0.04361667,922
0.04528333,977
0.04695,1054
0.04861667,1101
0.05028334,988
0.05195,983
0.05361667,981
0.05528333,817
0.05695,889
0.05861667,924
0.06028333,805
0.06195,885
0.06361666,857
0.06528334,925
0.06695,715
0.06861667,856
0.07028333,826
0.07195,871
0.07361667,869
0.07528333,867
0.07695,882
0.07861666,897
0.08028334,1057
0.08195,1055
0.08361667,1054
0.08528333,1072
0.08695,653
0.08861667,1000
0.09028333,1058
0.09195,767
0.09361666,895
0.09528334,803
0.09695,877
0.09861667,894
0.1002833,896
0.10195,897
0.1036167,660
0.1052833,785
0.10695,687
0.1086167,735
0.1102833,783
0.11195,916
0.1136167,855
0.1152833,858
0.11695,813
0.1186167,768
0.1202833,813
0.12195,793
0.1236167,773
0.1252833,822
0.12695,871
0.1286167,840
0.1302833,810
0.13195,869
0.1336167,784
0.1352833,740
0.13695,667
0.1386167,743
0.1402833,799
0.14195,854
0.1436167,752
0.1452833,759
0.14695,765
0.1486167,849
0.1502833,806
0.15195,763
0.1536167,875
0.1552833,903
0.15695,942
0.1586167,894
0.1602833,775
0.16195,825
0.1636167,800
0.1652833,758
0.16695,812
0.1686167,792
0.1702833,772
0.17195,786
0.1736167,801
0.1752833,828
0.17695,847
0.1786167,741
0.1802833,683
0.18195,727
0.1836167,814
0.1852833,789
0.18695,765
0.1886167,981
0.1902833,961
0.19195,1004
0.1936333,896
0.1952833,903
0.19695,930
0.1986167,921
0.2002833,912
0.20195,862
0.2036167,673
0.2052833,925
0.20695,741
0.2086167,951
0.2103,877
0.2119667,914
0.2136167,906
0.2152833,962
0.21695,981
0.2186167,1000
0.2203,861
0.22195,1086
0.2236167,1085
0.2252833,1024
0.22695,963
0.2286333,1017
0.2302833,1061
0.23195,814
0.2336167,987
0.2352833,1245
0.2369667,1209
0.2386167,1212
0.2402833,1010
0.24195,1230
0.2436333,1205
0.2453,1322
0.2469667,1178
0.2486333,1030
0.2503,1128
0.25195,1142
0.2536333,1114
0.2552833,1120
0.2569667,1126
0.2586333,1073
0.2603,1019
0.2619667,1090
0.2636333,1160
0.2652833,943
0.2669667,965
0.2686167,1192
0.2703,1145
0.27195,1081
0.2736333,1142
0.2753,849
0.2769667,1061
0.2786333,984
0.2803,978
0.2819667,1029
0.2836333,795
0.2852833,1016
0.2869667,1119
0.2886333,1034
0.2903,1046
0.2919667,995
0.2936333,1003
0.2953,1011
0.2969667,1073
0.2986333,1017
0.3003,961
0.3019667,1057
0.3036333,1085
0.3053,974
0.3069667,1029
0.3086333,979
0.3103,1098
0.3119667,1279
0.3136333,1370
0.3153,980
0.3169667,1236
0.3186333,1413
0.3203,1270
0.3219667,1458
0.3236333,1369
0.3253,1023
0.3269667,1145
0.3286333,1081
0.3303,927
0.3319667,1198
0.3336333,996
0.3353,1231
0.3369667,1102
0.3386333,1170
0.3403,1157
0.3419667,1491
0.3436333,1472
0.3453,1420
0.3469667,1140
0.3486333,1242
0.3503,1499
0.3519667,1450
0.3536333,1396
0.3553,1223
0.3569667,1401
0.3586333,1529
0.3603,1508
0.3619667,1290
0.3636333,1597
0.3653,2180
0.3669667,2989
0.3686333,3162
0.3703,3281
0.3719667,3067
0.3736333,3342
0.3753,3281
0.3769667,2846
0.3786333,3238
0.3803,3082
0.3819667,2715
0.3836333,2522
0.3853,2023
0.3869667,2122
0.3886333,1416
0.3903,1244
0.3919667,914
0.3936333,911
0.3953,601
0.3969667,650
0.3986333,493
0.4003,429
0.4019667,475
0.4036333,512
0.4053,494
0.4069667,486
0.4086333,543
0.4103,601
0.4119667,639
0.4136333,583
0.4153,556
0.4169667,530
0.4186333,553
0.4203,576
0.4219667,622
0.4236333,614
0.4253,647
0.4269667,680
0.4286333,733
0.4303,515
0.4319667,753
0.4336333,927
0.4353,1065
0.4369667,897
0.4386333,1091
0.4403,988
0.4419667,945
0.4436333,982
0.4453,1104
0.4469667,1129
0.4486333,1154
0.4503,1157
0.4519667,1160
0.4536333,1291
0.4553,1728
0.4569667,1629
0.4586333,1373
0.4603,1311
0.4619667,1459
0.4636333,1666
0.4653,1650
0.4669667,1510
0.4686333,1682
0.4703,1580
0.4719667,1663
0.4736333,1630
0.4753,1538
0.4769667,1302
0.4786333,1598
0.4803,1527
0.4819667,1456
0.4836333,1263
0.4853,1555
0.4869667,1571
0.4886333,1462
0.4903,1411
0.4919667,1382
0.4936333,1294
0.4953,1096
0.4969667,1116
0.4986333,1176
0.5003,1043
0.5019667,1087
0.5036333,1146
0.5053,1149
0.5069667,849
0.5086333,931
0.5103,981
0.5119666,974
0.5136333,967
0.5153,961
0.5169666,896
0.5186333,912
0.5203,928
0.5219667,947
0.5236334,926
0.5253,819
0.5269667,1032
0.5286334,940
0.5303,1084
0.5319667,867
0.5336334,985
0.5353,830
0.5369667,984
0.5386333,1059
0.5403,1062
0.5419667,1002
0.5436333,908
0.5453,1081
0.5469667,1041
0.5486333,1163
0.5503,1268
0.5519667,1244
0.5536333,986
0.5553,1027
0.5569667,1009
0.5586333,1013
0.5603,1093
0.5619667,915
0.5636333,974
0.5653,945
0.5669667,916
0.5686333,1018
0.5703,752
0.5719666,805
0.5736333,859
0.5753,876
0.5769666,1125
0.5786333,1103
0.5803,874
0.5819666,958
0.5836333,759
0.5853,1087
0.5869667,969
0.5886334,959
0.5903,920
0.5919667,1032
0.5936334,995
0.5953,957
0.5969667,954
0.5986333,883
0.6003,998
0.6019667,863
0.6036333,997
0.6053,784
0.6069667,850
0.6086333,1032
0.6103,960
0.6119667,909
0.6136333,896
0.6153,1091
0.6169667,1084
0.6186333,1175
0.6203,1117
0.6219667,1261
0.6236333,1212
0.6253,946
0.6269667,983
0.6286333,1088
0.6303,950
0.6319667,1112
0.6336333,1139
0.6353,1223
0.6369666,1318
0.6386333,968
0.6403,1173
0.6419666,1274
0.6436333,1274
0.6453,1133
0.6469667,1209
0.6486334,1375
0.6503,1020
0.6519667,1185
0.6536334,1136
0.6553,1110
0.6569667,1159
0.6586334,1208
0.6603,1199
0.6619667,1173
0.6636333,1120
0.6653,1126
0.6669667,1107
0.6686333,1198
0.6703,1599
0.6719667,1531
0.6736333,1876
0.6753,2447
0.6769667,3091
0.6786333,4085
0.6803,5390
0.6819667,6287
0.6836333,7803
0.6853,9920
0.6869667,11396
0.6886333,14040
0.6903,14604
0.6919667,19252
0.6936333,19508
0.6953,21604
0.6969666,24456
0.6986333,23988
0.7003,25420
0.7019666,26180
0.7036333,27084
0.7053,27188
0.7069666,25928
0.7086333,25128
0.7103,25112
0.7119667,25484
0.7136334,23872
0.7153,24228
0.7169667,22864
0.7186334,24064
0.7203,23088
0.7219667,22744
0.7236333,22184
0.7253,20056
0.7269667,18608
0.7286333,17444
0.7303,16508
0.7319667,14828
0.7336333,12768
0.7353,11284
0.7369667,10464
0.7386333,9420
0.7403,7775
0.7419667,7058
0.7436333,5735
0.7453,5077
0.7469667,4778
0.7486333,4351
0.7503,3499
0.7519667,3089
0.7536333,3123
0.7553,2688
0.7569667,2340
0.7586333,2561
0.7603,2596
0.7619666,2114
0.7636333,2185
0.7653,2278
0.7669666,1564
0.7686333,1873
0.7703,1700
0.7719667,1462
0.7736334,1953
0.7753,1896
0.7769667,1830
0.7786334,1743
0.7803,2196
0.7819667,2262
0.7836334,2275
0.7853,3155
0.7869667,3354
0.7886333,4137
0.7903,4544
0.7919667,4858
0.7936333,5538
0.7953,6034
0.7969667,5932
0.7986333,7084
0.8003,7580
0.8019667,8208
0.8036333,7674
0.8053,7568
0.8069667,7991
0.8086333,7991
0.8103,7991
0.8119667,8137
0.8136333,8067
0.8153,7997
0.8169667,7956
0.8186333,7391
0.8203,7779
0.8219666,8025
0.8236333,7530
0.8253,6339
0.8269666,7406
0.8286333,7393
0.8303,7589
0.8319666,6677
0.8336333,6570
0.8353,6351
0.8369667,5962
0.8386334,4865
0.8403,5246
0.8419667,4503
0.8436334,4054
0.8453,3766
0.8469667,3799
0.8486333,3315
0.8503,2982
0.8519667,3340
0.8536333,2644
0.8553,2312
0.8569667,2290
0.8586333,1976
0.8603,1977
0.8619667,1978
0.8636333,1694
0.8653,1484
0.8669667,1713
0.8686333,1754
0.8703,1607
0.8719667,1422
0.8736333,1464
0.8753,1531
0.8769667,1339
0.8786333,1386
0.8803,1553
0.8819667,1521
0.8836333,1674
0.8853,1583
0.8869666,1670
0.8886333,1617
0.8903,1564
0.8919666,1652
0.8936333,1639
0.8953,1627
0.8969667,1901
0.8986334,1875
0.9003,1762
0.9019667,1772
0.9036334,1677
0.9053,1756
0.9069667,1796
0.9086334,1779
0.9103,1772
0.9119667,1734
0.9136333,1484
0.9153,1630
0.9169667,1470
0.9186333,1591
0.9203,1543
0.9219667,1308
0.9236333,1450
0.9253,1337
0.9269667,1370
0.9286333,1439
0.9303,1393
0.9319667,1348
0.9336333,1215
0.9353,1584
0.9369667,1537
0.9386333,1259
0.9403,1407
0.9419667,1494
0.9436333,1372
0.9453,1426
0.9469666,1479
0.9486333,1682
0.9503,2032
0.9519666,2491
0.9536333,2439
0.9553,2802
0.9569666,3606
0.9586333,3783
0.9603,5263
0.9619667,6283
0.9636334,8564
0.9653,9664
0.9669667,11776
0.9686334,13584
0.9703,17016
0.9719667,18744
0.9736333,20860
0.9753,24232
0.9769667,27088
0.9786333,32436
0.9803,32684
0.9819667,35984
0.9836333,39984
0.9853,42144
0.9869667,42832
0.9886333,46272
0.9903,46032
0.9919667,47312
0.9936333,48000
0.9953,49120
0.9969667,47952
0.9986333,46560
1.0003,49152
1.001967,47680
1.003633,45936
1.0053,47136
1.006967,46160
1.008633,47616
1.0103,48160
1.011967,46576
1.013633,48144
1.0153,47824
1.016967,48192
1.018633,47968
1.0203,47760
1.021967,47248
1.023633,45696
1.0253,45584
1.026967,43824
1.028633,43424
1.0303,41504
1.031967,37680
1.033633,35120
1.0353,33792
1.036967,30352
1.038633,28304
1.0403,26172
1.041967,24884
1.043633,23256
1.0453,21676
1.046967,21648
1.048633,20172
1.0503,20024
1.051967,19348
1.053633,18596
1.0553,19564
1.056967,20056
1.058633,19936
1.0603,22104
1.061967,22560
1.063633,23304
1.0653,26140
1.066967,25140
1.068633,27512
1.0703,28320
1.071967,29628
1.073633,29940
1.0753,31152
1.076967,31624
1.078633,31208
1.0803,33136
1.081967,34064
1.083633,34016
1.0853,33904
1.086967,32468
1.088633,34096
1.0903,32928
1.091967,32912
1.093633,33552
1.0953,32644
1.096967,32364
1.098633,33280
1.1003,31680
1.101967,32928
1.103633,31716
1.1053,30772
1.106967,29860
1.108633,29808
1.1103,29612
1.111967,29472
1.113633,29332
1.1153,28988
1.116967,25504
1.118633,24836
1.1203,24872
1.121967,24596
1.123633,23388
1.1253,21372
1.126967,19860
1.128633,19036
1.1303,19132
1.131967,17256
1.133633,15372
1.1353,14308
1.136967,13064
1.138633,12880
1.1403,12352
1.141967,10524
1.143633,9824
1.1453,9548
1.146967,8512
1.148633,7997
1.1503,7675
1.151967,6631
1.153633,6183
1.1553,6143
1.156967,5998
1.158633,5392
1.1603,4911
1.161967,4654
1.163633,4565
1.1653,4272
1.166967,3456
1.168633,3785
1.1703,3678
1.171967,3930
1.173633,3462
1.1753,3360
1.176967,3167
1.178633,3144
1.1803,3052
1.181967,3109
1.183633,3069
1.1853,3028
1.186967,3147
1.188633,2845
1.1903,2916
1.191967,3313
1.193633,3363
1.1953,3636
1.196967,3622
1.198633,3940
