"SampleName","A2Rd2_02-86"
"Target Mass 1",
"Column Name","IA-3 (3um, 4.6X100)"
"Channel","QDa 1: SIR Ch2"
0.00195,653
0.003616667,692
0.005283333,587
0.00695,738
0.008616666,745
0.01028333,745
0.01195,757
0.01361667,769
0.01528333,838
0.01695,906
0.01861667,926
0.02028333,911
0.02195,866
0.02361667,821
0.02528333,791
0.02695,811
0.02861667,872
0.03028333,933
0.03195,888
0.03361667,844
0.03528333,950
0.03695,952
0.03861667,954
0.04028333,1030
0.04195,1006
0.04361667,982
0.04528333,959
0.04695,993
0.04861667,1026
0.05028334,930
0.05195,772
0.05361667,964
0.05528333,904
0.05695,1030
0.05861667,779
0.06028333,886
0.06195,860
0.06361666,834
0.06528334,839
0.06695,897
0.06861667,955
0.07028333,897
0.07195,838
0.07361667,1028
0.07528333,933
0.07695,838
0.07861666,981
0.08028334,909
0.08195,821
0.08361667,970
0.08528333,998
0.08695,749
0.08861667,893
0.09028333,987
0.09195,975
0.09361666,980
0.09528334,974
0.09695,893
0.09861667,856
0.1002833,892
0.10195,929
0.1036167,910
0.1052833,891
0.10695,1034
0.1086167,766
0.1102833,860
0.11195,862
0.1136167,955
0.1152833,898
0.11695,842
0.1186167,858
0.1202833,853
0.12195,831
0.1236167,797
0.1252833,883
0.12695,938
0.1286167,1139
0.1302833,1130
0.13195,951
0.1336167,817
0.1352833,807
0.13695,931
0.1386167,818
0.1402833,705
0.14195,1002
0.1436167,947
0.1452833,908
0.14695,875
0.1486167,939
0.1502833,826
0.15195,918
0.1536167,892
0.1552833,972
0.15695,955
0.1586167,1005
0.1602833,998
0.16195,953
0.1636167,839
0.1652833,890
0.16695,837
0.1686167,856
0.1702833,876
0.17195,852
0.1736167,828
0.1752833,774
0.17695,829
0.1786167,815
0.1802833,801
0.18195,854
0.1836167,851
0.1852833,800
0.18695,820
0.1886167,841
0.1902833,821
0.19195,802
0.1936167,796
0.1952833,789
0.19695,833
0.1986167,876
0.2002833,854
0.20195,867
0.2036167,881
0.2052833,926
0.20695,902
0.2086167,877
0.2102833,1110
0.21195,977
0.2136167,844
0.2152833,859
0.21695,874
0.2186167,963
0.2202833,1026
0.22195,1090
0.2236167,1126
0.2252833,1092
0.22695,1127
0.2286167,1136
0.2302833,1145
0.23195,969
0.2336167,1284
0.2352833,1209
0.23695,1073
0.2386167,1246
0.2402833,1280
0.24195,1110
0.2436167,1039
0.2453,1220
0.24695,1002
0.2486167,1087
0.2503,1171
0.25195,1136
0.2536167,1102
0.2552833,1206
0.25695,947
0.2586167,1228
0.2602833,1065
0.26195,1172
0.2636333,1060
0.2652833,1040
0.26695,1081
0.2686167,1138
0.2702833,852
0.27195,1193
0.2736167,1021
0.2752833,1092
0.27695,1222
0.2786167,1062
0.2803,903
0.28195,924
0.2836167,992
0.2852833,963
0.28695,933
0.2886167,985
0.2902833,997
0.29195,1034
0.2936167,911
0.2952833,977
0.29695,1068
0.2986333,1160
0.3003,1061
0.30195,900
0.3036167,1077
0.3052833,1163
0.30695,1110
0.3086167,1176
0.3102833,1143
0.3119667,1302
0.3136167,1301
0.3153,1354
0.31695,1327
0.3186167,1465
0.3203,1481
0.32195,1430
0.3236167,1387
0.3252833,1433
0.32695,1122
0.3286333,1137
0.3302833,1379
0.3319667,1299
0.3336333,1215
0.3353,1149
0.3369667,1150
0.3386167,1152
0.3402833,1022
0.34195,1142
0.3436167,1120
0.3453,1099
0.34695,1122
0.3486333,1115
0.3503,1108
0.3519667,1384
0.3536333,1333
0.3552833,1440
0.35695,1051
0.3586167,1304
0.3602833,1536
0.3619667,1322
0.3636167,1324
0.3653,2133
0.3669667,2433
0.3686333,3148
0.3703,2913
0.3719667,2839
0.3736167,2608
0.3753,2545
0.37695,2563
0.3786333,2456
0.3802833,2485
0.3819667,2514
0.3836333,2234
0.3853,1980
0.3869667,1466
0.3886333,1356
0.3902833,1078
0.3919667,930
0.3936167,740
0.3953,780
0.39695,649
0.3986333,409
0.4003,421
0.4019667,392
0.4036333,520
0.4053,530
0.40695,517
0.4086333,492
0.4103,467
0.4119667,490
0.4136333,557
0.4153,694
0.4169667,657
0.4186333,725
0.4203,732
0.4219667,740
0.4236333,756
0.4253,773
0.4269667,783
0.4286333,753
0.4303,733
0.4319667,714
0.4336333,788
0.4353,800
0.4369667,812
0.4386333,977
0.4403,1036
0.4419667,909
0.4436333,967
0.4453,1024
0.4469667,1059
0.4486333,1130
0.4503,1192
0.4519667,1321
0.4536333,1432
0.4553,1309
0.4569667,1124
0.4586333,1323
0.4603,1126
0.4619667,1480
0.4636333,1455
0.4653,1266
0.4669667,1209
0.4686333,1417
0.4703,1428
0.4719667,1341
0.4736333,1468
0.4753,1451
0.4769667,1383
0.4786333,1260
0.4803,1048
0.4819667,1328
0.4836333,1197
0.4853,1066
0.4869667,1243
0.4886333,1361
0.4903,1006
0.4919667,1192
0.4936333,1117
0.4953,1026
0.4969667,967
0.4986333,1019
0.5003,907
0.5019667,935
0.5036333,962
0.5053,963
0.5069667,963
0.5086333,950
0.5103,936
0.5119666,956
0.5136333,798
0.5153,852
0.5169666,906
0.5186333,881
0.5203,856
0.5219667,812
0.5236334,952
0.5253,998
0.5269667,755
0.5286334,877
0.5303,921
0.5319667,943
0.5336334,914
0.5353,953
0.5369667,993
0.5386333,1027
0.5403,854
0.5419667,1054
0.5436333,900
0.5453,927
0.5469667,955
0.5486333,944
0.5503,1015
0.5519667,978
0.5536333,940
0.5553,916
0.5569667,1074
0.5586333,1262
0.5603,1174
0.5619667,1015
0.5636333,867
0.5653,805
0.5669667,1024
0.5686333,1054
0.5703,848
0.5719666,784
0.5736333,970
0.5753,886
0.5769666,801
0.5786333,909
0.5803,985
0.5819666,1105
0.5836333,1164
0.5853,970
0.5869667,901
0.5886334,921
0.5903,1036
0.5919667,1054
0.5936334,1069
0.5953,993
0.5969667,750
0.5986333,884
0.6003,896
0.6019667,909
0.6036333,973
0.6053,802
0.6069667,1007
0.6086333,924
0.6103,932
0.6119667,940
0.6136333,1012
0.6153,990
0.6169667,974
0.6186333,965
0.6203,984
0.6219667,1004
0.6236333,1067
0.6253,1128
0.6269667,1189
0.6286333,859
0.6303,1166
0.6319667,1206
0.6336333,1024
0.6353,1191
0.6369666,1037
0.6386333,1231
0.6403,1255
0.6419666,1197
0.6436333,1080
0.6453,907
0.6469667,1123
0.6486334,1208
0.6503,1065
0.6519667,947
0.6536334,1071
0.6553,933
0.6569667,980
0.6586334,1026
0.6603,901
0.6619667,1076
0.6636333,1117
0.6653,1149
0.6669667,1096
0.6686333,1177
0.6703,1250
0.6719667,1673
0.6736333,1768
0.6753,2338
0.6769667,2554
0.6786333,3745
0.6803,4057
0.6819667,5420
0.6836333,7760
0.6853,7988
0.6869667,10256
0.6886333,12000
0.6903,12588
0.6919667,15396
0.6936333,15588
0.6953,16760
0.6969666,16888
0.6986333,17020
0.7003,17532
0.7019666,17868
0.7036333,18100
0.7053,16816
0.7069666,15584
0.7086333,15460
0.7103,15672
0.7119667,14880
0.7136334,14732
0.7153,14216
0.7169667,14376
0.7186334,13768
0.7203,13808
0.7219667,13052
0.7236333,13424
0.7253,12476
0.7269667,12236
0.7286333,11476
0.7303,10568
0.7319667,9724
0.7336333,9188
0.7353,8588
0.7369667,7978
0.7386333,6826
0.7403,6127
0.7419667,5779
0.7436333,5265
0.7453,4183
0.7469667,4413
0.7486333,3704
0.7503,3561
0.7519667,2886
0.7536333,2877
0.7553,2782
0.7569667,2256
0.7586333,2474
0.7603,2003
0.7619666,2091
0.7636333,1919
0.7653,1975
0.7669666,1655
0.7686333,1812
0.7703,1860
0.7719667,2038
0.7736334,2457
0.7753,2880
0.7769667,3410
0.7786334,3536
0.7803,5098
0.7819667,6040
0.7836334,7106
0.7853,8796
0.7869667,12576
0.7886333,13952
0.7903,15640
0.7919667,18772
0.7936333,21864
0.7953,22848
0.7969667,25464
0.7986333,26524
0.8003,27680
0.8019667,29416
0.8036333,28380
0.8053,26368
0.8069667,27544
0.8086333,27448
0.8103,24856
0.8119667,25292
0.8136333,23056
0.8153,23020
0.8169667,22716
0.8186333,20512
0.8203,21336
0.8219666,20172
0.8236333,20732
0.8253,20996
0.8269666,20880
0.8286333,21036
0.8303,20452
0.8319666,20544
0.8336333,18720
0.8353,18372
0.8369667,17024
0.8386334,15960
0.8403,14564
0.8419667,13996
0.8436334,12696
0.8453,11908
0.8469667,10204
0.8486333,8804
0.8503,7720
0.8519667,7052
0.8536333,6837
0.8553,6361
0.8569667,5547
0.8586333,4996
0.8603,4303
0.8619667,4128
0.8636333,4423
0.8653,3887
0.8669667,3136
0.8686333,2817
0.8703,2687
0.8719667,2409
0.8736333,2268
0.8753,2320
0.8769667,2012
0.8786333,2166
0.8803,2209
0.8819667,2672
0.8836333,2590
0.8853,2344
0.8869666,2489
0.8886333,2298
0.8903,2290
0.8919666,1780
0.8936333,2034
0.8953,2303
0.8969667,1991
0.8986334,1937
0.9003,1755
0.9019667,1843
0.9036334,1908
0.9053,1895
0.9069667,1744
0.9086334,1792
0.9103,1839
0.9119667,1737
0.9136333,1708
0.9153,1712
0.9169667,1755
0.9186333,1590
0.9203,1728
0.9219667,1635
0.9236333,1502
0.9253,1728
0.9269667,1508
0.9286333,1457
0.9303,1801
0.9319667,1567
0.9336333,1602
0.9353,1367
0.9369667,1484
0.9386333,1588
0.9403,1638
0.9419667,1789
0.9436333,1724
0.9453,1810
0.9469666,1880
0.9486333,2076
0.9503,2345
0.9519666,2843
0.9536333,3418
0.9553,4049
0.9569666,4630
0.9586333,6182
0.9603,7254
0.9619667,8440
0.9636334,9324
0.9653,12084
0.9669667,14916
0.9686334,17076
0.9703,20240
0.9719667,23944
0.9736333,25720
0.9753,28996
0.9769667,32340
0.9786333,33776
0.9803,36832
0.9819667,38608
0.9836333,39008
0.9853,39792
0.9869667,40272
0.9886333,40752
0.9903,41904
0.9919667,41440
0.9936333,40976
0.9953,40592
0.9969667,39520
0.9986333,37680
1.0003,36960
1.001967,34752
1.003633,35792
1.0053,33984
1.006967,33968
1.008633,33792
1.0103,32752
1.011967,31900
1.013633,33216
1.0153,32680
1.016967,32272
1.018633,32760
1.0203,32672
1.021967,32584
1.023633,33040
1.0253,30852
1.026967,29604
1.028633,30312
1.0303,29176
1.031967,28720
1.033633,27204
1.0353,26768
1.036967,24528
1.038633,22992
1.0403,21532
1.041967,21472
1.043633,19128
1.0453,17700
1.046967,16980
1.048633,16176
1.0503,15832
1.051967,15584
1.053633,14608
1.0553,14716
1.056967,14132
1.058633,14568
1.0603,15096
1.061967,15640
1.063633,15076
1.0653,15784
1.066967,16400
1.068633,16240
1.0703,16444
1.071967,16684
1.073633,16924
1.0753,17080
1.076967,17236
1.078633,18240
1.0803,18144
1.081967,18096
1.083633,17148
1.0853,17896
1.086967,16160
1.088633,16688
1.0903,16096
1.091967,16104
1.093633,15272
1.0953,15056
1.096967,14416
1.098633,14696
1.1003,14444
1.101967,13672
1.103633,14108
1.1053,13796
1.106967,13564
1.108633,13556
1.1103,13552
1.111967,13512
1.113633,12952
1.1153,12216
1.116967,12472
1.118633,12324
1.1203,11904
1.121967,11508
1.123633,10944
1.1253,10228
1.126967,9488
1.128633,9404
1.1303,9396
1.131967,8820
1.133633,8552
1.1353,8018
1.136967,7222
1.138633,7613
1.1403,6398
1.141967,5408
1.143633,5486
1.1453,4918
1.146967,5023
1.148633,4985
1.1503,4369
1.151967,4122
1.153633,4424
1.1553,3987
1.156967,3128
1.158633,3521
1.1603,2919
1.161967,3024
1.163633,2928
1.1653,2780
1.166967,2578
1.168633,2798
1.1703,2617
1.171967,2463
1.173633,2511
1.1753,2303
1.176967,2397
1.178633,2297
1.1803,2427
1.181967,2223
1.183633,2082
1.1853,2321
1.186967,2304
1.188633,1925
1.1903,2394
1.191967,2163
1.193633,2286
1.1953,2671
1.196967,2542
1.198633,2652
