"SampleName","A2Rd2_02-24"
"Target Mass 1",
"Column Name","IA-3 (3um, 4.6X100)"
"Channel","QDa 1: SIR Ch2"
0.00195,477
0.003616667,588
0.005283333,717
0.00695,862
0.008616666,913
0.01028333,938
0.01195,753
0.01361667,801
0.01528333,970
0.01695,907
0.01861667,843
0.02028333,1014
0.02195,1012
0.02361667,1010
0.02528333,861
0.02695,823
0.02861667,996
0.03028333,969
0.03195,1028
0.03361667,874
0.03528333,1080
0.03695,945
0.03861667,917
0.04028333,1057
0.04195,1039
0.04361667,1001
0.04528333,963
0.04695,874
0.04861667,995
0.05028334,920
0.05195,922
0.05361667,852
0.05528333,879
0.05695,905
0.05861667,948
0.06028333,990
0.06195,763
0.06361666,892
0.06528334,957
0.06695,1092
0.06861667,1040
0.07028333,989
0.07195,893
0.07361667,887
0.07528333,942
0.07695,911
0.07861666,905
0.08028334,958
0.08195,1015
0.08361667,981
0.08528333,882
0.08695,1053
0.08861667,982
0.09028333,911
0.09195,757
0.09361666,793
0.09528334,829
0.09695,798
0.09861667,768
0.1002833,939
0.10195,981
0.1036167,1058
0.1052833,855
0.10695,839
0.1086167,784
0.1102833,780
0.11195,855
0.1136167,875
0.1152833,785
0.11695,914
0.1186167,967
0.1202833,960
0.12195,794
0.1236167,846
0.1252833,688
0.12695,907
0.1286167,1051
0.1302833,1067
0.13195,782
0.1336167,874
0.1352833,872
0.13695,848
0.1386167,823
0.1402833,797
0.14195,948
0.1436167,1018
0.1452833,929
0.14695,915
0.1486167,794
0.1502833,774
0.15195,852
0.1536167,818
0.1552833,863
0.15695,892
0.1586167,922
0.1602833,914
0.16195,906
0.1636167,808
0.1652833,871
0.16695,742
0.1686167,788
0.1702833,835
0.17195,857
0.1736167,861
0.1752833,938
0.17695,1021
0.1786167,985
0.1802833,1029
0.18195,1079
0.1836167,861
0.1852833,919
0.18695,690
0.1886167,870
0.1902833,900
0.19195,920
0.1936167,913
0.1952833,905
0.19695,857
0.1986167,835
0.2002833,864
0.20195,893
0.2036167,1044
0.2052833,993
0.20695,742
0.2086167,886
0.2102833,1073
0.21195,1143
0.2136167,1142
0.2152833,1123
0.21695,847
0.2186167,1046
0.2202833,1065
0.22195,887
0.2236167,1100
0.2252833,1048
0.22695,996
0.2286167,1200
0.2302833,1176
0.23195,1303
0.2336167,1233
0.2352833,1192
0.23695,1245
0.2386167,1088
0.2402833,1228
0.24195,1369
0.2436167,1308
0.2453,1147
0.24695,1161
0.2486167,1294
0.2502833,1312
0.25195,1113
0.2536167,1325
0.2553,1279
0.25695,1173
0.2586167,1184
0.2602833,1262
0.26195,1139
0.2636333,1080
0.2652833,1305
0.26695,1165
0.2686167,1188
0.2702833,1070
0.27195,1100
0.2736167,1054
0.2752833,1113
0.27695,911
0.2786167,1084
0.2803,830
0.28195,1056
0.2836167,1128
0.2852833,991
0.28695,984
0.2886167,1013
0.2902833,1011
0.29195,967
0.2936167,967
0.2952833,968
0.29695,1070
0.2986333,1047
0.3002833,1117
0.30195,1114
0.3036167,1110
0.3053,892
0.30695,1239
0.3086167,1284
0.3102833,1186
0.31195,1328
0.3136167,1289
0.3153,1285
0.31695,1394
0.3186333,1452
0.3202833,1413
0.3219667,1028
0.3236167,1072
0.3252833,1068
0.32695,1108
0.3286167,1110
0.3303,1112
0.33195,1216
0.3336333,1299
0.3353,1381
0.33695,1374
0.3386333,1346
0.3402833,1318
0.34195,1288
0.3436167,1223
0.3452833,1196
0.3469667,1169
0.3486167,1406
0.3503,1420
0.35195,1282
0.3536333,1368
0.3553,1255
0.35695,1273
0.3586167,1290
0.3602833,1454
0.36195,1443
0.3636333,1432
0.3652833,2498
0.36695,3154
0.3686333,3627
0.3703,3743
0.3719667,3682
0.3736333,3362
0.3753,3657
0.37695,3792
0.3786167,3311
0.3803,3449
0.38195,3239
0.3836167,2634
0.3853,2154
0.3869667,1844
0.3886333,1321
0.3903,1189
0.3919667,1093
0.3936167,846
0.3953,752
0.3969667,597
0.3986167,628
0.4003,641
0.4019667,416
0.4036333,406
0.4053,651
0.4069667,392
0.4086333,652
0.4103,624
0.4119667,587
0.4136333,453
0.4153,655
0.4169667,795
0.4186333,680
0.4203,840
0.4219667,700
0.4236333,583
0.4253,655
0.4269667,639
0.4286333,661
0.4303,683
0.4319667,664
0.4336333,645
0.4353,869
0.4369667,1047
0.4386333,1016
0.4403,948
0.4419667,833
0.4436333,1027
0.4453,843
0.4469667,1155
0.4486333,1161
0.4503,1264
0.4519667,1205
0.4536333,1410
0.4553,1353
0.4569667,1059
0.4586333,1233
0.4603,1178
0.4619667,1123
0.4636333,1427
0.4653,1440
0.4669667,1302
0.4686333,1495
0.4703,1538
0.4719667,1532
0.4736333,1373
0.4753,1378
0.4769667,1478
0.4786333,1520
0.4803,1511
0.4819667,1465
0.4836333,1387
0.4853,1223
0.4869667,1308
0.4886333,1199
0.4903,1456
0.4919667,1394
0.4936333,1044
0.4953,979
0.4969667,1155
0.4986333,1039
0.5003,1055
0.5019667,941
0.5036333,1015
0.5053,1033
0.5069667,1051
0.5086333,1072
0.5103,1093
0.5119666,939
0.5136333,881
0.5153,1048
0.5169666,1136
0.5186333,1081
0.5203,976
0.5219667,1080
0.5236334,775
0.5253,998
0.5269667,1085
0.5286334,1059
0.5303,1173
0.5319667,836
0.5336334,884
0.5353,1106
0.5369667,1099
0.5386333,1227
0.5403,1060
0.5419667,933
0.5436333,1071
0.5453,905
0.5469667,916
0.5486333,1095
0.5503,1007
0.5519667,918
0.5536333,994
0.5553,1069
0.5569667,1014
0.5586333,1021
0.5603,1052
0.5619667,1084
0.5636333,951
0.5653,1041
0.5669667,985
0.5686333,802
0.5703,921
0.5719666,1021
0.5736333,1010
0.5753,1000
0.5769666,1010
0.5786333,1020
0.5803,780
0.5819666,1056
0.5836333,1071
0.5853,1209
0.5869667,820
0.5886334,872
0.5903,1032
0.5919667,1097
0.5936334,877
0.5953,969
0.5969667,1060
0.5986333,1060
0.6003,972
0.6019667,1122
0.6036333,1099
0.6053,1114
0.6069667,888
0.6086333,936
0.6103,983
0.6119667,965
0.6136333,1047
0.6153,1075
0.6169667,1037
0.6186333,1092
0.6203,844
0.6219667,1017
0.6236333,1166
0.6253,932
0.6269667,952
0.6286333,864
0.6303,923
0.6319667,903
0.6336333,883
0.6353,1256
0.6369666,1168
0.6386333,1140
0.6403,908
0.6419666,1045
0.6436333,978
0.6453,1151
0.6469667,1220
0.6486334,1110
0.6503,1058
0.6519667,975
0.6536334,996
0.6553,815
0.6569667,969
0.6586334,1043
0.6603,984
0.6619667,969
0.6636333,1026
0.6653,1059
0.6669667,1091
0.6686333,780
0.6703,1471
0.6719667,1431
0.6736333,1747
0.6753,2180
0.6769667,2489
0.6786333,3488
0.6803,4094
0.6819667,5512
0.6836333,6792
0.6853,7992
0.6869667,9468
0.6886333,10520
0.6903,12124
0.6919667,13248
0.6936333,16328
0.6953,17180
0.6969666,18176
0.6986333,18996
0.7003,19868
0.7019666,21116
0.7036333,20672
0.7053,21220
0.7069666,20268
0.7086333,19916
0.7103,21716
0.7119667,19576
0.7136334,19772
0.7153,19928
0.7169667,19692
0.7186334,19624
0.7203,18364
0.7219667,18108
0.7236333,17352
0.7253,15560
0.7269667,14492
0.7286333,13428
0.7303,11968
0.7319667,9744
0.7336333,9512
0.7353,8103
0.7369667,7105
0.7386333,6206
0.7403,5818
0.7419667,4944
0.7436333,4281
0.7453,3883
0.7469667,3171
0.7486333,3054
0.7503,2769
0.7519667,2476
0.7536333,2195
0.7553,2108
0.7569667,2342
0.7586333,1872
0.7603,1493
0.7619666,2074
0.7636333,1776
0.7653,1882
0.7669666,1202
0.7686333,1616
0.7703,1479
0.7719667,1228
0.7736334,1426
0.7753,1273
0.7769667,1529
0.7786334,1588
0.7803,1565
0.7819667,1600
0.7836334,1705
0.7853,1811
0.7869667,2099
0.7886333,2403
0.7903,2717
0.7919667,2747
0.7936333,3080
0.7953,2969
0.7969667,3979
0.7986333,3926
0.8003,3896
0.8019667,4135
0.8036333,4374
0.8053,4812
0.8069667,4805
0.8086333,4323
0.8103,5111
0.8119667,4235
0.8136333,5003
0.8153,4617
0.8169667,4836
0.8186333,4685
0.8203,4489
0.8219666,4524
0.8236333,4491
0.8253,4641
0.8269666,4564
0.8286333,4486
0.8303,4514
0.8319666,4287
0.8336333,3824
0.8353,3362
0.8369667,3546
0.8386334,2794
0.8403,3084
0.8419667,2954
0.8436334,2415
0.8453,2348
0.8469667,2302
0.8486333,1943
0.8503,1880
0.8519667,1886
0.8536333,1698
0.8553,1413
0.8569667,1475
0.8586333,1494
0.8603,1514
0.8619667,1361
0.8636333,1553
0.8653,1279
0.8669667,1357
0.8686333,1213
0.8703,1369
0.8719667,1136
0.8736333,1034
0.8753,1165
0.8769667,1074
0.8786333,1326
0.8803,1363
0.8819667,1401
0.8836333,1464
0.8853,1528
0.8869666,1662
0.8886333,1796
0.8903,1925
0.8919666,1908
0.8936333,1749
0.8953,1540
0.8969667,1717
0.8986334,1760
0.9003,1580
0.9019667,1695
0.9036334,1648
0.9053,1651
0.9069667,1653
0.9086334,1649
0.9103,1644
0.9119667,1576
0.9136333,1774
0.9153,1449
0.9169667,1723
0.9186333,1522
0.9203,1637
0.9219667,1530
0.9236333,1604
0.9253,1650
0.9269667,1390
0.9286333,1523
0.9303,1587
0.9319667,1520
0.9336333,1453
0.9353,1409
0.9369667,1831
0.9386333,1862
0.9403,1661
0.9419667,1627
0.9436333,1597
0.9453,1434
0.9469666,1520
0.9486333,1606
0.9503,1702
0.9519666,1799
0.9536333,2022
0.9553,2469
0.9569666,3566
0.9586333,4020
0.9603,4664
0.9619667,5332
0.9636334,6591
0.9653,8248
0.9669667,9552
0.9686334,10060
0.9703,13496
0.9719667,13964
0.9736333,17588
0.9753,19804
0.9769667,21772
0.9786333,25128
0.9803,25728
0.9819667,29444
0.9836333,32960
0.9853,33264
0.9869667,35696
0.9886333,37360
0.9903,35568
0.9919667,37872
0.9936333,39952
0.9953,39184
0.9969667,40560
0.9986333,39072
1.0003,40128
1.001967,41328
1.003633,40880
1.0053,41648
1.006967,40208
1.008633,40064
1.0103,42624
1.011967,43072
1.013633,40928
1.0153,41008
1.016967,41760
1.018633,40608
1.0203,41376
1.021967,38976
1.023633,39280
1.0253,35712
1.026967,35504
1.028633,33536
1.0303,32272
1.031967,29492
1.033633,26668
1.0353,24656
1.036967,23448
1.038633,21352
1.0403,19964
1.041967,19528
1.043633,18040
1.0453,16720
1.046967,14368
1.048633,14448
1.0503,14460
1.051967,13300
1.053633,12700
1.0553,13128
1.056967,13656
1.058633,14888
1.0603,15376
1.061967,15344
1.063633,16404
1.0653,16648
1.066967,18372
1.068633,18380
1.0703,19252
1.071967,21260
1.073633,21140
1.0753,22044
1.076967,23648
1.078633,24004
1.0803,24272
1.081967,24128
1.083633,23984
1.0853,23952
1.086967,24100
1.088633,24252
1.0903,24248
1.091967,24012
1.093633,23776
1.0953,23916
1.096967,24060
1.098633,25288
1.1003,25152
1.101967,24512
1.103633,24500
1.1053,24612
1.106967,24336
1.108633,22980
1.1103,23684
1.111967,22980
1.113633,22604
1.1153,20940
1.116967,19440
1.118633,19388
1.1203,18724
1.121967,17364
1.123633,16152
1.1253,15432
1.126967,15144
1.128633,13788
1.1303,12412
1.131967,11492
1.133633,10948
1.1353,10784
1.136967,9568
1.138633,8532
1.1403,8204
1.141967,8408
1.143633,7245
1.1453,6403
1.146967,5787
1.148633,5365
1.1503,5069
1.151967,5027
1.153633,4682
1.1553,4420
1.156967,4419
1.158633,3765
1.1603,3486
1.161967,3854
1.163633,3189
1.1653,3088
1.166967,2955
1.168633,2897
1.1703,2624
1.171967,2597
1.173633,2695
1.1753,2626
1.176967,2213
1.178633,2370
1.1803,2519
1.181967,2080
1.183633,2639
1.1853,2161
1.186967,2086
1.188633,2283
1.1903,2726
1.191967,2773
1.193633,2532
1.1953,2696
1.196967,2754
1.198633,2728
