"SampleName","A2Rd2_02-96"
"Target Mass 1",
"Column Name","IA-3 (3um, 4.6X100)"
"Channel","QDa 1: SIR Ch2"
0.00195,648
0.003616667,941
0.005283333,722
0.00695,745
0.008616666,753
0.01028333,971
0.01195,995
0.01361667,970
0.01528333,853
0.01695,954
0.01861667,928
0.02028333,793
0.02195,871
0.02361667,954
0.02528333,914
0.02695,877
0.02861667,841
0.03028333,1057
0.03195,1126
0.03361667,838
0.03528333,966
0.03695,953
0.03861667,918
0.04028333,883
0.04195,917
0.04361667,951
0.04528333,1031
0.04695,719
0.04861667,948
0.05028334,792
0.05195,950
0.05361667,797
0.05528333,1100
0.05695,1068
0.05861667,1070
0.06028333,960
0.06195,964
0.06361666,910
0.06528334,895
0.06695,880
0.06861667,844
0.07028333,870
0.07195,923
0.07361667,915
0.07528333,908
0.07695,880
0.07861666,902
0.08028334,809
0.08195,778
0.08361667,906
0.08528333,886
0.08695,895
0.08861667,904
0.09028333,891
0.09195,877
0.09361666,924
0.09528334,970
0.09695,968
0.09861667,953
0.1002833,939
0.10195,971
0.1036167,988
0.1052833,971
0.10695,973
0.1086167,945
0.1102833,747
0.11195,1028
0.1136167,1000
0.1152833,662
0.11695,983
0.1186167,905
0.1202833,772
0.12195,1010
0.1236167,881
0.1252833,1116
0.12695,994
0.1286167,1087
0.1302833,729
0.13195,766
0.1336167,934
0.1352833,770
0.13695,850
0.1386167,872
0.1402833,689
0.14195,892
0.1436167,760
0.1452833,790
0.14695,821
0.1486167,853
0.1502833,892
0.15195,952
0.1536167,983
0.1552833,932
0.15695,955
0.1586167,777
0.1602833,872
0.16195,988
0.1636167,929
0.1652833,904
0.16695,977
0.1686167,915
0.1702833,980
0.17195,828
0.1736167,957
0.1752833,796
0.17695,948
0.1786167,912
0.1802833,774
0.18195,898
0.1836167,808
0.1852833,792
0.18695,775
0.1886167,903
0.1902833,871
0.19195,839
0.1936167,959
0.1952833,928
0.19695,897
0.1986167,968
0.2002833,1011
0.20195,819
0.2036167,906
0.2052833,794
0.20695,860
0.2086167,988
0.2102833,1047
0.21195,898
0.2136167,1025
0.2152833,787
0.21695,980
0.2186167,1006
0.2202833,1020
0.22195,995
0.2236167,989
0.2252833,1083
0.22695,1168
0.2286167,1154
0.2302833,940
0.23195,1221
0.2336167,1326
0.2352833,1034
0.23695,1264
0.2386167,1117
0.2402833,1041
0.24195,1013
0.2436167,1099
0.2452833,1142
0.24695,1186
0.2486167,1114
0.2502833,1042
0.25195,1112
0.2536167,1112
0.2552833,1111
0.25695,1151
0.2586167,1192
0.2602833,978
0.26195,1012
0.2636333,1014
0.2652833,985
0.26695,992
0.2686167,998
0.2702833,1043
0.27195,1025
0.2736167,1006
0.2752833,1042
0.27695,967
0.2786167,989
0.2803,1010
0.28195,856
0.2836167,971
0.2852833,834
0.28695,905
0.2886167,976
0.2902833,928
0.29195,880
0.2936167,891
0.2952833,902
0.29695,909
0.2986333,915
0.3002833,965
0.30195,1016
0.3036167,1037
0.3052833,1057
0.30695,1067
0.3086167,1076
0.3102833,1077
0.31195,966
0.3136167,991
0.3153,1017
0.31695,1223
0.3186167,1387
0.3202833,1256
0.3219667,1347
0.3236167,1136
0.3252833,1159
0.32695,1239
0.3286167,1322
0.3302833,1335
0.3319667,1133
0.3336333,1100
0.3352833,1068
0.33695,1094
0.3386167,1120
0.3403,1182
0.34195,1243
0.3436167,1263
0.3452833,1282
0.34695,1145
0.3486333,1182
0.3503,1220
0.35195,1326
0.3536167,1354
0.3552833,1363
0.3569667,1215
0.3586167,1548
0.3602833,1599
0.36195,1349
0.3636333,1491
0.3653,1867
0.36695,2626
0.3686333,3360
0.3702833,3425
0.3719667,3373
0.3736333,2889
0.3752833,2496
0.37695,2415
0.3786333,2518
0.3802833,2631
0.3819667,2572
0.3836167,2515
0.3853,2299
0.3869667,1788
0.3886333,1501
0.3903,1403
0.3919667,972
0.3936167,768
0.3952833,886
0.3969667,668
0.3986333,482
0.4003,512
0.40195,532
0.4036333,388
0.4052833,500
0.4069667,473
0.4086167,553
0.4103,609
0.4119667,561
0.4136333,514
0.4153,563
0.4169667,612
0.4186333,775
0.4203,820
0.4219667,685
0.4236333,844
0.4253,930
0.4269667,846
0.4286333,921
0.4303,751
0.4319667,847
0.4336333,853
0.4353,860
0.4369667,1127
0.4386333,1127
0.4403,924
0.4419667,1118
0.4436333,1026
0.4453,1024
0.4469667,1082
0.4486333,1140
0.4503,1177
0.4519667,1116
0.4536333,1056
0.4553,1141
0.4569667,1255
0.4586333,1332
0.4603,1443
0.4619667,1671
0.4636333,1665
0.4653,1397
0.4669667,1513
0.4686333,1528
0.4703,1212
0.4719667,1389
0.4736333,1355
0.4753,1322
0.4769667,1398
0.4786333,1337
0.4803,1276
0.4819667,1274
0.4836333,1271
0.4853,1299
0.4869667,1320
0.4886333,1060
0.4903,1350
0.4919667,1309
0.4936333,1257
0.4953,1077
0.4969667,1049
0.4986333,1104
0.5003,1086
0.5019667,1069
0.5036333,1106
0.5053,1143
0.5069667,879
0.5086333,959
0.5103,1065
0.5119666,942
0.5136333,942
0.5153,1032
0.5169666,981
0.5186333,946
0.5203,838
0.5219667,996
0.5236334,925
0.5253,854
0.5269667,942
0.5286334,996
0.5303,922
0.5319667,847
0.5336334,951
0.5353,965
0.5369667,979
0.5386333,872
0.5403,1126
0.5419667,1064
0.5436333,881
0.5453,1138
0.5469667,982
0.5486333,1195
0.5503,860
0.5519667,1020
0.5536333,947
0.5553,889
0.5569667,830
0.5586333,881
0.5603,940
0.5619667,866
0.5636333,793
0.5653,1024
0.5669667,1136
0.5686333,1008
0.5703,1079
0.5719666,974
0.5736333,996
0.5753,972
0.5769666,1024
0.5786333,990
0.5803,957
0.5819666,980
0.5836333,947
0.5853,1091
0.5869667,1116
0.5886334,1130
0.5903,1014
0.5919667,1068
0.5936334,916
0.5953,894
0.5969667,873
0.5986333,933
0.6003,865
0.6019667,916
0.6036333,968
0.6053,816
0.6069667,981
0.6086333,875
0.6103,991
0.6119667,1029
0.6136333,1039
0.6153,866
0.6169667,1006
0.6186333,907
0.6203,926
0.6219667,945
0.6236333,1071
0.6253,1082
0.6269667,1152
0.6286333,1044
0.6303,1104
0.6319667,1056
0.6336333,1008
0.6353,1007
0.6369666,1006
0.6386333,996
0.6403,986
0.6419666,1073
0.6436333,1138
0.6453,1077
0.6469667,1195
0.6486334,987
0.6503,1251
0.6519667,827
0.6536334,880
0.6553,1125
0.6569667,971
0.6586334,1086
0.6603,1034
0.6619667,966
0.6636333,898
0.6653,835
0.6669667,1208
0.6686333,1177
0.6703,976
0.6719667,1077
0.6736333,1048
0.6753,1093
0.6769667,1059
0.6786333,1306
0.6803,1470
0.6819667,1547
0.6836333,1410
0.6853,1539
0.6869667,1862
0.6886333,2022
0.6903,1965
0.6919667,1935
0.6936333,2329
0.6953,2547
0.6969666,2298
0.6986333,2541
0.7003,2420
0.7019666,2562
0.7036333,2521
0.7053,2565
0.7069666,2085
0.7086333,2398
0.7103,2415
0.7119667,2399
0.7136334,2217
0.7153,2283
0.7169667,2087
0.7186334,1956
0.7203,2243
0.7219667,2212
0.7236333,2372
0.7253,2072
0.7269667,1986
0.7286333,2213
0.7303,2125
0.7319667,1902
0.7336333,1946
0.7353,1808
0.7369667,1635
0.7386333,1402
0.7403,1515
0.7419667,1528
0.7436333,1467
0.7453,1378
0.7469667,1332
0.7486333,1293
0.7503,1240
0.7519667,945
0.7536333,1104
0.7553,1000
0.7569667,1052
0.7586333,1069
0.7603,1004
0.7619666,1010
0.7636333,942
0.7653,966
0.7669666,961
0.7686333,947
0.7703,880
0.7719667,975
0.7736334,941
0.7753,1009
0.7769667,1210
0.7786334,1327
0.7803,1372
0.7819667,1527
0.7836334,1876
0.7853,1753
0.7869667,2107
0.7886333,2601
0.7903,3037
0.7919667,3185
0.7936333,3665
0.7953,4044
0.7969667,3954
0.7986333,4156
0.8003,4638
0.8019667,4568
0.8036333,3978
0.8053,4315
0.8069667,4035
0.8086333,4381
0.8103,4222
0.8119667,3862
0.8136333,3972
0.8153,3749
0.8169667,3378
0.8186333,3788
0.8203,3625
0.8219666,3500
0.8236333,3535
0.8253,3688
0.8269666,3306
0.8286333,3466
0.8303,3274
0.8319666,3527
0.8336333,3461
0.8353,3309
0.8369667,3211
0.8386334,2917
0.8403,2835
0.8419667,2928
0.8436334,2519
0.8453,2627
0.8469667,2125
0.8486333,2173
0.8503,1866
0.8519667,1632
0.8536333,1830
0.8553,1607
0.8569667,1811
0.8586333,1397
0.8603,1474
0.8619667,1299
0.8636333,1295
0.8653,1205
0.8669667,1177
0.8686333,1149
0.8703,1138
0.8719667,1184
0.8736333,912
0.8753,1113
0.8769667,1342
0.8786333,1191
0.8803,1338
0.8819667,1464
0.8836333,1542
0.8853,1504
0.8869666,1467
0.8886333,1447
0.8903,1354
0.8919666,1379
0.8936333,1404
0.8953,1392
0.8969667,1381
0.8986334,1386
0.9003,1392
0.9019667,1379
0.9036334,1375
0.9053,1587
0.9069667,1069
0.9086334,1427
0.9103,1119
0.9119667,1357
0.9136333,1442
0.9153,1318
0.9169667,1259
0.9186333,1378
0.9203,1243
0.9219667,1305
0.9236333,1193
0.9253,1233
0.9269667,1453
0.9286333,1484
0.9303,1251
0.9319667,1189
0.9336333,1266
0.9353,1179
0.9369667,1093
0.9386333,1203
0.9403,1242
0.9419667,1281
0.9436333,1264
0.9453,1246
0.9469666,1201
0.9486333,1206
0.9503,1077
0.9519666,1332
0.9536333,1306
0.9553,1487
0.9569666,1111
0.9586333,1379
0.9603,1418
0.9619667,1768
0.9636334,1624
0.9653,1859
0.9669667,1662
0.9686334,2228
0.9703,2695
0.9719667,2535
0.9736333,2662
0.9753,2915
0.9769667,2969
0.9786333,3129
0.9803,3250
0.9819667,3218
0.9836333,3453
0.9853,3411
0.9869667,3503
0.9886333,3594
0.9903,3652
0.9919667,3542
0.9936333,3432
0.9953,3320
0.9969667,3207
0.9986333,3320
1.0003,3395
1.001967,3255
1.003633,3115
1.0053,3063
1.006967,3081
1.008633,3185
1.0103,3195
1.011967,2536
1.013633,2793
1.0153,3063
1.016967,3286
1.018633,2984
1.0203,3040
1.021967,2929
1.023633,2719
1.0253,2606
1.026967,2530
1.028633,2882
1.0303,2795
1.031967,2448
1.033633,2880
1.0353,2597
1.036967,2486
1.038633,2363
1.0403,2377
1.041967,2381
1.043633,2385
1.0453,2189
1.046967,2258
1.048633,1687
1.0503,2115
1.051967,1983
1.053633,1777
1.0553,1996
1.056967,1842
1.058633,1917
1.0603,2011
1.061967,1646
1.063633,2003
1.0653,1874
1.066967,2195
1.068633,2321
1.0703,2173
1.071967,1977
1.073633,2054
1.0753,1939
1.076967,2117
1.078633,2069
1.0803,2182
1.081967,2036
1.083633,2084
1.0853,2158
1.086967,2230
1.088633,1950
1.0903,2222
1.091967,1853
1.093633,1936
1.0953,1934
1.096967,1921
1.098633,1844
1.1003,1635
1.101967,2072
1.103633,2158
1.1053,1854
1.106967,1920
1.108633,1892
1.1103,1744
1.111967,1756
1.113633,1766
1.1153,1553
1.116967,1794
1.118633,1625
1.1203,1824
1.121967,1486
1.123633,1515
1.1253,1544
1.126967,1461
1.128633,1627
1.1303,1648
1.131967,1214
1.133633,1420
1.1353,1381
1.136967,1285
1.138633,1568
1.1403,1485
1.141967,1297
1.143633,1240
1.1453,1211
1.146967,1152
1.148633,1092
1.1503,1130
1.151967,1140
1.153633,1042
1.1553,1091
1.156967,946
1.158633,1109
1.1603,978
1.161967,1152
1.163633,1080
1.1653,1069
1.166967,918
1.168633,1133
1.1703,958
1.171967,882
1.173633,1115
1.1753,949
1.176967,967
1.178633,911
1.1803,1076
1.181967,1139
1.183633,868
1.1853,1045
1.186967,938
1.188633,858
1.1903,977
1.191967,952
1.193633,1011
1.1953,907
1.196967,802
1.198633,919
