"SampleName","A2Rd2_02-10"
"Target Mass 1",
"Column Name","IA-3 (3um, 4.6X100)"
"Channel","QDa 1: SIR Ch1"
0.00195,415
0.003616667,390
0.005283333,637
0.00695,451
0.008616666,683
0.01028333,742
0.01195,497
0.01361667,404
0.01528333,540
0.01695,460
0.01861667,496
0.02028333,492
0.02195,567
0.02361667,550
0.02528333,534
0.02695,546
0.02861667,607
0.03028333,637
0.03195,667
0.03361667,675
0.03528333,593
0.03695,619
0.03861667,628
0.04028333,483
0.04195,554
0.04361667,609
0.04528333,581
0.04695,545
0.04861667,510
0.05028334,557
0.05195,588
0.05361667,485
0.05528333,658
0.05695,445
0.05861667,568
0.06028333,553
0.06195,570
0.06361666,514
0.06528334,541
0.06695,506
0.06861667,471
0.07028333,435
0.07195,456
0.07361667,492
0.07528333,552
0.07695,478
0.07861666,404
0.08028334,677
0.08195,632
0.08361667,598
0.08528333,600
0.08695,678
0.08861667,476
0.09028333,621
0.09195,436
0.09361666,496
0.09528334,547
0.09695,555
0.09861667,564
0.1002833,599
0.10195,488
0.1036167,527
0.1052833,520
0.10695,482
0.1086167,634
0.1102833,639
0.11195,609
0.1136167,652
0.1152833,641
0.11695,654
0.1186167,550
0.1202833,529
0.12195,508
0.1236167,513
0.1252833,518
0.12695,680
0.1286167,654
0.1302833,521
0.13195,605
0.1336167,592
0.1352833,521
0.13695,569
0.1386167,556
0.1402833,471
0.14195,499
0.1436167,583
0.1452833,515
0.14695,446
0.1486167,628
0.1502833,509
0.15195,534
0.1536167,531
0.1552833,510
0.15695,454
0.1586167,397
0.1602833,446
0.16195,476
0.1636167,505
0.1652833,478
0.16695,528
0.1686167,534
0.1702833,541
0.17195,513
0.1736167,482
0.1752833,451
0.17695,463
0.1786167,560
0.1802833,599
0.18195,639
0.1836167,463
0.1852833,525
0.18695,587
0.1886167,493
0.1902833,554
0.19195,616
0.1936167,576
0.1952833,500
0.19695,653
0.1986167,529
0.2002833,526
0.20195,448
0.2036167,491
0.2052833,533
0.20695,544
0.2086167,499
0.2102833,455
0.21195,526
0.2136167,491
0.2152833,635
0.21695,606
0.2186167,613
0.2202833,559
0.22195,436
0.2236167,449
0.2252833,464
0.22695,462
0.2286167,459
0.2302833,442
0.23195,476
0.2336167,509
0.2352833,538
0.23695,605
0.2386167,602
0.2402833,402
0.24195,651
0.2436167,615
0.2452833,478
0.24695,559
0.2486167,462
0.2502833,509
0.25195,395
0.2536167,532
0.2552833,503
0.25695,474
0.2586167,650
0.2602833,667
0.26195,503
0.2636167,609
0.2652833,556
0.26695,512
0.2686167,595
0.2702833,559
0.27195,406
0.2736167,504
0.2752833,487
0.27695,491
0.2786167,452
0.2803,528
0.2819667,506
0.2836167,564
0.2852833,600
0.28695,649
0.2886167,623
0.2902833,627
0.29195,467
0.2936333,547
0.2952833,531
0.29695,515
0.2986333,517
0.3002833,556
0.30195,542
0.3036167,528
0.3052833,507
0.30695,533
0.3086167,559
0.3102833,523
0.31195,487
0.3136167,501
0.3153,515
0.31695,479
0.3186167,443
0.3202833,678
0.32195,650
0.3236167,696
0.3252833,662
0.3269667,628
0.3286167,524
0.3302833,495
0.3319667,456
0.3336333,499
0.3353,555
0.33695,568
0.3386167,581
0.3402833,592
0.34195,525
0.3436333,529
0.3452833,559
0.34695,572
0.3486167,569
0.3503,566
0.3519667,494
0.3536167,534
0.3552833,569
0.35695,604
0.3586167,570
0.3603,619
0.36195,731
0.3636333,906
0.3652833,1210
0.36695,2371
0.3686333,3599
0.3703,4565
0.3719667,5388
0.3736333,4773
0.3752833,5620
0.3769667,5743
0.3786167,7121
0.3803,6555
0.3819667,6526
0.3836333,5516
0.3853,4698
0.3869667,3967
0.3886333,3205
0.3903,2605
0.3919667,2251
0.3936333,1762
0.3952833,1743
0.3969667,1188
0.3986167,1224
0.4003,977
0.4019667,1221
0.4036333,899
0.4053,1123
0.4069667,923
0.4086333,935
0.4103,963
0.4119667,966
0.4136333,968
0.4152833,1044
0.4169667,1061
0.4186333,1077
0.4203,1221
0.4219667,1241
0.4236333,1095
0.4253,1314
0.4269667,1200
0.4286333,1259
0.4303,1112
0.4319667,1370
0.4336333,1463
0.4353,2066
0.4369667,3189
0.4386333,5396
0.4403,7491
0.4419667,12736
0.4436333,18116
0.4453,27932
0.4469667,38192
0.4486333,53344
0.4503,66368
0.4519667,82960
0.4536333,96784
0.4553,116752
0.4569667,132480
0.4586333,143808
0.4603,156992
0.4619667,164480
0.4636333,174016
0.4653,183808
0.4669667,195072
0.4686333,205760
0.4703,217856
0.4719667,232256
0.4736333,247744
0.4753,254336
0.4769667,253568
0.4786333,254528
0.4803,250432
0.4819667,233984
0.4836333,212672
0.4853,195968
0.4869667,173376
0.4886333,148032
0.4903,120448
0.4919667,101136
0.4936333,83776
0.4953,68576
0.4969667,53984
0.4986333,42816
0.5003,33440
0.5019667,26028
0.5036333,21420
0.5053,17640
0.5069667,14056
0.5086333,11748
0.5103,9500
0.5119666,8380
0.5136333,7020
0.5153,6279
0.5169666,5867
0.5186333,5788
0.5203,4450
0.5219667,4263
0.5236334,3962
0.5253,4026
0.5269667,3830
0.5286334,3738
0.5303,3436
0.5319667,3142
0.5336334,2712
0.5353,2951
0.5369667,3082
0.5386333,2895
0.5403,2707
0.5419667,2343
0.5436333,2733
0.5453,2674
0.5469667,2533
0.5486333,2314
0.5503,2396
0.5519667,1819
0.5536333,2218
0.5553,1861
0.5569667,1871
0.5586333,2076
0.5603,1694
0.5619667,2137
0.5636333,1364
0.5653,1894
0.5669667,1437
0.5686333,1638
0.5703,1466
0.5719666,1554
0.5736333,1642
0.5753,1497
0.5769666,1549
0.5786333,1167
0.5803,1388
0.5819666,1469
0.5836333,1447
0.5853,1503
0.5869667,1273
0.5886334,1276
0.5903,1374
0.5919667,1250
0.5936334,1288
0.5953,1326
0.5969667,1337
0.5986333,1348
0.6003,1162
0.6019667,1307
0.6036333,1359
0.6053,1410
0.6069667,1261
0.6086333,1434
0.6103,1308
0.6119667,1393
0.6136333,1382
0.6153,1466
0.6169667,1439
0.6186333,1222
0.6203,1196
0.6219667,949
0.6236333,1152
0.6253,1123
0.6269667,1273
0.6286333,1193
0.6303,994
0.6319667,1222
0.6336333,1110
0.6353,1040
0.6369666,1134
0.6386333,1139
0.6403,1144
0.6419666,917
0.6436333,966
0.6453,1080
0.6469667,1034
0.6486334,883
0.6503,973
0.6519667,1053
0.6536334,995
0.6553,911
0.6569667,1133
0.6586334,1037
0.6603,1002
0.6619667,897
0.6636333,990
0.6653,802
0.6669667,915
0.6686333,1069
0.6703,897
0.6719667,976
0.6736333,707
0.6753,851
0.6769667,943
0.6786333,863
0.6803,784
0.6819667,938
0.6836333,712
0.6853,826
0.6869667,905
0.6886333,909
0.6903,716
0.6919667,791
0.6936333,798
0.6953,836
0.6969666,710
0.6986333,774
0.7003,822
0.7019666,800
0.7036333,777
0.7053,837
0.7069666,896
0.7086333,807
0.7103,718
0.7119667,770
0.7136334,760
0.7153,804
0.7169667,588
0.7186334,699
0.7203,810
0.7219667,785
0.7236333,702
0.7253,760
0.7269667,880
0.7286333,849
0.7303,966
0.7319667,974
0.7336333,908
0.7353,639
0.7369667,825
0.7386333,908
0.7403,742
0.7419667,827
0.7436333,918
0.7453,827
0.7469667,789
0.7486333,887
0.7503,762
0.7519667,683
0.7536333,798
0.7553,858
0.7569667,973
0.7586333,873
0.7603,908
0.7619666,971
0.7636333,822
0.7653,855
0.7669666,888
0.7686333,778
0.7703,788
0.7719667,817
0.7736334,814
0.7753,684
0.7769667,765
0.7786334,744
0.7803,739
0.7819667,734
0.7836334,749
0.7853,763
0.7869667,662
0.7886333,717
0.7903,772
0.7919667,844
0.7936333,917
0.7953,874
0.7969667,766
0.7986333,795
0.8003,689
0.8019667,722
0.8036333,755
0.8053,790
0.8069667,776
0.8086333,761
0.8103,794
0.8119667,827
0.8136333,792
0.8153,757
0.8169667,824
0.8186333,892
0.8203,876
0.8219666,873
0.8236333,841
0.8253,894
0.8269666,868
0.8286333,841
0.8303,863
0.8319666,926
0.8336333,894
0.8353,862
0.8369667,886
0.8386334,1009
0.8403,1051
0.8419667,984
0.8436334,1001
0.8453,948
0.8469667,953
0.8486333,958
0.8503,872
0.8519667,775
0.8536333,906
0.8553,922
0.8569667,938
0.8586333,818
0.8603,1031
0.8619667,714
0.8636333,825
0.8653,937
0.8669667,800
0.8686333,853
0.8703,873
0.8719667,747
0.8736333,729
0.8753,907
0.8769667,942
0.8786333,1221
0.8803,1329
0.8819667,1653
0.8836333,2316
0.8853,3181
0.8869666,2891
0.8886333,3555
0.8903,3865
0.8919666,3690
0.8936333,3735
0.8953,3760
0.8969667,3785
0.8986334,3724
0.9003,3718
0.9019667,3867
0.9036334,3921
0.9053,4278
0.9069667,4139
0.9086334,3999
0.9103,4197
0.9119667,4394
0.9136333,4405
0.9153,4328
0.9169667,4423
0.9186333,4112
0.9203,3692
0.9219667,4143
0.9236333,3680
0.9253,3805
0.9269667,3742
0.9286333,3741
0.9303,3668
0.9319667,3596
0.9336333,3555
0.9353,3515
0.9369667,3709
0.9386333,3292
0.9403,3168
0.9419667,3398
0.9436333,3417
0.9453,3076
0.9469666,2997
0.9486333,2811
0.9503,2648
0.9519666,3017
0.9536333,2713
0.9553,2422
0.9569666,2308
0.9586333,2418
0.9603,2101
0.9619667,2040
0.9636334,1631
0.9653,1700
0.9669667,1862
0.9686334,1539
0.9703,1473
0.9719667,1461
0.9736333,1295
0.9753,1393
0.9769667,1067
0.9786333,1015
0.9803,1066
0.9819667,797
0.9836333,903
0.9853,695
0.9869667,767
0.9886333,753
0.9903,718
0.9919667,744
0.9936333,686
0.9953,628
0.9969667,755
0.9986333,700
1.0003,739
1.001967,643
1.003633,636
1.0053,771
1.006967,653
1.008633,559
1.0103,613
1.011967,535
1.013633,683
1.0153,707
1.016967,703
1.018633,569
1.0203,726
1.021967,587
1.023633,721
1.0253,760
1.026967,653
1.028633,835
1.0303,583
1.031967,505
1.033633,699
1.0353,572
1.036967,728
1.038633,801
1.0403,754
1.041967,604
1.043633,671
1.0453,685
1.046967,569
1.048633,503
1.0503,523
1.051967,544
1.053633,608
1.0553,646
1.056967,748
1.058633,725
1.0603,745
1.061967,708
1.063633,524
1.0653,572
1.066967,691
1.068633,816
1.0703,736
1.071967,726
1.073633,622
1.0753,792
1.076967,663
1.078633,698
1.0803,795
1.081967,728
1.083633,774
1.0853,699
1.086967,708
1.088633,725
1.0903,678
1.091967,765
1.093633,711
1.0953,657
1.096967,686
1.098633,715
1.1003,702
1.101967,729
1.103633,668
1.1053,606
1.106967,665
1.108633,714
1.1103,684
1.111967,654
1.113633,698
1.1153,742
1.116967,731
1.118633,789
1.1203,743
1.121967,696
1.123633,730
1.1253,633
1.126967,637
1.128633,627
1.1303,617
1.131967,716
1.133633,700
1.1353,707
1.136967,612
1.138633,677
1.1403,742
1.141967,775
1.143633,788
1.1453,845
1.146967,911
1.148633,926
1.1503,665
1.151967,888
1.153633,637
1.1553,839
1.156967,686
1.158633,705
1.1603,811
1.161967,778
1.163633,816
1.1653,854
1.166967,711
1.168633,806
1.1703,785
1.171967,980
1.173633,969
1.1753,974
1.176967,832
1.178633,829
1.1803,827
1.181967,835
1.183633,843
1.1853,910
1.186967,886
1.188633,861
1.1903,981
1.191967,1037
1.193633,981
1.1953,856
1.196967,895
1.198633,809
