"SampleName","A2Rd2_02-14"
"Target Mass 1",
"Column Name","IA-3 (3um, 4.6X100)"
"Channel","QDa 1: SIR Ch2"
0.00195,494
0.003616667,703
0.005283333,725
0.00695,519
0.008616666,674
0.01028333,1084
0.01195,1161
0.01361667,965
0.01528333,912
0.01695,1059
0.01861667,1032
0.02028333,709
0.02195,904
0.02361667,999
0.02528333,1047
0.02695,1019
0.02861667,956
0.03028333,822
0.03195,977
0.03361667,869
0.03528333,951
0.03695,959
0.03861667,936
0.04028333,919
0.04195,903
0.04361667,988
0.04528333,1013
0.04695,994
0.04861667,905
0.05028334,1093
0.05195,1013
0.05361667,896
0.05528333,984
0.05695,779
0.05861667,1102
0.06028333,1065
0.06195,739
0.06361666,897
0.06528334,681
0.06695,749
0.06861667,817
0.07028333,895
0.07195,880
0.07361667,865
0.07528333,878
0.07695,890
0.07861666,914
0.08028334,926
0.08195,926
0.08361667,797
0.08528333,888
0.08695,896
0.08861667,829
0.09028333,762
0.09195,873
0.09361666,907
0.09528334,799
0.09695,848
0.09861667,821
0.1002833,1041
0.10195,1031
0.1036167,784
0.1052833,931
0.10695,875
0.1086167,836
0.1102833,700
0.11195,889
0.1136167,810
0.1152833,949
0.11695,822
0.1186167,780
0.1202833,874
0.12195,985
0.1236167,936
0.1252833,753
0.12695,883
0.1286167,794
0.1302833,827
0.13195,767
0.1336167,839
0.1352833,854
0.13695,870
0.1386167,792
0.1402833,846
0.14195,893
0.1436167,862
0.1452833,832
0.14695,661
0.1486167,785
0.1502833,910
0.15195,735
0.1536167,842
0.1552833,958
0.15695,805
0.1586167,798
0.1602833,664
0.16195,695
0.1636167,727
0.1652833,756
0.16695,786
0.1686167,730
0.1702833,675
0.17195,751
0.1736167,932
0.1752833,873
0.17695,818
0.1786167,979
0.1802833,819
0.18195,860
0.1836167,842
0.1852833,816
0.18695,790
0.1886167,879
0.1902833,1003
0.19195,1008
0.1936167,751
0.1952833,872
0.19695,1001
0.1986167,1083
0.2002833,961
0.20195,946
0.2036167,793
0.2052833,1158
0.20695,1036
0.2086167,1040
0.2102833,925
0.21195,978
0.2136167,1016
0.2152833,1033
0.21695,1075
0.2186167,1091
0.2202833,1128
0.22195,1124
0.2236167,1085
0.2252833,1047
0.22695,955
0.2286167,1135
0.2302833,1156
0.23195,1207
0.2336167,1037
0.2352833,1006
0.23695,1149
0.2386167,1167
0.2402833,1185
0.24195,1226
0.2436167,1192
0.2452833,1158
0.24695,1127
0.2486167,1064
0.2502833,1204
0.25195,1124
0.2536167,1227
0.2552833,1002
0.25695,1210
0.2586167,1132
0.2602833,1046
0.26195,929
0.2636167,1017
0.2652833,1105
0.26695,1162
0.2686167,1154
0.2702833,1071
0.27195,891
0.2736167,1210
0.2752833,1015
0.27695,1004
0.2786167,1015
0.2803,1065
0.28195,1114
0.2836167,817
0.2852833,1162
0.28695,990
0.2886167,926
0.2902833,913
0.29195,937
0.2936167,971
0.2952833,968
0.29695,1146
0.2986333,1203
0.3002833,1201
0.30195,1163
0.3036167,1127
0.3052833,1301
0.30695,949
0.3086167,1132
0.3102833,1197
0.31195,1173
0.3136167,1262
0.3153,1392
0.31695,1360
0.3186167,1076
0.3202833,1162
0.32195,1089
0.3236167,1123
0.3252833,1170
0.32695,1121
0.3286167,869
0.3302833,1282
0.33195,1200
0.3336333,1335
0.3352833,1303
0.33695,1217
0.3386333,1318
0.3402833,1310
0.34195,1231
0.3436167,1193
0.3452833,1254
0.34695,1315
0.3486167,1266
0.3503,1218
0.35195,1410
0.3536167,1082
0.3553,1512
0.3569667,1325
0.3586167,1454
0.3603,1345
0.36195,1491
0.3636333,1553
0.3652833,2362
0.3669667,3319
0.3686333,3719
0.3703,3772
0.3719667,3923
0.3736333,4044
0.3752833,3482
0.3769667,4183
0.3786333,3371
0.3803,3255
0.38195,2674
0.3836333,2462
0.3853,1946
0.3869667,1449
0.3886333,1420
0.3903,959
0.3919667,991
0.3936333,702
0.3953,489
0.3969667,477
0.3986167,609
0.4003,454
0.4019667,565
0.4036333,538
0.4053,593
0.4069667,509
0.4086333,494
0.4103,496
0.4119667,595
0.4136333,606
0.4153,616
0.4169667,531
0.4186333,564
0.4203,727
0.4219667,885
0.4236333,805
0.4253,704
0.4269667,782
0.4286333,792
0.4303,638
0.4319667,575
0.4336333,496
0.4353,844
0.4369667,958
0.4386333,852
0.4403,736
0.4419667,837
0.4436333,878
0.4453,919
0.4469667,944
0.4486333,969
0.4503,998
0.4519667,1069
0.4536333,1168
0.4553,1260
0.4569667,1272
0.4586333,1284
0.4603,1383
0.4619667,1300
0.4636333,1218
0.4653,1387
0.4669667,1535
0.4686333,1589
0.4703,1504
0.4719667,1617
0.4736333,1631
0.4753,1606
0.4769667,1559
0.4786333,1393
0.4803,1394
0.4819667,1235
0.4836333,1523
0.4853,1135
0.4869667,1397
0.4886333,1351
0.4903,1273
0.4919667,1257
0.4936333,1260
0.4953,1036
0.4969667,1136
0.4986333,1089
0.5003,1086
0.5019667,1025
0.5036333,938
0.5053,998
0.5069667,1057
0.5086333,995
0.5103,933
0.5119666,946
0.5136333,987
0.5153,847
0.5169666,994
0.5186333,897
0.5203,970
0.5219667,1081
0.5236334,816
0.5253,1139
0.5269667,858
0.5286334,1042
0.5303,837
0.5319667,946
0.5336334,1092
0.5353,917
0.5369667,994
0.5386333,977
0.5403,977
0.5419667,833
0.5436333,1089
0.5453,972
0.5469667,989
0.5486333,997
0.5503,859
0.5519667,895
0.5536333,961
0.5553,853
0.5569667,1017
0.5586333,980
0.5603,939
0.5619667,620
0.5636333,898
0.5653,997
0.5669667,831
0.5686333,1051
0.5703,904
0.5719666,1059
0.5736333,912
0.5753,941
0.5769666,1020
0.5786333,750
0.5803,1003
0.5819666,938
0.5836333,1036
0.5853,962
0.5869667,886
0.5886334,871
0.5903,1050
0.5919667,1000
0.5936334,874
0.5953,1099
0.5969667,903
0.5986333,899
0.6003,982
0.6019667,972
0.6036333,909
0.6053,846
0.6069667,891
0.6086333,937
0.6103,749
0.6119667,827
0.6136333,727
0.6153,790
0.6169667,853
0.6186333,820
0.6203,787
0.6219667,783
0.6236333,748
0.6253,934
0.6269667,921
0.6286333,882
0.6303,932
0.6319667,899
0.6336333,865
0.6353,836
0.6369666,806
0.6386333,838
0.6403,870
0.6419666,811
0.6436333,752
0.6453,766
0.6469667,780
0.6486334,810
0.6503,714
0.6519667,839
0.6536334,758
0.6553,677
0.6569667,930
0.6586334,935
0.6603,845
0.6619667,780
0.6636333,967
0.6653,851
0.6669667,770
0.6686333,837
0.6703,876
0.6719667,831
0.6736333,855
0.6753,878
0.6769667,892
0.6786333,820
0.6803,735
0.6819667,909
0.6836333,876
0.6853,748
0.6869667,717
0.6886333,885
0.6903,687
0.6919667,845
0.6936333,834
0.6953,795
0.6969666,957
0.6986333,946
0.7003,850
0.7019666,813
0.7036333,862
0.7053,819
0.7069666,776
0.7086333,837
0.7103,843
0.7119667,843
0.7136334,827
0.7153,704
0.7169667,745
0.7186334,786
0.7203,749
0.7219667,741
0.7236333,690
0.7253,763
0.7269667,836
0.7286333,824
0.7303,903
0.7319667,983
0.7336333,1045
0.7353,551
0.7369667,762
0.7386333,807
0.7403,991
0.7419667,894
0.7436333,751
0.7453,880
0.7469667,917
0.7486333,836
0.7503,751
0.7519667,920
0.7536333,765
0.7553,905
0.7569667,999
0.7586333,1072
0.7603,873
0.7619666,831
0.7636333,1008
0.7653,956
0.7669666,855
0.7686333,1036
0.7703,778
0.7719667,873
0.7736334,772
0.7753,784
0.7769667,970
0.7786334,1035
0.7803,812
0.7819667,669
0.7836334,868
0.7853,934
0.7869667,827
0.7886333,863
0.7903,912
0.7919667,863
0.7936333,813
0.7953,789
0.7969667,764
0.7986333,842
0.8003,823
0.8019667,804
0.8036333,877
0.8053,904
0.8069667,839
0.8086333,813
0.8103,786
0.8119667,1009
0.8136333,1038
0.8153,995
0.8169667,997
0.8186333,816
0.8203,779
0.8219666,909
0.8236333,733
0.8253,759
0.8269666,958
0.8286333,801
0.8303,771
0.8319666,740
0.8336333,838
0.8353,936
0.8369667,900
0.8386334,864
0.8403,724
0.8419667,803
0.8436334,967
0.8453,886
0.8469667,669
0.8486333,892
0.8503,766
0.8519667,640
0.8536333,743
0.8553,743
0.8569667,744
0.8586333,844
0.8603,772
0.8619667,700
0.8636333,778
0.8653,1041
0.8669667,1003
0.8686333,782
0.8703,986
0.8719667,707
0.8736333,886
0.8753,805
0.8769667,784
0.8786333,823
0.8803,990
0.8819667,1108
0.8836333,1233
0.8853,1269
0.8869666,1266
0.8886333,1152
0.8903,1019
0.8919666,1078
0.8936333,1177
0.8953,1043
0.8969667,1155
0.8986334,1242
0.9003,1074
0.9019667,1281
0.9036334,1160
0.9053,950
0.9069667,1250
0.9086334,1127
0.9103,1235
0.9119667,1267
0.9136333,1256
0.9153,1246
0.9169667,1166
0.9186333,1209
0.9203,1252
0.9219667,1295
0.9236333,1034
0.9253,1171
0.9269667,1135
0.9286333,959
0.9303,1164
0.9319667,1154
0.9336333,1129
0.9353,1043
0.9369667,1170
0.9386333,1148
0.9403,1127
0.9419667,1430
0.9436333,1263
0.9453,1096
0.9469666,1137
0.9486333,1326
0.9503,1022
0.9519666,1039
0.9536333,979
0.9553,1034
0.9569666,999
0.9586333,963
0.9603,1074
0.9619667,1200
0.9636334,799
0.9653,880
0.9669667,808
0.9686334,924
0.9703,992
0.9719667,1059
0.9736333,995
0.9753,965
0.9769667,958
0.9786333,783
0.9803,802
0.9819667,855
0.9836333,910
0.9853,965
0.9869667,890
0.9886333,713
0.9903,861
0.9919667,1050
0.9936333,958
0.9953,656
0.9969667,634
0.9986333,762
1.0003,609
1.001967,681
1.003633,857
1.0053,843
1.006967,837
1.008633,723
1.0103,876
1.011967,841
1.013633,807
1.0153,823
1.016967,822
1.018633,822
1.0203,793
1.021967,831
1.023633,806
1.0253,781
1.026967,812
1.028633,843
1.0303,789
1.031967,734
1.033633,795
1.0353,794
1.036967,792
1.038633,840
1.0403,832
1.041967,825
1.043633,755
1.0453,900
1.046967,878
1.048633,855
1.0503,805
1.051967,755
1.053633,837
1.0553,887
1.056967,726
1.058633,822
1.0603,917
1.061967,1071
1.063633,949
1.0653,697
1.066967,1045
1.068633,1050
1.0703,854
1.071967,792
1.073633,673
1.0753,776
1.076967,880
1.078633,802
1.0803,829
1.081967,843
1.083633,960
1.0853,922
1.086967,834
1.088633,773
1.0903,914
1.091967,834
1.093633,813
1.0953,793
1.096967,736
1.098633,734
1.1003,763
1.101967,832
1.103633,776
1.1053,720
1.106967,849
1.108633,827
1.1103,769
1.111967,845
1.113633,811
1.1153,777
1.116967,853
1.118633,861
1.1203,868
1.121967,729
1.123633,721
1.1253,875
1.126967,1008
1.128633,1119
1.1303,1031
1.131967,797
1.133633,744
1.1353,732
1.136967,675
1.138633,618
1.1403,825
1.141967,796
1.143633,767
1.1453,735
1.146967,810
1.148633,879
1.1503,857
1.151967,846
1.153633,836
1.1553,844
1.156967,742
1.158633,859
1.1603,693
1.161967,864
1.163633,761
1.1653,769
1.166967,731
1.168633,863
1.1703,843
1.171967,909
1.173633,903
1.1753,874
1.176967,781
1.178633,859
1.1803,917
1.181967,953
1.183633,824
1.1853,748
1.186967,807
1.188633,690
1.1903,714
1.191967,818
1.193633,787
1.1953,757
1.196967,637
1.198633,817
