"SampleName","A2Rd2_02-90"
"Target Mass 1",
"Column Name","IA-3 (3um, 4.6X100)"
"Channel","QDa 1: SIR Ch2"
0.00195,613
0.003616667,611
0.005283333,656
0.00695,701
0.008616666,745
0.01028333,777
0.01195,808
0.01361667,777
0.01528333,896
0.01695,915
0.01861667,935
0.02028333,857
0.02195,950
0.02361667,828
0.02528333,999
0.02695,955
0.02861667,774
0.03028333,786
0.03195,901
0.03361667,854
0.03528333,807
0.03695,1121
0.03861667,1126
0.04028333,1185
0.04195,985
0.04361667,1176
0.04528333,1013
0.04695,907
0.04861667,963
0.05028334,1158
0.05195,1086
0.05361667,945
0.05528333,990
0.05695,865
0.05861667,883
0.06028333,897
0.06195,910
0.06361666,1054
0.06528334,1067
0.06695,865
0.06861667,1003
0.07028333,806
0.07195,1031
0.07361667,886
0.07528333,861
0.07695,837
0.07861666,721
0.08028334,916
0.08195,964
0.08361667,1074
0.08528333,712
0.08695,944
0.08863334,1030
0.09028333,816
0.09195,868
0.09361666,1120
0.09528334,980
0.09696667,1061
0.09861667,1087
0.1002833,977
0.1019667,1042
0.1036167,1133
0.1053,964
0.10695,902
0.1086167,809
0.1102833,858
0.1119667,964
0.1136333,917
0.1152833,857
0.11695,979
0.1186333,948
0.1202833,888
0.1219667,980
0.1236333,887
0.1252833,912
0.1269667,793
0.1286333,901
0.1303,964
0.13195,809
0.1336167,897
0.1353,916
0.13695,958
0.1386333,850
0.1403,971
0.1419667,918
0.1436333,863
0.1453,898
0.1469667,815
0.1486333,1098
0.1503,1150
0.1519667,975
0.1536333,955
0.1553,959
0.1569667,923
0.1586333,779
0.1603,845
0.1619667,958
0.1636333,910
0.1653,815
0.1669667,915
0.1686333,887
0.1703,835
0.1719667,877
0.1736333,974
0.1753,974
0.1769667,891
0.1786333,642
0.1803,995
0.1819667,958
0.1836333,675
0.1853,890
0.1869667,977
0.1886333,847
0.1903,848
0.1919667,850
0.1936333,888
0.1953,927
0.1969667,877
0.1986333,827
0.2003,1126
0.2019667,1099
0.2036333,962
0.2053,918
0.2069667,903
0.2086333,986
0.2103,764
0.2119667,817
0.2136333,816
0.2153,814
0.2169667,846
0.2186333,878
0.2203,972
0.2219667,1065
0.2236333,1194
0.2253,1136
0.2269667,1090
0.2286333,1067
0.2303,1126
0.2319667,1049
0.2336333,972
0.2353,1197
0.2369667,1395
0.2386333,1312
0.2403,987
0.2419667,1160
0.2436333,1185
0.2453,1191
0.2469667,1062
0.2486333,987
0.2503,1134
0.2519667,1136
0.2536333,1139
0.2553,1126
0.2569667,1083
0.2586333,1165
0.2603,1011
0.2619667,1030
0.2636333,1117
0.2653,1082
0.2669667,1163
0.2686333,1057
0.2703,951
0.2719667,1090
0.2736333,966
0.2753,1033
0.2769667,1260
0.2786333,1207
0.2803,886
0.2819667,1030
0.2836333,1112
0.2853,962
0.2869667,1080
0.2886333,950
0.2903,994
0.2919667,1031
0.2936333,1050
0.2953,1070
0.2969667,1096
0.2986333,992
0.3003,987
0.3019667,983
0.3036333,1065
0.3053,1051
0.3069667,1108
0.3086333,1103
0.3103,1097
0.3119667,1041
0.3136333,1145
0.3153,1249
0.3169667,1220
0.3186333,1466
0.3203,1431
0.3219667,1499
0.3236333,1394
0.3253,1240
0.3269667,1387
0.3286333,1162
0.3303,1159
0.3319667,1157
0.3336333,1119
0.3353,1099
0.3369667,1131
0.3386333,1162
0.3403,1442
0.3419667,1409
0.3436333,1147
0.3453,1503
0.3469667,1277
0.3486333,1333
0.3503,1177
0.3519667,1400
0.3536333,1328
0.3553,1115
0.3569667,1355
0.3586333,1293
0.3603,1232
0.3619667,1474
0.3636333,1766
0.3653,2388
0.3669667,3085
0.3686333,2994
0.3703,3224
0.3719667,2787
0.3736333,2869
0.3753,2738
0.3769667,2450
0.3786333,2676
0.3803,2407
0.3819667,2390
0.3836333,2710
0.3853,2125
0.3869667,1769
0.3886333,1312
0.3903,1454
0.3919667,1047
0.3936333,925
0.3953,615
0.3969667,579
0.3986333,691
0.4003,559
0.4019667,441
0.4036333,657
0.4053,676
0.4069667,581
0.4086333,675
0.4103,523
0.4119667,680
0.4136333,681
0.4153,514
0.4169667,764
0.4186333,695
0.4203,776
0.4219667,811
0.4236333,812
0.4253,814
0.4269667,796
0.4286333,779
0.4303,828
0.4319667,876
0.4336333,959
0.4353,957
0.4369667,955
0.4386333,909
0.4403,864
0.4419667,1016
0.4436333,1261
0.4453,1191
0.4469667,1334
0.4486333,1225
0.4503,1458
0.4519667,1510
0.4536333,1606
0.4553,1285
0.4569667,1490
0.4586333,1407
0.4603,1323
0.4619667,1499
0.4636333,1592
0.4653,1259
0.4669667,1333
0.4686333,1456
0.4703,1542
0.4719667,1462
0.4736333,1466
0.4753,1570
0.4769667,1385
0.4786333,1286
0.4803,1466
0.4819667,1368
0.4836333,1556
0.4853,1543
0.4869667,1257
0.4886333,1389
0.4903,1233
0.4919667,1251
0.4936333,1177
0.4953,1243
0.4969667,1300
0.4986333,1150
0.5003,1097
0.5019667,1036
0.5036333,1159
0.5053,1083
0.5069667,1097
0.5086333,1129
0.5103,1103
0.5119666,1076
0.5136333,1032
0.5153,988
0.5169666,1164
0.5186333,1160
0.5203,994
0.5219667,1065
0.5236334,876
0.5253,911
0.5269667,1006
0.5286334,1216
0.5303,1161
0.5319667,947
0.5336334,1172
0.5353,1078
0.5369667,1019
0.5386333,1010
0.5403,1192
0.5419667,731
0.5436333,1015
0.5453,1026
0.5469667,1147
0.5486333,879
0.5503,771
0.5519667,1112
0.5536333,920
0.5553,1091
0.5569667,991
0.5586333,982
0.5603,1070
0.5619667,823
0.5636333,962
0.5653,1218
0.5669667,1085
0.5686333,952
0.5703,1057
0.5719666,1122
0.5736333,1157
0.5753,932
0.5769666,918
0.5786333,1168
0.5803,996
0.5819666,961
0.5836333,984
0.5853,977
0.5869667,994
0.5886334,1005
0.5903,1016
0.5919667,909
0.5936334,1050
0.5953,976
0.5969667,903
0.5986333,937
0.6003,962
0.6019667,947
0.6036333,933
0.6053,925
0.6069667,917
0.6086333,840
0.6103,980
0.6119667,757
0.6136333,869
0.6153,1027
0.6169667,1046
0.6186333,1037
0.6203,787
0.6219667,927
0.6236333,1021
0.6253,940
0.6269667,1031
0.6286333,889
0.6303,939
0.6319667,997
0.6336333,886
0.6353,960
0.6369666,712
0.6386333,1122
0.6403,942
0.6419666,760
0.6436333,1101
0.6453,992
0.6469667,1042
0.6486334,1029
0.6503,989
0.6519667,1007
0.6536334,907
0.6553,943
0.6569667,982
0.6586334,850
0.6603,856
0.6619667,973
0.6636333,961
0.6653,949
0.6669667,892
0.6686333,836
0.6703,876
0.6719667,916
0.6736333,875
0.6753,936
0.6769667,837
0.6786333,908
0.6803,700
0.6819667,832
0.6836333,935
0.6853,733
0.6869667,950
0.6886333,966
0.6903,692
0.6919667,792
0.6936333,864
0.6953,995
0.6969666,1045
0.6986333,1000
0.7003,926
0.7019666,882
0.7036333,914
0.7053,936
0.7069666,958
0.7086333,802
0.7103,955
0.7119667,778
0.7136334,925
0.7153,813
0.7169667,877
0.7186334,915
0.7203,952
0.7219667,957
0.7236333,846
0.7253,889
0.7269667,883
0.7286333,876
0.7303,756
0.7319667,889
0.7336333,918
0.7353,849
0.7369667,780
0.7386333,848
0.7403,769
0.7419667,890
0.7436333,990
0.7453,1013
0.7469667,1001
0.7486333,990
0.7503,717
0.7519667,1066
0.7536333,996
0.7553,940
0.7569667,813
0.7586333,681
0.7603,770
0.7619666,655
0.7636333,960
0.7653,972
0.7669666,768
0.7686333,897
0.7703,861
0.7719667,826
0.7736334,795
0.7753,812
0.7769667,858
0.7786334,883
0.7803,908
0.7819667,791
0.7836334,779
0.7853,961
0.7869667,992
0.7886333,928
0.7903,812
0.7919667,862
0.7936333,909
0.7953,957
0.7969667,739
0.7986333,844
0.8003,982
0.8019667,1031
0.8036333,829
0.8053,1038
0.8069667,1032
0.8086333,951
0.8103,895
0.8119667,988
0.8136333,814
0.8153,893
0.8169667,971
0.8186333,812
0.8203,1018
0.8219666,986
0.8236333,900
0.8253,903
0.8269666,775
0.8286333,1000
0.8303,1073
0.8319666,976
0.8336333,948
0.8353,917
0.8369667,959
0.8386334,874
0.8403,1008
0.8419667,780
0.8436334,861
0.8453,919
0.8469667,802
0.8486333,863
0.8503,924
0.8519667,874
0.8536333,824
0.8553,914
0.8569667,930
0.8586333,878
0.8603,825
0.8619667,799
0.8636333,724
0.8653,789
0.8669667,856
0.8686333,800
0.8703,743
0.8719667,880
0.8736333,737
0.8753,770
0.8769667,930
0.8786333,939
0.8803,947
0.8819667,1261
0.8836333,1276
0.8853,1292
0.8869666,1063
0.8886333,1255
0.8903,1298
0.8919666,1434
0.8936333,1320
0.8953,1164
0.8969667,1310
0.8986334,1405
0.9003,1235
0.9019667,1193
0.9036334,1270
0.9053,1267
0.9069667,1123
0.9086334,1252
0.9103,1352
0.9119667,1280
0.9136333,1201
0.9153,1258
0.9169667,1309
0.9186333,1320
0.9203,1330
0.9219667,1403
0.9236333,1330
0.9253,1258
0.9269667,1405
0.9286333,1183
0.9303,1362
0.9319667,1182
0.9336333,1402
0.9353,1211
0.9369667,1216
0.9386333,1188
0.9403,1281
0.9419667,1273
0.9436333,1248
0.9453,1155
0.9469666,1164
0.9486333,1296
0.9503,1077
0.9519666,1406
0.9536333,1002
0.9553,1273
0.9569666,980
0.9586333,1069
0.9603,931
0.9619667,1000
0.9636334,1126
0.9653,1049
0.9669667,824
0.9686334,857
0.9703,1169
0.9719667,1145
0.9736333,1071
0.9753,964
0.9769667,1064
0.9786333,937
0.9803,685
0.9819667,832
0.9836333,813
0.9853,894
0.9869667,763
0.9886333,804
0.9903,845
0.9919667,968
0.9936333,911
0.9953,1048
0.9969667,700
0.9986333,817
1.0003,708
1.001967,723
1.003633,737
1.0053,902
1.006967,1129
1.008633,1075
1.0103,913
1.011967,892
1.013633,957
1.0153,853
1.016967,857
1.018633,711
1.0203,768
1.021967,825
1.023633,827
1.0253,830
1.026967,806
1.028633,829
1.0303,851
1.031967,1014
1.033633,1039
1.0353,1014
1.036967,1045
1.038633,963
1.0403,817
1.041967,794
1.043633,894
1.0453,848
1.046967,802
1.048633,868
1.0503,879
1.051967,891
1.053633,893
1.0553,896
1.056967,919
1.058633,842
1.0603,766
1.061967,866
1.063633,928
1.0653,899
1.066967,936
1.068633,948
1.0703,811
1.071967,1008
1.073633,869
1.0753,1003
1.076967,889
1.078633,879
1.0803,797
1.081967,826
1.083633,747
1.0853,823
1.086967,898
1.088633,823
1.0903,747
1.091967,797
1.093633,823
1.0953,825
1.096967,827
1.098633,840
1.1003,805
1.101967,769
1.103633,786
1.1053,802
1.106967,842
1.108633,858
1.1103,874
1.111967,842
1.113633,810
1.1153,914
1.116967,725
1.118633,904
1.1203,951
1.121967,952
1.123633,865
1.1253,828
1.126967,842
1.128633,737
1.1303,892
1.131967,744
1.133633,805
1.1353,711
1.136967,841
1.138633,938
1.1403,900
1.141967,909
1.143633,918
1.1453,853
1.146967,811
1.148633,769
1.1503,790
1.151967,811
1.153633,724
1.1553,769
1.156967,815
1.158633,800
1.1603,786
1.161967,797
1.163633,808
1.1653,869
1.166967,1001
1.168633,1028
1.1703,923
1.171967,832
1.173633,964
1.1753,984
1.176967,831
1.178633,827
1.1803,839
1.181967,836
1.183633,833
1.1853,793
1.186967,900
1.188633,919
1.1903,882
1.191967,966
1.193633,972
1.1953,795
1.196967,973
1.198633,1024
