"SampleName","A2Rd2_02-34"
"Target Mass 1",
"Column Name","IA-3 (3um, 4.6X100)"
"Channel","QDa 1: SIR Ch2"
0.00195,616
0.003616667,539
0.005283333,602
0.00695,800
0.008616666,824
0.01028333,1153
0.01195,1002
0.01361667,961
0.01528333,874
0.01695,874
0.01861667,786
0.02028333,804
0.02195,822
0.02361667,886
0.02528333,854
0.02695,822
0.02861667,840
0.03028333,865
0.03195,890
0.03361667,902
0.03528333,886
0.03695,870
0.03861667,1023
0.04028333,993
0.04195,1163
0.04361667,1108
0.04528333,929
0.04695,1085
0.04861667,854
0.05028334,918
0.05195,939
0.05361667,874
0.05528333,896
0.05695,918
0.05861667,980
0.06028333,966
0.06195,951
0.06361666,865
0.06528334,944
0.06695,1022
0.06861667,763
0.07028333,915
0.07195,915
0.07361667,914
0.07528333,899
0.07695,884
0.07861666,899
0.08028334,779
0.08195,776
0.08361667,860
0.08528333,797
0.08695,938
0.08861667,941
0.09028333,751
0.09195,845
0.09361666,1013
0.09528334,984
0.09695,883
0.09861667,1017
0.1002833,851
0.10195,835
0.1036167,890
0.1052833,945
0.10695,1008
0.1086167,1053
0.1102833,888
0.11195,930
0.1136167,972
0.1152833,805
0.11695,866
0.1186167,695
0.1202833,856
0.12195,571
0.1236167,899
0.1252833,686
0.12695,882
0.1286167,959
0.1302833,956
0.13195,1034
0.1336167,825
0.1352833,760
0.13695,978
0.1386167,800
0.1402833,705
0.14195,754
0.1436167,789
0.1452833,823
0.14695,802
0.1486167,775
0.1502833,749
0.15195,860
0.1536167,901
0.1552833,677
0.15695,958
0.1586167,962
0.1602833,918
0.16195,880
0.1636167,969
0.1652833,797
0.16695,971
0.1686167,756
0.1702833,762
0.17195,791
0.1736167,809
0.1752833,827
0.17695,796
0.1786167,770
0.1802833,743
0.18195,791
0.1836167,720
0.1852833,649
0.18695,762
0.1886167,787
0.1902833,811
0.19195,786
0.1936167,762
0.1952833,877
0.19695,900
0.1986167,847
0.2002833,794
0.20195,832
0.2036167,793
0.2052833,753
0.20695,815
0.2086167,798
0.2102833,759
0.21195,719
0.2136167,1035
0.2152833,1051
0.21695,1016
0.2186167,1020
0.2202833,800
0.22195,869
0.2236167,938
0.2252833,960
0.22695,899
0.2286167,839
0.2302833,1086
0.23195,1136
0.2336167,1148
0.2352833,981
0.23695,1135
0.2386167,1320
0.2402833,1359
0.24195,1180
0.2436167,1203
0.2452833,1161
0.24695,1155
0.2486167,1150
0.2502833,1144
0.25195,1052
0.2536167,1081
0.2552833,1093
0.25695,1105
0.2586167,1039
0.2602833,827
0.26195,983
0.2636333,966
0.2652833,1097
0.26695,1111
0.2686167,1124
0.2702833,987
0.27195,1081
0.2736167,1100
0.2752833,1046
0.27695,1121
0.2786167,1181
0.2803,1195
0.28195,1064
0.2836167,926
0.2852833,1074
0.28695,1210
0.2886167,1115
0.2902833,1037
0.29195,1012
0.2936167,1020
0.2952833,1028
0.2969667,957
0.2986333,1155
0.3002833,1154
0.30195,1068
0.3036167,1070
0.3052833,805
0.30695,1083
0.3086167,1103
0.3102833,1064
0.31195,1193
0.3136167,1155
0.3153,1118
0.31695,1193
0.3186167,1268
0.3202833,1469
0.3219667,1519
0.3236167,1230
0.3252833,1091
0.32695,1260
0.3286167,1238
0.3303,1226
0.33195,1090
0.3336333,1167
0.3353,1216
0.33695,1112
0.3386333,1008
0.3402833,1180
0.34195,981
0.3436333,1264
0.3452833,1214
0.3469667,1296
0.3486333,1181
0.3503,1057
0.3519667,1256
0.3536333,1289
0.3553,1394
0.35695,1409
0.3586333,1289
0.3602833,1096
0.3619667,1173
0.3636333,1396
0.3653,1830
0.3669667,2932
0.3686333,3184
0.3703,3696
0.3719667,3789
0.3736333,3769
0.3753,3425
0.37695,3273
0.3786333,3560
0.3803,3625
0.3819667,3690
0.3836333,2771
0.3853,2675
0.3869667,1939
0.3886333,1851
0.3903,1288
0.3919667,1081
0.3936167,882
0.3953,872
0.3969667,510
0.3986333,469
0.4003,555
0.4019667,496
0.4036333,532
0.4053,569
0.4069667,538
0.4086333,571
0.4103,506
0.4119667,566
0.4136333,556
0.4153,546
0.4169667,570
0.4186333,595
0.4203,616
0.4219667,614
0.4236333,613
0.4253,610
0.4269667,608
0.4286333,696
0.4303,705
0.4319667,714
0.4336333,752
0.4353,791
0.4369667,853
0.4386333,916
0.4403,886
0.4419667,813
0.4436333,1049
0.4453,1174
0.4469667,1191
0.4486333,1236
0.4503,1191
0.4519667,1224
0.4536333,1253
0.4553,1281
0.4569667,1323
0.4586333,1365
0.4603,1323
0.4619667,1280
0.4636333,1426
0.4653,1567
0.4669667,1612
0.4686333,1591
0.4703,1366
0.4719667,1708
0.4736333,1376
0.4753,1333
0.4769667,1294
0.4786333,1479
0.4803,1462
0.4819667,1499
0.4836333,1611
0.4853,1219
0.4869667,1372
0.4886333,1125
0.4903,1138
0.4919667,1248
0.4936333,1228
0.4953,1102
0.4969667,1203
0.4986333,1226
0.5003,1097
0.5019667,1065
0.5036333,1065
0.5053,1021
0.5069667,947
0.5086333,992
0.5103,1065
0.5119666,1071
0.5136333,996
0.5153,1049
0.5169666,1029
0.5186333,1077
0.5203,1058
0.5219667,866
0.5236334,1103
0.5253,1052
0.5269667,1037
0.5286334,864
0.5303,1088
0.5319667,740
0.5336334,1060
0.5353,1077
0.5369667,923
0.5386333,1040
0.5403,1061
0.5419667,1023
0.5436333,1088
0.5453,916
0.5469667,941
0.5486333,937
0.5503,933
0.5519667,903
0.5536333,874
0.5553,920
0.5569667,966
0.5586333,958
0.5603,964
0.5619667,946
0.5636333,928
0.5653,1091
0.5669667,637
0.5686333,1025
0.5703,1171
0.5719666,1013
0.5736333,1127
0.5753,1179
0.5769666,897
0.5786333,941
0.5803,1017
0.5819666,1120
0.5836333,1125
0.5853,1223
0.5869667,1217
0.5886334,983
0.5903,1074
0.5919667,965
0.5936334,1092
0.5953,1193
0.5969667,900
0.5986333,1075
0.6003,999
0.6019667,1064
0.6036333,951
0.6053,948
0.6069667,946
0.6086333,1074
0.6103,1024
0.6119667,974
0.6136333,1038
0.6153,949
0.6169667,953
0.6186333,957
0.6203,952
0.6219667,947
0.6236333,1056
0.6253,1068
0.6269667,1017
0.6286333,973
0.6303,842
0.6319667,1143
0.6336333,1034
0.6353,998
0.6369666,960
0.6386333,988
0.6403,1019
0.6419666,1050
0.6436333,1038
0.6453,1102
0.6469667,837
0.6486334,990
0.6503,990
0.6519667,1043
0.6536334,904
0.6553,1055
0.6569667,1043
0.6586334,881
0.6603,837
0.6619667,957
0.6636333,858
0.6653,928
0.6669667,889
0.6686333,998
0.6703,751
0.6719667,991
0.6736333,802
0.6753,856
0.6769667,785
0.6786333,850
0.6803,891
0.6819667,1030
0.6836333,987
0.6853,943
0.6869667,835
0.6886333,825
0.6903,839
0.6919667,817
0.6936333,795
0.6953,1152
0.6969666,1067
0.6986333,1185
0.7003,985
0.7019666,1053
0.7036333,1165
0.7053,1144
0.7069666,1102
0.7086333,1052
0.7103,941
0.7119667,1078
0.7136334,1026
0.7153,973
0.7169667,1064
0.7186334,1220
0.7203,1176
0.7219667,1318
0.7236333,865
0.7253,1057
0.7269667,998
0.7286333,986
0.7303,974
0.7319667,990
0.7336333,1006
0.7353,999
0.7369667,992
0.7386333,865
0.7403,1083
0.7419667,807
0.7436333,886
0.7453,913
0.7469667,905
0.7486333,897
0.7503,727
0.7519667,786
0.7536333,938
0.7553,799
0.7569667,660
0.7586333,767
0.7603,818
0.7619666,837
0.7636333,728
0.7653,892
0.7669666,902
0.7686333,788
0.7703,915
0.7719667,1053
0.7736334,1062
0.7753,829
0.7769667,727
0.7786334,1010
0.7803,915
0.7819667,855
0.7836334,862
0.7853,1081
0.7869667,1197
0.7886333,1009
0.7903,1035
0.7919667,1051
0.7936333,1044
0.7953,1036
0.7969667,1006
0.7986333,1050
0.8003,1039
0.8019667,1029
0.8036333,1222
0.8053,1191
0.8069667,1207
0.8086333,1223
0.8103,1345
0.8119667,1425
0.8136333,1413
0.8153,1364
0.8169667,1035
0.8186333,1276
0.8203,1374
0.8219666,1296
0.8236333,1449
0.8253,1406
0.8269666,1168
0.8286333,1231
0.8303,1184
0.8319666,1138
0.8336333,1180
0.8353,1248
0.8369667,1200
0.8386334,1152
0.8403,1112
0.8419667,1170
0.8436334,913
0.8453,1066
0.8469667,994
0.8486333,1079
0.8503,1065
0.8519667,928
0.8536333,920
0.8553,874
0.8569667,828
0.8586333,899
0.8603,893
0.8619667,888
0.8636333,903
0.8653,919
0.8669667,859
0.8686333,817
0.8703,774
0.8719667,874
0.8736333,974
0.8753,949
0.8769667,896
0.8786333,957
0.8803,1019
0.8819667,1081
0.8836333,1174
0.8853,1170
0.8869666,1162
0.8886333,1139
0.8903,1340
0.8919666,1426
0.8936333,1316
0.8953,1426
0.8969667,1320
0.8986334,1511
0.9003,1176
0.9019667,1293
0.9036334,1338
0.9053,1304
0.9069667,1325
0.9086334,1311
0.9103,1297
0.9119667,1288
0.9136333,1265
0.9153,1297
0.9169667,1269
0.9186333,1242
0.9203,1232
0.9219667,1078
0.9236333,1120
0.9253,1126
0.9269667,1131
0.9286333,1130
0.9303,1128
0.9319667,1172
0.9336333,1127
0.9353,1082
0.9369667,1154
0.9386333,1216
0.9403,1116
0.9419667,1015
0.9436333,1330
0.9453,1324
0.9469666,1126
0.9486333,1192
0.9503,1120
0.9519666,1256
0.9536333,1009
0.9553,1198
0.9569666,898
0.9586333,1236
0.9603,1169
0.9619667,1101
0.9636334,1030
0.9653,1116
0.9669667,1065
0.9686334,1113
0.9703,1097
0.9719667,1219
0.9736333,921
0.9753,1001
0.9769667,1042
0.9786333,892
0.9803,970
0.9819667,952
0.9836333,944
0.9853,935
0.9869667,965
0.9886333,994
0.9903,1006
0.9919667,998
0.9936333,990
0.9953,1097
0.9969667,1143
0.9986333,1110
1.0003,1071
1.001967,1233
1.003633,942
1.0053,945
1.006967,1231
1.008633,1143
1.0103,1100
1.011967,1273
1.013633,1216
1.0153,1198
1.016967,1216
1.018633,1248
1.0203,1245
1.021967,1352
1.023633,1033
1.0253,1179
1.026967,1073
1.028633,1089
1.0303,1105
1.031967,1203
1.033633,1176
1.0353,1160
1.036967,1147
1.038633,1065
1.0403,1002
1.041967,1124
1.043633,1073
1.0453,1097
1.046967,1044
1.048633,924
1.0503,893
1.051967,835
1.053633,914
1.0553,812
1.056967,771
1.058633,808
1.0603,845
1.061967,932
1.063633,1019
1.0653,1022
1.066967,808
1.068633,1004
1.0703,997
1.071967,998
1.073633,1014
1.0753,1031
1.076967,1087
1.078633,1119
1.0803,1165
1.081967,1101
1.083633,981
1.0853,1169
1.086967,1162
1.088633,1059
1.0903,747
1.091967,949
1.093633,1014
1.0953,1123
1.096967,991
1.098633,1081
1.1003,994
1.101967,992
1.103633,1056
1.1053,870
1.106967,1033
1.108633,814
1.1103,749
1.111967,1158
1.113633,1011
1.1153,987
1.116967,855
1.118633,924
1.1203,921
1.121967,878
1.123633,746
1.1253,923
1.126967,950
1.128633,905
1.1303,899
1.131967,893
1.133633,829
1.1353,985
1.136967,751
1.138633,964
1.1403,815
1.141967,852
1.143633,896
1.1453,855
1.146967,815
1.148633,838
1.1503,784
1.151967,856
1.153633,736
1.1553,990
1.156967,930
1.158633,845
1.1603,769
1.161967,739
1.163633,766
1.1653,907
1.166967,872
1.168633,921
1.1703,706
1.171967,1003
1.173633,896
1.1753,806
1.176967,895
1.178633,777
1.1803,796
1.181967,803
1.183633,833
1.1853,807
1.186967,780
1.188633,856
1.1903,651
1.191967,781
1.193633,912
1.1953,916
1.196967,692
1.198633,840
