"SampleName","A2Rd2_02-72"
"Target Mass 1",
"Column Name","IA-3 (3um, 4.6X100)"
"Channel","QDa 1: SIR Ch1"
0.00195,396
0.003616667,559
0.005283333,530
0.00695,538
0.008616666,557
0.01028333,575
0.01195,453
0.01361667,500
0.01528333,431
0.01695,556
0.01861667,490
0.02028333,424
0.02195,479
0.02361667,615
0.02528333,603
0.02695,438
0.02861667,705
0.03028333,431
0.03195,715
0.03361667,527
0.03528333,690
0.03695,539
0.03861667,564
0.04028333,669
0.04195,620
0.04361667,468
0.04528333,473
0.04695,565
0.04861667,557
0.05028334,627
0.05195,441
0.05361667,494
0.05528333,675
0.05695,530
0.05861667,483
0.06028333,494
0.06195,534
0.06361666,487
0.06528334,604
0.06695,642
0.06861667,561
0.07028333,576
0.07195,601
0.07361667,519
0.07528333,621
0.07695,394
0.07861666,678
0.08028334,654
0.08195,505
0.08361667,636
0.08528333,608
0.08695,612
0.08861667,543
0.09028333,500
0.09195,486
0.09361666,536
0.09528334,389
0.09695,544
0.09861667,610
0.1002833,614
0.10195,622
0.1036167,408
0.1052833,504
0.10695,617
0.1086167,494
0.1102833,650
0.11195,386
0.1136167,544
0.1152833,481
0.11695,553
0.1186167,551
0.1202833,549
0.12195,655
0.1236167,666
0.1252833,589
0.12695,456
0.1286167,444
0.1302833,515
0.13195,490
0.1336167,515
0.1352833,495
0.13695,535
0.1386167,544
0.1402833,374
0.14195,393
0.1436167,481
0.1452833,548
0.14695,475
0.1486167,506
0.1502833,537
0.15195,514
0.1536167,578
0.1552833,585
0.15695,527
0.1586167,403
0.1602833,575
0.16195,505
0.1636167,560
0.1652833,391
0.16695,499
0.1686167,495
0.1702833,474
0.17195,477
0.1736167,523
0.1752833,507
0.17695,490
0.1786167,392
0.1802833,627
0.18195,596
0.1836167,590
0.1852833,548
0.18695,596
0.1886167,472
0.1902833,587
0.19195,462
0.1936167,415
0.1952833,463
0.19695,522
0.1986167,596
0.2002833,549
0.20195,429
0.2036167,482
0.2052833,426
0.20695,439
0.2086167,452
0.2102833,411
0.21195,371
0.2136167,442
0.2152833,440
0.21695,438
0.2186167,429
0.2202833,419
0.22195,526
0.2236167,550
0.2252833,499
0.22695,456
0.2286167,569
0.2302833,495
0.23195,699
0.2336167,673
0.2352833,557
0.23695,630
0.2386167,550
0.2402833,505
0.24195,441
0.2436167,444
0.2452833,558
0.24695,540
0.2486167,475
0.2502833,477
0.25195,406
0.2536167,444
0.2552833,481
0.25695,468
0.2586167,456
0.2602833,487
0.26195,455
0.2636167,436
0.2652833,499
0.26695,488
0.2686167,447
0.2702833,516
0.27195,530
0.2736167,560
0.2752833,473
0.27695,546
0.2786167,490
0.2803,538
0.28195,335
0.2836167,481
0.2852833,467
0.28695,501
0.2886167,536
0.2902833,549
0.29195,561
0.2936167,598
0.2952833,420
0.29695,641
0.2986333,491
0.3002833,449
0.30195,537
0.3036167,487
0.3052833,521
0.30695,502
0.3086167,484
0.3102833,507
0.3119667,492
0.3136167,477
0.3153,541
0.31695,577
0.3186167,566
0.3202833,576
0.32195,552
0.3236167,570
0.3252833,509
0.32695,553
0.3286167,493
0.3302833,617
0.33195,606
0.3336333,518
0.3352833,538
0.3369667,528
0.3386167,518
0.3402833,403
0.3419667,418
0.3436167,433
0.3453,478
0.34695,466
0.3486167,454
0.3503,464
0.35195,474
0.3536333,587
0.3552833,619
0.35695,558
0.3586333,607
0.3602833,729
0.3619667,720
0.3636167,865
0.3652833,1287
0.36695,1528
0.3686333,2762
0.3703,2962
0.3719667,3545
0.3736167,3270
0.3753,3471
0.3769667,3398
0.3786333,3324
0.3803,3812
0.3819667,4300
0.3836167,4153
0.3853,4231
0.3869667,4032
0.3886333,3560
0.3902833,2889
0.3919667,2253
0.3936333,2071
0.3953,2025
0.39695,1714
0.3986333,1407
0.4002833,1718
0.40195,1243
0.4036333,1138
0.4053,1151
0.4069667,1151
0.4086333,1289
0.4103,1258
0.4119667,1089
0.4136167,1165
0.4153,1263
0.41695,1209
0.4186333,841
0.4203,1189
0.4219667,960
0.4236333,1074
0.4253,1186
0.4269667,1299
0.4286333,1218
0.4303,1295
0.4319667,1562
0.4336333,2147
0.4353,3397
0.4369667,4898
0.4386333,8308
0.4403,14424
0.4419667,21992
0.4436333,33616
0.4453,47552
0.4469667,63264
0.4486333,83664
0.4503,101632
0.4519667,119984
0.4536333,137216
0.4553,146688
0.4569667,158912
0.4586333,166784
0.4603,167168
0.4619667,170752
0.4636333,170176
0.4653,173632
0.4669667,175936
0.4686333,177920
0.4703,181568
0.4719667,184512
0.4736333,189312
0.4753,198272
0.4769667,206080
0.4786333,201152
0.4803,203136
0.4819667,191680
0.4836333,183552
0.4853,168704
0.4869667,153728
0.4886333,134592
0.4903,119344
0.4919667,101760
0.4936333,83856
0.4953,71776
0.4969667,57632
0.4986333,48288
0.5003,39568
0.5019667,32768
0.5036333,26828
0.5053,20444
0.5069667,17820
0.5086333,13264
0.5103,11532
0.5119666,9980
0.5136333,9192
0.5153,6706
0.5169666,6129
0.5186333,5601
0.5203,5266
0.5219667,5368
0.5236334,4412
0.5253,4025
0.5269667,4075
0.5286334,3753
0.5303,3356
0.5319667,2961
0.5336334,2916
0.5353,2922
0.5369667,2830
0.5386333,2665
0.5403,2227
0.5419667,2657
0.5436333,2508
0.5453,2083
0.5469667,2040
0.5486333,2274
0.5503,1772
0.5519667,2190
0.5536333,2029
0.5553,1886
0.5569667,1728
0.5586333,1718
0.5603,1660
0.5619667,1766
0.5636333,1254
0.5653,1653
0.5669667,1242
0.5686333,1455
0.5703,1706
0.5719666,1488
0.5736333,1663
0.5753,1572
0.5769666,1316
0.5786333,1386
0.5803,1612
0.5819666,1189
0.5836333,1453
0.5853,1163
0.5869667,1245
0.5886334,1327
0.5903,1241
0.5919667,1364
0.5936334,1303
0.5953,1243
0.5969667,1348
0.5986333,1381
0.6003,1276
0.6019667,1358
0.6036333,1376
0.6053,1362
0.6069667,1289
0.6086333,1134
0.6103,1164
0.6119667,1249
0.6136333,1219
0.6153,1060
0.6169667,1097
0.6186333,1162
0.6203,1116
0.6219667,1054
0.6236333,1051
0.6253,953
0.6269667,1060
0.6286333,967
0.6303,1031
0.6319667,1118
0.6336333,1157
0.6353,981
0.6369666,1049
0.6386333,1111
0.6403,901
0.6419666,979
0.6436333,1013
0.6453,1001
0.6469667,842
0.6486334,862
0.6503,968
0.6519667,931
0.6536334,895
0.6553,929
0.6569667,935
0.6586334,911
0.6603,909
0.6619667,907
0.6636333,887
0.6653,867
0.6669667,821
0.6686333,923
0.6703,819
0.6719667,814
0.6736333,810
0.6753,852
0.6769667,928
0.6786333,966
0.6803,824
0.6819667,824
0.6836333,885
0.6853,809
0.6869667,725
0.6886333,938
0.6903,842
0.6919667,668
0.6936333,758
0.6953,647
0.6969666,668
0.6986333,688
0.7003,788
0.7019666,951
0.7036333,921
0.7053,912
0.7069666,928
0.7086333,931
0.7103,934
0.7119667,729
0.7136334,915
0.7153,854
0.7169667,846
0.7186334,810
0.7203,781
0.7219667,751
0.7236333,531
0.7253,973
0.7269667,788
0.7286333,653
0.7303,934
0.7319667,805
0.7336333,867
0.7353,840
0.7369667,811
0.7386333,909
0.7403,618
0.7419667,866
0.7436333,742
0.7453,789
0.7469667,675
0.7486333,780
0.7503,815
0.7519667,777
0.7536333,1005
0.7553,953
0.7569667,745
0.7586333,741
0.7603,877
0.7619666,914
0.7636333,867
0.7653,737
0.7669666,769
0.7686333,752
0.7703,821
0.7719667,798
0.7736334,924
0.7753,886
0.7769667,788
0.7786334,701
0.7803,697
0.7819667,692
0.7836334,704
0.7853,885
0.7869667,863
0.7886333,842
0.7903,904
0.7919667,947
0.7936333,941
0.7953,888
0.7969667,687
0.7986333,990
0.8003,679
0.8019667,860
0.8036333,919
0.8053,906
0.8069667,795
0.8086333,856
0.8103,932
0.8119667,860
0.8136333,845
0.8153,1025
0.8169667,680
0.8186333,921
0.8203,984
0.8219666,911
0.8236333,972
0.8253,849
0.8269666,746
0.8286333,869
0.8303,992
0.8319666,918
0.8336333,805
0.8353,945
0.8369667,836
0.8386334,922
0.8403,992
0.8419667,1003
0.8436334,1060
0.8453,1045
0.8469667,763
0.8486333,877
0.8503,847
0.8519667,876
0.8536333,916
0.8553,965
0.8569667,1014
0.8586333,979
0.8603,849
0.8619667,786
0.8636333,776
0.8653,868
0.8669667,837
0.8686333,696
0.8703,860
0.8719667,669
0.8736333,874
0.8753,931
0.8769667,1384
0.8786333,1661
0.8803,1821
0.8819667,2417
0.8836333,2645
0.8853,3225
0.8869666,3171
0.8886333,3761
0.8903,3667
0.8919666,3377
0.8936333,3872
0.8953,3784
0.8969667,3908
0.8986334,3284
0.9003,3546
0.9019667,3186
0.9036334,3574
0.9053,3550
0.9069667,3634
0.9086334,3645
0.9103,3656
0.9119667,3123
0.9136333,3676
0.9153,3159
0.9169667,3924
0.9186333,3454
0.9203,3747
0.9219667,3802
0.9236333,3826
0.9253,3031
0.9269667,3538
0.9286333,2860
0.9303,3389
0.9319667,3442
0.9336333,3314
0.9353,3404
0.9369667,3332
0.9386333,3314
0.9403,2910
0.9419667,3064
0.9436333,2826
0.9453,2685
0.9469666,3039
0.9486333,2464
0.9503,2742
0.9519666,2472
0.9536333,2181
0.9553,2331
0.9569666,2207
0.9586333,1921
0.9603,2083
0.9619667,1563
0.9636334,1639
0.9653,1749
0.9669667,1602
0.9686334,1759
0.9703,1482
0.9719667,1409
0.9736333,1514
0.9753,1417
0.9769667,1431
0.9786333,1129
0.9803,1077
0.9819667,968
0.9836333,978
0.9853,793
0.9869667,882
0.9886333,904
0.9903,796
0.9919667,794
0.9936333,712
0.9953,694
0.9969667,675
0.9986333,599
1.0003,598
1.001967,637
1.003633,677
1.0053,649
1.006967,659
1.008633,560
1.0103,662
1.011967,674
1.013633,843
1.0153,859
1.016967,746
1.018633,808
1.0203,611
1.021967,591
1.023633,755
1.0253,811
1.026967,509
1.028633,709
1.0303,567
1.031967,669
1.033633,722
1.0353,710
1.036967,718
1.038633,727
1.0403,617
1.041967,557
1.043633,635
1.0453,643
1.046967,649
1.048633,714
1.0503,738
1.051967,762
1.053633,572
1.0553,776
1.056967,616
1.058633,651
1.0603,816
1.061967,580
1.063633,683
1.0653,762
1.066967,679
1.068633,772
1.0703,552
1.071967,674
1.073633,530
1.0753,635
1.076967,637
1.078633,611
1.0803,602
1.081967,687
1.083633,696
1.0853,636
1.086967,684
1.088633,638
1.0903,662
1.091967,686
1.093633,715
1.0953,655
1.096967,594
1.098633,763
1.1003,601
1.101967,796
1.103633,668
1.1053,705
1.106967,679
1.108633,648
1.1103,746
1.111967,749
1.113633,711
1.1153,633
1.116967,598
1.118633,562
1.1203,566
1.121967,576
1.123633,585
1.1253,518
1.126967,553
1.128633,588
1.1303,619
1.131967,649
1.133633,615
1.1353,692
1.136967,862
1.138633,825
1.1403,791
1.141967,884
1.143633,727
1.1453,667
1.146967,674
1.148633,903
1.1503,942
1.151967,558
1.153633,726
1.1553,814
1.156967,752
1.158633,736
1.1603,856
1.161967,856
1.163633,848
1.1653,826
1.166967,837
1.168633,780
1.1703,908
1.171967,707
1.173633,754
1.1753,923
1.176967,835
1.178633,940
1.1803,869
1.181967,847
1.183633,891
1.1853,881
1.186967,752
1.188633,799
1.1903,772
1.191967,792
1.193633,811
1.1953,801
1.196967,790
1.198633,771
