"SampleName","A2Rd2_02-95"
"Target Mass 1",
"Column Name","IA-3 (3um, 4.6X100)"
"Channel","QDa 1: SIR Ch1"
0.00195,498
0.003616667,603
0.005283333,554
0.00695,601
0.008616666,560
0.01028333,590
0.01195,621
0.01361667,634
0.01528333,646
0.01695,472
0.01861667,599
0.02028333,509
0.02195,564
0.02361667,599
0.02528333,609
0.02695,619
0.02861667,576
0.03028333,425
0.03195,620
0.03361667,527
0.03528333,618
0.03695,521
0.03861667,545
0.04028333,570
0.04195,609
0.04361667,671
0.04528333,648
0.04695,563
0.04861667,545
0.05028334,544
0.05195,542
0.05361667,497
0.05528333,615
0.05695,653
0.05861667,524
0.06028333,620
0.06195,579
0.06361666,483
0.06528334,552
0.06695,605
0.06861667,607
0.07028333,399
0.07195,625
0.07361667,583
0.07528333,553
0.07695,557
0.07861666,628
0.08028334,644
0.08195,539
0.08361667,585
0.08528333,452
0.08695,457
0.08861667,648
0.09028333,711
0.09195,506
0.09361666,683
0.09528334,495
0.09695,335
0.09861667,509
0.1002833,463
0.10195,506
0.1036167,516
0.1052833,582
0.10695,582
0.1086167,614
0.1102833,569
0.11195,524
0.1136167,519
0.1152833,481
0.11695,490
0.1186167,500
0.1202833,385
0.12195,573
0.1236167,586
0.1252833,598
0.12695,461
0.1286167,573
0.1302833,655
0.13195,613
0.1336167,593
0.1352833,537
0.13695,631
0.1386167,423
0.1402833,631
0.14195,600
0.1436167,507
0.1452833,545
0.14695,484
0.1486167,507
0.1502833,590
0.15195,619
0.1536167,437
0.1552833,553
0.15695,745
0.1586167,632
0.1602833,586
0.16195,489
0.1636167,629
0.1652833,572
0.16695,540
0.1686167,503
0.1702833,525
0.17195,548
0.1736167,540
0.1752833,549
0.17695,559
0.1786167,517
0.1802833,403
0.18195,616
0.1836167,564
0.1852833,512
0.18695,495
0.1886167,521
0.1902833,508
0.19195,540
0.1936167,525
0.1952833,510
0.19695,454
0.1986167,558
0.2002833,546
0.20195,470
0.2036167,610
0.2052833,590
0.20695,503
0.2086167,422
0.2102833,452
0.21195,593
0.2136167,561
0.2152833,528
0.21695,370
0.2186167,485
0.2202833,604
0.22195,501
0.2236167,449
0.2252833,418
0.22695,387
0.2286167,465
0.2302833,441
0.23195,417
0.2336167,458
0.2352833,612
0.23695,573
0.2386167,612
0.2402833,435
0.24195,599
0.2436167,491
0.2452833,544
0.24695,514
0.2486167,486
0.2502833,457
0.25195,481
0.2536167,505
0.2552833,502
0.25695,486
0.2586167,470
0.2602833,499
0.26195,527
0.2636333,432
0.2653,503
0.26695,526
0.2686167,550
0.2702833,563
0.27195,576
0.2736167,502
0.2752833,491
0.27695,598
0.2786167,443
0.2803,554
0.28195,561
0.2836167,558
0.2852833,554
0.28695,714
0.2886167,677
0.2902833,377
0.29195,539
0.2936167,511
0.2952833,539
0.29695,593
0.2986333,575
0.3002833,556
0.30195,610
0.3036167,493
0.3052833,633
0.30695,535
0.3086167,670
0.3102833,548
0.31195,632
0.3136167,639
0.3153,564
0.31695,489
0.3186167,513
0.3202833,589
0.3219667,601
0.3236167,480
0.3252833,567
0.32695,654
0.3286167,693
0.3302833,604
0.33195,568
0.3336333,532
0.3353,534
0.33695,455
0.3386333,565
0.3402833,740
0.34195,750
0.3436167,650
0.3452833,441
0.34695,598
0.3486333,493
0.3503,461
0.3519667,625
0.3536333,655
0.3553,553
0.35695,665
0.3586167,599
0.3602833,543
0.3619667,702
0.3636167,760
0.3653,1193
0.36695,1505
0.3686333,2165
0.3702833,2503
0.3719667,3105
0.3736167,3270
0.3752833,2901
0.37695,3058
0.3786167,3215
0.3803,3803
0.38195,3733
0.3836333,4381
0.3853,4076
0.3869667,3501
0.3886333,3374
0.3903,2928
0.3919667,2716
0.3936333,2088
0.3953,1712
0.3969667,1413
0.3986333,1313
0.4003,1260
0.4019667,1155
0.4036333,1215
0.4053,1006
0.4069667,1036
0.4086333,1120
0.4103,968
0.4119667,1118
0.4136333,1063
0.4153,886
0.4169667,932
0.4186333,979
0.4203,1135
0.4219667,1234
0.4236333,1267
0.4253,1313
0.4269667,1202
0.4286333,1362
0.4303,1353
0.4319667,1471
0.4336333,1925
0.4353,2669
0.4369667,4474
0.4386333,7082
0.4403,12756
0.4419667,20072
0.4436333,31108
0.4453,46096
0.4469667,62752
0.4486333,81232
0.4503,101552
0.4519667,117472
0.4536333,139840
0.4553,151296
0.4569667,166592
0.4586333,171136
0.4603,181056
0.4619667,186240
0.4636333,187008
0.4653,187648
0.4669667,183104
0.4686333,190464
0.4703,188352
0.4719667,190144
0.4736333,194944
0.4753,202368
0.4769667,206976
0.4786333,210240
0.4803,211136
0.4819667,214080
0.4836333,203648
0.4853,200832
0.4869667,188352
0.4886333,172416
0.4903,156928
0.4919667,139840
0.4936333,125552
0.4953,106256
0.4969667,91696
0.4986333,76880
0.5003,65424
0.5019667,53424
0.5036333,43952
0.5053,35680
0.5069667,29984
0.5086333,24784
0.5103,20244
0.5119666,16520
0.5136333,14572
0.5153,12812
0.5169666,10876
0.5186333,8952
0.5203,7877
0.5219667,7305
0.5236334,6062
0.5253,5829
0.5269667,5032
0.5286334,4554
0.5303,4564
0.5319667,4189
0.5336334,3649
0.5353,3323
0.5369667,3301
0.5386333,3201
0.5403,3436
0.5419667,2863
0.5436333,2878
0.5453,2902
0.5469667,2663
0.5486333,2616
0.5503,2503
0.5519667,2653
0.5536333,2294
0.5553,2226
0.5569667,2077
0.5586333,2080
0.5603,1912
0.5619667,2126
0.5636333,2143
0.5653,1980
0.5669667,1870
0.5686333,1870
0.5703,1817
0.5719666,1652
0.5736333,1707
0.5753,1538
0.5769666,1692
0.5786333,1427
0.5803,1594
0.5819666,1793
0.5836333,1535
0.5853,1705
0.5869667,1650
0.5886334,1357
0.5903,1612
0.5919667,1575
0.5936334,1725
0.5953,1536
0.5969667,1491
0.5986333,1604
0.6003,1435
0.6019667,1687
0.6036333,1660
0.6053,1284
0.6069667,1437
0.6086333,1653
0.6103,1413
0.6119667,1536
0.6136333,1458
0.6153,1255
0.6169667,1442
0.6186333,1326
0.6203,1394
0.6219667,1402
0.6236333,1315
0.6253,1369
0.6269667,1332
0.6286333,1265
0.6303,1137
0.6319667,1237
0.6336333,1181
0.6353,1175
0.6369666,1182
0.6386333,1091
0.6403,1154
0.6419666,906
0.6436333,1092
0.6453,1257
0.6469667,1097
0.6486334,1175
0.6503,1082
0.6519667,920
0.6536334,958
0.6553,1120
0.6569667,966
0.6586334,1005
0.6603,1005
0.6619667,902
0.6636333,988
0.6653,917
0.6669667,864
0.6686333,974
0.6703,833
0.6719667,855
0.6736333,961
0.6753,945
0.6769667,929
0.6786333,962
0.6803,995
0.6819667,887
0.6836333,901
0.6853,915
0.6869667,883
0.6886333,851
0.6903,997
0.6919667,989
0.6936333,1009
0.6953,876
0.6969666,1028
0.6986333,1000
0.7003,691
0.7019666,897
0.7036333,736
0.7053,757
0.7069666,993
0.7086333,899
0.7103,982
0.7119667,852
0.7136334,842
0.7153,711
0.7169667,831
0.7186334,852
0.7203,851
0.7219667,863
0.7236333,876
0.7253,734
0.7269667,810
0.7286333,920
0.7303,1101
0.7319667,994
0.7336333,960
0.7353,996
0.7369667,1019
0.7386333,789
0.7403,984
0.7419667,831
0.7436333,898
0.7453,726
0.7469667,761
0.7486333,795
0.7503,846
0.7519667,903
0.7536333,872
0.7553,777
0.7569667,961
0.7586333,805
0.7603,977
0.7619666,805
0.7636333,763
0.7653,858
0.7669666,868
0.7686333,878
0.7703,845
0.7719667,713
0.7736334,872
0.7753,859
0.7769667,940
0.7786334,821
0.7803,820
0.7819667,881
0.7836334,895
0.7853,933
0.7869667,952
0.7886333,951
0.7903,951
0.7919667,865
0.7936333,866
0.7953,820
0.7969667,868
0.7986333,833
0.8003,849
0.8019667,826
0.8036333,964
0.8053,937
0.8069667,995
0.8086333,948
0.8103,901
0.8119667,978
0.8136333,937
0.8153,745
0.8169667,1030
0.8186333,895
0.8203,1020
0.8219666,818
0.8236333,879
0.8253,939
0.8269666,942
0.8286333,807
0.8303,848
0.8319666,877
0.8336333,955
0.8353,991
0.8369667,939
0.8386334,971
0.8403,737
0.8419667,1043
0.8436334,821
0.8453,967
0.8469667,871
0.8486333,919
0.8503,866
0.8519667,814
0.8536333,845
0.8553,875
0.8569667,866
0.8586333,857
0.8603,801
0.8619667,698
0.8636333,610
0.8653,865
0.8669667,734
0.8686333,779
0.8703,740
0.8719667,721
0.8736333,702
0.8753,845
0.8769667,987
0.8786333,1465
0.8803,1908
0.8819667,2172
0.8836333,2659
0.8853,2762
0.8869666,3443
0.8886333,3488
0.8903,3690
0.8919666,3705
0.8936333,3720
0.8953,3792
0.8969667,3793
0.8986334,3989
0.9003,4033
0.9019667,4014
0.9036334,3817
0.9053,3631
0.9069667,3612
0.9086334,3462
0.9103,3750
0.9119667,3746
0.9136333,3572
0.9153,3545
0.9169667,3518
0.9186333,3722
0.9203,3776
0.9219667,3830
0.9236333,3623
0.9253,3661
0.9269667,3434
0.9286333,3555
0.9303,3576
0.9319667,3490
0.9336333,3404
0.9353,3327
0.9369667,3621
0.9386333,3569
0.9403,3132
0.9419667,3105
0.9436333,2937
0.9453,2909
0.9469666,2842
0.9486333,2870
0.9503,2757
0.9519666,2619
0.9536333,2586
0.9553,2239
0.9569666,2142
0.9586333,2297
0.9603,1967
0.9619667,1686
0.9636334,1823
0.9653,2118
0.9669667,1464
0.9686334,1487
0.9703,1801
0.9719667,1600
0.9736333,1210
0.9753,1258
0.9769667,1223
0.9786333,1111
0.9803,1132
0.9819667,1026
0.9836333,941
0.9853,1169
0.9869667,936
0.9886333,906
0.9903,972
0.9919667,743
0.9936333,731
0.9953,614
0.9969667,772
0.9986333,782
1.0003,719
1.001967,650
1.003633,581
1.0053,575
1.006967,706
1.008633,683
1.0103,547
1.011967,655
1.013633,631
1.0153,607
1.016967,584
1.018633,562
1.0203,671
1.021967,708
1.023633,605
1.0253,713
1.026967,681
1.028633,650
1.0303,635
1.031967,624
1.033633,673
1.0353,553
1.036967,587
1.038633,620
1.0403,593
1.041967,566
1.043633,707
1.0453,693
1.046967,602
1.048633,732
1.0503,587
1.051967,714
1.053633,692
1.0553,696
1.056967,700
1.058633,658
1.0603,732
1.061967,711
1.063633,558
1.0653,726
1.066967,660
1.068633,594
1.0703,641
1.071967,617
1.073633,778
1.0753,744
1.076967,761
1.078633,703
1.0803,649
1.081967,595
1.083633,694
1.0853,540
1.086967,580
1.088633,619
1.0903,831
1.091967,861
1.093633,674
1.0953,687
1.096967,668
1.098633,615
1.1003,673
1.101967,635
1.103633,610
1.1053,772
1.106967,761
1.108633,773
1.1103,582
1.111967,792
1.113633,696
1.1153,702
1.116967,592
1.118633,744
1.1203,746
1.121967,721
1.123633,551
1.1253,704
1.126967,612
1.128633,765
1.1303,793
1.131967,876
1.133633,654
1.1353,768
1.136967,749
1.138633,635
1.1403,759
1.141967,745
1.143633,739
1.1453,721
1.146967,704
1.148633,712
1.1503,729
1.151967,634
1.153633,611
1.1553,799
1.156967,785
1.158633,795
1.1603,629
1.161967,829
1.163633,800
1.1653,771
1.166967,742
1.168633,789
1.1703,626
1.171967,662
1.173633,741
1.1753,714
1.176967,686
1.178633,682
1.1803,679
1.181967,677
1.183633,861
1.1853,731
1.186967,601
1.188633,698
1.1903,689
1.191967,704
1.193633,799
1.1953,911
1.196967,854
1.198633,705
