"SampleName","A2Rd2_02-89"
"Target Mass 1",
"Column Name","IA-3 (3um, 4.6X100)"
"Channel","QDa 1: SIR Ch2"
0.00195,501
0.003616667,621
0.005283333,710
0.00695,931
0.008616666,890
0.01028333,788
0.01195,827
0.01361667,798
0.01528333,768
0.01695,966
0.01861667,1035
0.02028333,928
0.02195,879
0.02361667,949
0.02528333,860
0.02695,657
0.02861667,1099
0.03028333,907
0.03195,1054
0.03361667,886
0.03528333,748
0.03695,818
0.03861667,1036
0.04028333,1084
0.04195,994
0.04361667,983
0.04528333,971
0.04695,941
0.04861667,842
0.05028334,827
0.05195,926
0.05361667,990
0.05528333,925
0.05695,855
0.05861667,927
0.06028333,1056
0.06195,1076
0.06361666,977
0.06528334,976
0.06695,802
0.06861667,1027
0.07028333,1052
0.07195,981
0.07361667,927
0.07528333,904
0.07695,881
0.07861666,854
0.08028334,875
0.08195,897
0.08361667,1007
0.08528333,1059
0.08695,1039
0.08861667,1019
0.09028333,718
0.09195,847
0.09361666,859
0.09528334,950
0.09695,1082
0.09861667,1139
0.1002833,985
0.10195,1119
0.1036167,927
0.1052833,978
0.10695,940
0.1086167,936
0.1102833,1016
0.11195,674
0.1136167,835
0.1152833,979
0.11695,932
0.1186167,868
0.1202833,921
0.12195,930
0.1236167,1048
0.1252833,963
0.12695,879
0.1286167,844
0.1302833,854
0.13195,863
0.1336167,945
0.1352833,979
0.13695,1014
0.1386167,953
0.1402833,856
0.14195,756
0.1436167,917
0.1452833,785
0.14695,883
0.1486167,930
0.1502833,964
0.15195,854
0.1536167,927
0.1552833,1079
0.15695,1020
0.1586167,793
0.1602833,783
0.16195,883
0.1636167,751
0.1652833,916
0.16695,797
0.1686167,919
0.1702833,771
0.17195,929
0.1736167,844
0.1752833,729
0.17695,869
0.1786167,910
0.1802833,952
0.18195,838
0.1836167,802
0.1852833,765
0.18695,729
0.1886167,692
0.1902833,722
0.19195,752
0.1936167,1071
0.1952833,1044
0.19695,979
0.1986167,946
0.2002833,984
0.20195,941
0.2036167,947
0.2052833,928
0.20695,908
0.2086167,923
0.2102833,923
0.21195,923
0.2136167,837
0.2152833,903
0.21695,958
0.2186167,1013
0.2202833,1136
0.22195,1169
0.2236167,1073
0.2252833,1046
0.22695,960
0.2286167,1022
0.2302833,982
0.23195,941
0.2336167,1041
0.2352833,1060
0.23695,1079
0.2386167,1005
0.2402833,1098
0.24195,1086
0.2436167,1073
0.2452833,1383
0.24695,1354
0.2486167,1174
0.2502833,1243
0.25195,1120
0.2536167,1242
0.2552833,1339
0.25695,1020
0.2586167,1217
0.2602833,940
0.26195,1129
0.2636167,996
0.2652833,1100
0.26695,893
0.2686333,1047
0.2702833,1037
0.27195,1217
0.2736167,1168
0.2752833,982
0.27695,1116
0.2786167,1063
0.2803,1107
0.28195,1071
0.2836167,970
0.2852833,953
0.28695,897
0.2886167,1116
0.2902833,993
0.29195,869
0.2936167,1089
0.2952833,1149
0.29695,1013
0.2986333,1113
0.3002833,1195
0.30195,908
0.3036167,1152
0.3052833,1119
0.30695,1014
0.3086167,1090
0.3102833,1102
0.31195,905
0.3136167,1310
0.3153,1429
0.31695,1328
0.3186167,1254
0.3202833,1401
0.32195,1278
0.3236167,1424
0.3252833,1309
0.32695,1408
0.3286167,1018
0.3303,1332
0.33195,1236
0.3336333,1400
0.3353,1264
0.3369667,1310
0.3386167,1179
0.3403,1241
0.34195,1303
0.3436167,1009
0.3452833,1105
0.3469667,1199
0.3486333,1183
0.3503,1395
0.35195,1480
0.3536333,1110
0.3553,1235
0.35695,1390
0.3586167,1307
0.3602833,1503
0.36195,1517
0.3636333,1889
0.3652833,1998
0.36695,3101
0.3686333,3040
0.3703,3455
0.3719667,2828
0.3736167,2799
0.3752833,2717
0.37695,2375
0.3786167,2564
0.3803,2389
0.38195,2221
0.3836167,2459
0.3853,2149
0.38695,1665
0.3886333,1395
0.3902833,1190
0.39195,843
0.3936167,877
0.3952833,898
0.3969667,662
0.3986333,571
0.4002833,524
0.40195,622
0.4036333,468
0.4053,625
0.4069667,539
0.4086167,723
0.4103,674
0.41195,677
0.4136333,639
0.4153,668
0.41695,739
0.4186167,697
0.4203,654
0.4219667,619
0.4236333,711
0.4253,787
0.4269667,862
0.4286167,932
0.4303,883
0.43195,918
0.4336333,979
0.4353,1064
0.4369667,1002
0.4386333,939
0.4403,1175
0.4419667,1108
0.4436333,1010
0.4453,1152
0.4469667,1352
0.4486333,1282
0.4503,1243
0.4519667,1090
0.4536333,1385
0.4553,1304
0.4569667,1371
0.4586333,1358
0.4603,1519
0.4619667,1538
0.4636333,1622
0.4653,1659
0.4669667,1641
0.4686333,1667
0.4703,1341
0.4719667,1370
0.4736333,1709
0.4753,1341
0.4769667,1326
0.4786333,1766
0.4803,1484
0.4819667,1559
0.4836333,1393
0.4853,1430
0.4869667,1252
0.4886333,1175
0.4903,1000
0.4919667,1150
0.4936333,1269
0.4953,1007
0.4969667,1043
0.4986333,1121
0.5003,1054
0.5019667,1116
0.5036333,1097
0.5053,1082
0.5069667,1086
0.5086333,904
0.5103,1231
0.5119666,1141
0.5136333,1243
0.5153,965
0.5169666,857
0.5186333,1003
0.5203,968
0.5219667,1022
0.5236334,865
0.5253,1038
0.5269667,1045
0.5286334,1018
0.5303,844
0.5319667,1033
0.5336334,1152
0.5353,1060
0.5369667,1098
0.5386333,1135
0.5403,1071
0.5419667,991
0.5436333,1006
0.5453,989
0.5469667,997
0.5486333,985
0.5503,973
0.5519667,1029
0.5536333,1044
0.5553,1018
0.5569667,992
0.5586333,1051
0.5603,1109
0.5619667,1092
0.5636333,1002
0.5653,1025
0.5669667,941
0.5686333,962
0.5703,982
0.5719666,918
0.5736333,854
0.5753,868
0.5769666,883
0.5786333,1062
0.5803,1018
0.5819666,984
0.5836333,950
0.5853,952
0.5869667,950
0.5886334,1043
0.5903,1083
0.5919667,1034
0.5936334,1057
0.5953,1053
0.5969667,858
0.5986333,893
0.6003,930
0.6019667,1141
0.6036333,1156
0.6053,991
0.6069667,945
0.6086333,1018
0.6103,769
0.6119667,885
0.6136333,941
0.6153,980
0.6169667,1074
0.6186333,1029
0.6203,870
0.6219667,918
0.6236333,1074
0.6253,1015
0.6269667,820
0.6286333,1085
0.6303,747
0.6319667,942
0.6336333,1105
0.6353,1017
0.6369666,1152
0.6386333,949
0.6403,1019
0.6419666,1032
0.6436333,1016
0.6453,1000
0.6469667,1057
0.6486334,1114
0.6503,921
0.6519667,1065
0.6536334,1055
0.6553,902
0.6569667,1115
0.6586334,930
0.6603,830
0.6619667,991
0.6636333,1010
0.6653,1039
0.6669667,919
0.6686333,942
0.6703,1024
0.6719667,946
0.6736333,1026
0.6753,1030
0.6769667,1125
0.6786333,876
0.6803,936
0.6819667,997
0.6836333,1004
0.6853,1109
0.6869667,1175
0.6886333,1240
0.6903,1314
0.6919667,1388
0.6936333,1316
0.6953,1632
0.6969666,1697
0.6986333,1547
0.7003,1652
0.7019666,1757
0.7036333,1581
0.7053,1560
0.7069666,1378
0.7086333,1299
0.7103,1501
0.7119667,1586
0.7136334,1493
0.7153,1425
0.7169667,1149
0.7186334,1483
0.7203,1446
0.7219667,1226
0.7236333,1254
0.7253,1307
0.7269667,1331
0.7286333,1126
0.7303,1165
0.7319667,1302
0.7336333,1173
0.7353,1125
0.7369667,1312
0.7386333,1043
0.7403,1162
0.7419667,1137
0.7436333,1060
0.7453,983
0.7469667,1123
0.7486333,1117
0.7503,1044
0.7519667,915
0.7536333,1031
0.7553,929
0.7569667,1004
0.7586333,889
0.7603,931
0.7619666,742
0.7636333,747
0.7653,729
0.7669666,891
0.7686333,890
0.7703,905
0.7719667,891
0.7736334,968
0.7753,969
0.7769667,969
0.7786334,830
0.7803,1133
0.7819667,1122
0.7836334,1054
0.7853,1347
0.7869667,1578
0.7886333,1534
0.7903,1743
0.7919667,1655
0.7936333,1791
0.7953,2027
0.7969667,2160
0.7986333,2149
0.8003,2180
0.8019667,2198
0.8036333,2216
0.8053,2069
0.8069667,2294
0.8086333,2207
0.8103,2121
0.8119667,2219
0.8136333,2055
0.8153,2212
0.8169667,2017
0.8186333,2040
0.8203,1720
0.8219666,2089
0.8236333,1706
0.8253,1889
0.8269666,1927
0.8286333,1973
0.8303,1861
0.8319666,2033
0.8336333,1757
0.8353,1864
0.8369667,1931
0.8386334,1679
0.8403,1570
0.8419667,1406
0.8436334,1524
0.8453,1455
0.8469667,1286
0.8486333,1552
0.8503,1462
0.8519667,1228
0.8536333,1241
0.8553,1125
0.8569667,1230
0.8586333,1274
0.8603,1205
0.8619667,1165
0.8636333,993
0.8653,963
0.8669667,1040
0.8686333,893
0.8703,1136
0.8719667,1120
0.8736333,1013
0.8753,1111
0.8769667,937
0.8786333,1173
0.8803,1014
0.8819667,1133
0.8836333,1123
0.8853,1407
0.8869666,1333
0.8886333,1360
0.8903,1205
0.8919666,1191
0.8936333,1365
0.8953,1417
0.8969667,1442
0.8986334,1249
0.9003,1295
0.9019667,1123
0.9036334,1235
0.9053,1347
0.9069667,1297
0.9086334,1338
0.9103,1240
0.9119667,1173
0.9136333,1276
0.9153,1248
0.9169667,1203
0.9186333,1196
0.9203,1188
0.9219667,1309
0.9236333,1305
0.9253,1301
0.9269667,1101
0.9286333,1236
0.9303,1370
0.9319667,1193
0.9336333,1352
0.9353,1303
0.9369667,1197
0.9386333,1363
0.9403,1137
0.9419667,1169
0.9436333,1028
0.9453,1074
0.9469666,1120
0.9486333,1198
0.9503,1172
0.9519666,921
0.9536333,1124
0.9553,1183
0.9569666,812
0.9586333,1169
0.9603,1181
0.9619667,1198
0.9636334,1313
0.9653,1483
0.9669667,1406
0.9686334,1309
0.9703,1438
0.9719667,1566
0.9736333,1681
0.9753,1756
0.9769667,1547
0.9786333,1722
0.9803,1864
0.9819667,1593
0.9836333,1914
0.9853,1573
0.9869667,2088
0.9886333,1917
0.9903,1860
0.9919667,1859
0.9936333,1787
0.9953,1771
0.9969667,1526
0.9986333,1792
1.0003,1691
1.001967,1621
1.003633,1544
1.0053,1742
1.006967,1472
1.008633,1610
1.0103,1715
1.011967,1744
1.013633,1462
1.0153,1762
1.016967,1332
1.018633,1427
1.0203,1523
1.021967,1411
1.023633,1478
1.0253,1605
1.026967,1575
1.028633,1546
1.0303,1514
1.031967,1621
1.033633,1403
1.0353,1562
1.036967,1418
1.038633,1525
1.0403,1415
1.041967,1387
1.043633,1484
1.0453,1453
1.046967,1422
1.048633,1354
1.0503,1271
1.051967,1064
1.053633,1197
1.0553,1136
1.056967,1313
1.058633,1359
1.0603,1174
1.061967,1032
1.063633,1079
1.0653,1262
1.066967,1335
1.068633,1297
1.0703,1258
1.071967,1102
1.073633,1094
1.0753,1159
1.076967,1223
1.078633,1215
1.0803,1237
1.081967,1259
1.083633,1182
1.0853,1066
1.086967,1098
1.088633,1215
1.0903,1301
1.091967,1244
1.093633,1129
1.0953,1345
1.096967,1226
1.098633,1190
1.1003,1279
1.101967,1013
1.103633,1154
1.1053,1330
1.106967,1221
1.108633,1163
1.1103,1067
1.111967,1197
1.113633,1137
1.1153,1127
1.116967,1116
1.118633,1076
1.1203,1143
1.121967,1052
1.123633,1093
1.1253,1157
1.126967,1116
1.128633,1074
1.1303,974
1.131967,1052
1.133633,961
1.1353,1042
1.136967,1057
1.138633,1073
1.1403,813
1.141967,1103
1.143633,999
1.1453,971
1.146967,1096
1.148633,1048
1.1503,1096
1.151967,812
1.153633,786
1.1553,1031
1.156967,970
1.158633,891
1.1603,848
1.161967,968
1.163633,891
1.1653,1002
1.166967,969
1.168633,997
1.1703,986
1.171967,883
1.173633,904
1.1753,1010
1.176967,939
1.178633,1010
1.1803,962
1.181967,851
1.183633,950
1.1853,867
1.186967,951
1.188633,766
1.1903,849
1.191967,948
1.193633,1020
1.1953,918
1.196967,934
1.198633,985
