"SampleName","A2Rd2_02-86"
"Target Mass 1",
"Column Name","IA-3 (3um, 4.6X100)"
"Channel","QDa 1: SIR Ch1"
0.00195,470
0.003616667,453
0.005283333,429
0.00695,521
0.008616666,607
0.01028333,640
0.01195,601
0.01361667,615
0.01528333,615
0.01695,591
0.01861667,542
0.02028333,547
0.02195,551
0.02361667,395
0.02528333,529
0.02695,552
0.02861667,646
0.03028333,688
0.03195,707
0.03361667,779
0.03528333,524
0.03695,581
0.03861667,527
0.04028333,535
0.04195,542
0.04361667,518
0.04528333,519
0.04695,521
0.04861667,673
0.05028334,600
0.05195,527
0.05361667,613
0.05528333,648
0.05695,602
0.05861667,555
0.06028333,624
0.06195,504
0.06361666,663
0.06528334,614
0.06695,567
0.06861667,632
0.07028333,471
0.07195,585
0.07361667,573
0.07528333,553
0.07695,471
0.07861666,595
0.08028334,587
0.08195,512
0.08361667,506
0.08528333,534
0.08695,538
0.08861667,542
0.09028333,562
0.09195,396
0.09361666,643
0.09528334,558
0.09695,607
0.09861667,623
0.1002833,524
0.10195,550
0.1036167,614
0.1052833,650
0.10695,686
0.1086167,428
0.1102833,639
0.11195,478
0.1136167,574
0.1152833,594
0.11695,572
0.1186167,550
0.1202833,594
0.12195,625
0.1236167,452
0.1252833,595
0.12695,643
0.1286167,605
0.1302833,684
0.13195,674
0.1336167,455
0.1352833,402
0.13695,603
0.1386167,497
0.1402833,617
0.14195,583
0.1436167,727
0.1452833,676
0.14695,669
0.1486167,493
0.1502833,520
0.15195,603
0.1536167,594
0.1552833,530
0.15695,545
0.1586167,463
0.1602833,479
0.16195,495
0.1636167,643
0.1652833,709
0.16695,773
0.1686167,503
0.1702833,669
0.17195,475
0.1736167,512
0.1752833,678
0.17695,520
0.1786167,576
0.1802833,565
0.18195,570
0.1836167,542
0.1852833,514
0.18695,524
0.1886167,468
0.1902833,638
0.19195,649
0.1936167,569
0.1952833,554
0.19695,521
0.1986167,349
0.2002833,533
0.20195,657
0.2036167,526
0.2052833,546
0.20695,567
0.2086167,598
0.2102833,544
0.21195,491
0.2136167,428
0.2152833,537
0.21695,544
0.2186167,589
0.2202833,536
0.22195,482
0.2236167,601
0.2252833,591
0.22695,520
0.2286167,555
0.2302833,603
0.23195,580
0.2336167,556
0.2352833,574
0.23695,518
0.2386167,597
0.2402833,609
0.24195,540
0.2436167,484
0.2453,456
0.24695,537
0.2486167,563
0.2503,507
0.25195,434
0.2536167,470
0.2552833,506
0.25695,577
0.2586167,564
0.2602833,550
0.26195,585
0.2636333,568
0.2652833,551
0.26695,401
0.2686167,624
0.2702833,583
0.27195,464
0.2736167,635
0.2752833,546
0.27695,657
0.2786167,576
0.2803,461
0.28195,466
0.2836167,543
0.2852833,528
0.28695,574
0.2886167,539
0.2902833,503
0.29195,546
0.2936167,490
0.2952833,459
0.29695,429
0.2986333,557
0.3003,740
0.30195,657
0.3036167,726
0.3052833,617
0.30695,596
0.3086167,481
0.3102833,522
0.3119667,496
0.3136167,581
0.3153,666
0.31695,681
0.3186167,626
0.3203,659
0.32195,691
0.3236167,458
0.3252833,598
0.32695,558
0.3286333,519
0.3302833,605
0.3319667,472
0.3336333,531
0.3353,485
0.3369667,471
0.3386167,538
0.3402833,582
0.34195,580
0.3436167,632
0.3453,639
0.34695,580
0.3486333,513
0.3503,450
0.3519667,570
0.3536333,499
0.3552833,595
0.35695,619
0.3586167,708
0.3602833,684
0.3619667,598
0.3636167,878
0.3653,1412
0.3669667,1770
0.3686333,2479
0.3703,3003
0.3719667,2817
0.3736167,3266
0.3753,3289
0.37695,3209
0.3786333,3312
0.3802833,3416
0.3819667,3641
0.3836333,3653
0.3853,3665
0.3869667,3770
0.3886333,3876
0.3902833,2852
0.3919667,2169
0.3936167,2085
0.3953,1460
0.39695,1674
0.3986333,1460
0.4003,1252
0.4019667,1435
0.4036333,1189
0.4053,1226
0.40695,1311
0.4086333,1337
0.4103,1301
0.4119667,1265
0.4136333,1392
0.4153,1390
0.4169667,1389
0.4186333,1444
0.4203,1499
0.4219667,1632
0.4236333,1670
0.4253,1517
0.4269667,1459
0.4286333,1402
0.4303,1807
0.4319667,2068
0.4336333,2414
0.4353,3761
0.4369667,5772
0.4386333,9596
0.4403,15212
0.4419667,24432
0.4436333,36432
0.4453,51200
0.4469667,70464
0.4486333,89728
0.4503,110192
0.4519667,129408
0.4536333,143232
0.4553,157376
0.4569667,172736
0.4586333,181504
0.4603,185792
0.4619667,190912
0.4636333,190208
0.4653,189568
0.4669667,190976
0.4686333,191936
0.4703,192896
0.4719667,193536
0.4736333,203648
0.4753,209088
0.4769667,216960
0.4786333,217280
0.4803,218624
0.4819667,209920
0.4836333,203840
0.4853,194432
0.4869667,177920
0.4886333,155776
0.4903,140800
0.4919667,123552
0.4936333,105072
0.4953,90336
0.4969667,75664
0.4986333,61344
0.5003,52016
0.5019667,41584
0.5036333,33472
0.5053,28064
0.5069667,22704
0.5086333,18784
0.5103,16440
0.5119666,13092
0.5136333,11712
0.5153,9636
0.5169666,8084
0.5186333,7727
0.5203,5966
0.5219667,6546
0.5236334,5475
0.5253,4641
0.5269667,4454
0.5286334,4510
0.5303,4010
0.5319667,3423
0.5336334,3248
0.5353,3305
0.5369667,3172
0.5386333,3227
0.5403,3220
0.5419667,3131
0.5436333,2843
0.5453,2764
0.5469667,2574
0.5486333,2571
0.5503,2450
0.5519667,2131
0.5536333,2462
0.5553,1830
0.5569667,1900
0.5586333,2155
0.5603,2052
0.5619667,1926
0.5636333,1894
0.5653,1767
0.5669667,1620
0.5686333,1873
0.5703,1638
0.5719666,1722
0.5736333,1608
0.5753,1592
0.5769666,1460
0.5786333,1528
0.5803,1482
0.5819666,1436
0.5836333,1459
0.5853,1438
0.5869667,1418
0.5886334,1526
0.5903,1572
0.5919667,1569
0.5936334,1565
0.5953,1350
0.5969667,1572
0.5986333,1259
0.6003,1470
0.6019667,1549
0.6036333,1684
0.6053,1418
0.6069667,1608
0.6086333,1390
0.6103,1452
0.6119667,1489
0.6136333,1473
0.6153,1404
0.6169667,1374
0.6186333,1414
0.6203,1244
0.6219667,1326
0.6236333,1080
0.6253,1324
0.6269667,1341
0.6286333,1344
0.6303,1035
0.6319667,1060
0.6336333,1137
0.6353,1022
0.6369666,925
0.6386333,1105
0.6403,1105
0.6419666,1034
0.6436333,1056
0.6453,1075
0.6469667,1103
0.6486334,990
0.6503,1198
0.6519667,821
0.6536334,922
0.6553,926
0.6569667,979
0.6586334,855
0.6603,884
0.6619667,998
0.6636333,992
0.6653,1047
0.6669667,1053
0.6686333,732
0.6703,1122
0.6719667,866
0.6736333,956
0.6753,908
0.6769667,883
0.6786333,858
0.6803,940
0.6819667,860
0.6836333,781
0.6853,949
0.6869667,883
0.6886333,790
0.6903,835
0.6919667,572
0.6936333,877
0.6953,582
0.6969666,738
0.6986333,957
0.7003,1057
0.7019666,942
0.7036333,795
0.7053,914
0.7069666,858
0.7086333,646
0.7103,775
0.7119667,840
0.7136334,790
0.7153,795
0.7169667,800
0.7186334,659
0.7203,694
0.7219667,776
0.7236333,733
0.7253,690
0.7269667,806
0.7286333,755
0.7303,765
0.7319667,838
0.7336333,845
0.7353,894
0.7369667,744
0.7386333,857
0.7403,853
0.7419667,699
0.7436333,808
0.7453,831
0.7469667,754
0.7486333,883
0.7503,892
0.7519667,780
0.7536333,891
0.7553,718
0.7569667,761
0.7586333,708
0.7603,741
0.7619666,775
0.7636333,755
0.7653,735
0.7669666,741
0.7686333,790
0.7703,634
0.7719667,686
0.7736334,818
0.7753,861
0.7769667,654
0.7786334,794
0.7803,889
0.7819667,695
0.7836334,746
0.7853,784
0.7869667,624
0.7886333,723
0.7903,872
0.7919667,828
0.7936333,683
0.7953,697
0.7969667,791
0.7986333,654
0.8003,840
0.8019667,744
0.8036333,681
0.8053,753
0.8069667,778
0.8086333,663
0.8103,655
0.8119667,650
0.8136333,604
0.8153,659
0.8169667,677
0.8186333,703
0.8203,733
0.8219666,763
0.8236333,783
0.8253,708
0.8269666,708
0.8286333,706
0.8303,704
0.8319666,675
0.8336333,646
0.8353,532
0.8369667,718
0.8386334,786
0.8403,795
0.8419667,504
0.8436334,914
0.8453,802
0.8469667,689
0.8486333,574
0.8503,784
0.8519667,768
0.8536333,720
0.8553,592
0.8569667,685
0.8586333,701
0.8603,740
0.8619667,726
0.8636333,745
0.8653,607
0.8669667,467
0.8686333,562
0.8703,712
0.8719667,632
0.8736333,702
0.8753,773
0.8769667,944
0.8786333,1115
0.8803,1251
0.8819667,1311
0.8836333,1540
0.8853,2160
0.8869666,2087
0.8886333,2265
0.8903,2338
0.8919666,2337
0.8936333,2597
0.8953,2730
0.8969667,2893
0.8986334,2826
0.9003,2565
0.9019667,2225
0.9036334,2841
0.9053,2462
0.9069667,2640
0.9086334,2505
0.9103,2678
0.9119667,2708
0.9136333,2442
0.9153,2648
0.9169667,2365
0.9186333,2395
0.9203,2424
0.9219667,2597
0.9236333,2671
0.9253,2527
0.9269667,2574
0.9286333,2423
0.9303,2271
0.9319667,2397
0.9336333,2315
0.9353,2234
0.9369667,2298
0.9386333,2361
0.9403,2330
0.9419667,2298
0.9436333,2078
0.9453,2094
0.9469666,2053
0.9486333,2098
0.9503,2039
0.9519666,2285
0.9536333,1770
0.9553,1498
0.9569666,1720
0.9586333,1733
0.9603,1647
0.9619667,1394
0.9636334,1359
0.9653,1522
0.9669667,1387
0.9686334,1174
0.9703,1206
0.9719667,1145
0.9736333,1141
0.9753,1196
0.9769667,1111
0.9786333,1073
0.9803,879
0.9819667,844
0.9836333,767
0.9853,817
0.9869667,796
0.9886333,784
0.9903,651
0.9919667,589
0.9936333,651
0.9953,649
0.9969667,653
0.9986333,483
1.0003,622
1.001967,536
1.003633,552
1.0053,568
1.006967,543
1.008633,564
1.0103,479
1.011967,528
1.013633,604
1.0153,463
1.016967,477
1.018633,618
1.0203,548
1.021967,528
1.023633,612
1.0253,621
1.026967,630
1.028633,536
1.0303,566
1.031967,531
1.033633,540
1.0353,549
1.036967,526
1.038633,580
1.0403,634
1.041967,638
1.043633,644
1.0453,650
1.046967,534
1.048633,658
1.0503,508
1.051967,591
1.053633,518
1.0553,571
1.056967,623
1.058633,543
1.0603,549
1.061967,472
1.063633,509
1.0653,577
1.066967,529
1.068633,469
1.0703,432
1.071967,490
1.073633,486
1.0753,482
1.076967,546
1.078633,610
1.0803,673
1.081967,608
1.083633,521
1.0853,677
1.086967,426
1.088633,525
1.0903,674
1.091967,597
1.093633,562
1.0953,720
1.096967,656
1.098633,545
1.1003,542
1.101967,675
1.103633,506
1.1053,509
1.106967,586
1.108633,645
1.1103,427
1.111967,487
1.113633,631
1.1153,555
1.116967,655
1.118633,664
1.1203,475
1.121967,462
1.123633,546
1.1253,511
1.126967,519
1.128633,528
1.1303,527
1.131967,527
1.133633,499
1.1353,617
1.136967,694
1.138633,705
1.1403,527
1.141967,606
1.143633,712
1.1453,591
1.146967,504
1.148633,655
1.1503,619
1.151967,608
1.153633,592
1.1553,631
1.156967,670
1.158633,488
1.1603,440
1.161967,461
1.163633,512
1.1653,609
1.166967,626
1.168633,545
1.1703,612
1.171967,520
1.173633,575
1.1753,627
1.176967,554
1.178633,652
1.1803,672
1.181967,658
1.183633,568
1.1853,554
1.186967,573
1.188633,593
1.1903,728
1.191967,727
1.193633,704
1.1953,712
1.196967,482
1.198633,675
