"SampleName","A2Rd2_02-68"
"Target Mass 1",
"Column Name","IA-3 (3um, 4.6X100)"
"Channel","QDa 1: SIR Ch2"
0.00195,408
0.003616667,822
0.005283333,929
0.00695,752
0.008616666,807
0.01028333,1038
0.01195,993
0.01361667,949
0.01528333,852
0.01695,743
0.01861667,797
0.02028333,851
0.02195,938
0.02361667,917
0.02528333,895
0.02695,956
0.02861667,1017
0.03028333,1021
0.03195,1017
0.03361667,1024
0.03528333,1030
0.03695,1101
0.03861667,1109
0.04028333,992
0.04195,1017
0.04361667,971
0.04528333,1040
0.04695,1110
0.04861667,906
0.05028334,1123
0.05195,1035
0.05361667,948
0.05528333,1003
0.05695,996
0.05861667,989
0.06028333,1041
0.06195,1032
0.06361666,1024
0.06528334,925
0.06695,1171
0.06861667,1149
0.07028333,924
0.07195,1074
0.07361667,857
0.07528333,960
0.07695,1063
0.07861666,1185
0.08028334,1187
0.08195,1074
0.08361667,1055
0.08528333,990
0.08695,1095
0.08861667,982
0.09028333,942
0.09195,902
0.09361666,1074
0.09528334,1135
0.09695,1041
0.09861667,1016
0.1002833,992
0.10195,1069
0.1036167,846
0.1052833,955
0.10695,894
0.1086167,1133
0.1102833,1049
0.11195,964
0.1136167,971
0.1152833,877
0.11695,844
0.1186167,883
0.1202833,922
0.12195,953
0.1236167,984
0.1252833,827
0.12695,933
0.1286167,1039
0.1302833,1106
0.13195,1034
0.1336167,920
0.1352833,886
0.13695,1042
0.1386167,1024
0.1402833,806
0.14195,1055
0.1436167,918
0.1452833,1141
0.14695,957
0.1486167,996
0.1502833,1006
0.15195,991
0.1536167,879
0.1552833,984
0.15695,1103
0.1586167,1074
0.1602833,1064
0.16195,1053
0.1636167,1128
0.1652833,1126
0.16695,1123
0.1686167,1005
0.1702833,938
0.17195,884
0.1736167,982
0.1752833,950
0.17695,979
0.1786167,899
0.1802833,932
0.18195,966
0.1836167,964
0.1852833,962
0.18695,953
0.1886167,944
0.1902833,1069
0.19195,1017
0.1936167,964
0.1952833,1077
0.19695,1020
0.1986167,962
0.2002833,1020
0.20195,1008
0.2036167,996
0.2052833,1139
0.20695,1164
0.2086167,1104
0.2102833,1044
0.21195,1113
0.2136167,1181
0.2152833,1170
0.21695,1196
0.2186167,1134
0.2202833,1113
0.22195,1233
0.2236167,996
0.2252833,1319
0.22695,1323
0.2286167,1197
0.2302833,1039
0.23195,1185
0.2336167,1326
0.2352833,1276
0.23695,1227
0.2386167,1308
0.2402833,1336
0.24195,1237
0.2436167,1309
0.2452833,1382
0.24695,1345
0.2486167,1439
0.2502833,1532
0.25195,1496
0.2536167,1530
0.2552833,1394
0.25695,1398
0.2586167,1439
0.2602833,1626
0.26195,1500
0.2636333,1373
0.2652833,1330
0.2669667,1527
0.2686167,1260
0.2702833,1325
0.27195,1359
0.2736167,1105
0.2752833,1135
0.27695,1182
0.2786167,1330
0.2803,1354
0.28195,1084
0.2836167,1240
0.2852833,1392
0.28695,1362
0.2886167,1196
0.2902833,1264
0.29195,1178
0.2936167,1266
0.2952833,1354
0.29695,1302
0.2986333,1087
0.3002833,1484
0.30195,1467
0.3036167,1550
0.3052833,1364
0.30695,1562
0.3086167,1416
0.3102833,1464
0.31195,1599
0.3136167,1647
0.3153,1485
0.3169667,1461
0.3186167,1418
0.3202833,1374
0.32195,1335
0.3236167,1369
0.3252833,1479
0.32695,1571
0.3286167,1570
0.3302833,1305
0.3319667,1372
0.3336333,1439
0.3352833,1522
0.33695,1459
0.3386167,1536
0.3403,1460
0.34195,1384
0.3436167,1277
0.3452833,1606
0.34695,1513
0.3486333,1566
0.3503,1249
0.35195,1466
0.3536167,1289
0.3553,1349
0.3569667,1284
0.3586167,1508
0.3602833,1513
0.3619667,1450
0.3636167,1234
0.3653,2061
0.3669667,2936
0.3686333,3799
0.3703,3307
0.3719667,3452
0.3736333,3353
0.3753,2860
0.37695,2953
0.3786167,3212
0.3803,3140
0.3819667,2945
0.3836167,2944
0.3853,2378
0.38695,1925
0.3886333,1708
0.3903,1410
0.3919667,1042
0.3936167,864
0.3953,700
0.39695,477
0.3986333,567
0.4002833,594
0.40195,464
0.4036333,552
0.4053,514
0.4069667,549
0.4086333,516
0.4103,512
0.4119667,507
0.4136333,545
0.4153,712
0.4169667,664
0.4186333,615
0.4203,665
0.4219667,630
0.4236333,607
0.4253,584
0.4269667,656
0.4286333,635
0.4303,852
0.4319667,907
0.4336333,854
0.4353,846
0.4369667,860
0.4386333,963
0.4403,1021
0.4419667,1107
0.4436333,1148
0.4453,1075
0.4469667,1083
0.4486333,1090
0.4503,1115
0.4519667,1190
0.4536333,1199
0.4553,1224
0.4569667,1224
0.4586333,1223
0.4603,1605
0.4619667,1576
0.4636333,1359
0.4653,1725
0.4669667,1530
0.4686333,1289
0.4703,1527
0.4719667,1283
0.4736333,1541
0.4753,1309
0.4769667,1630
0.4786333,1495
0.4803,1688
0.4819667,1536
0.4836333,1527
0.4853,1659
0.4869667,1473
0.4886333,1419
0.4903,1492
0.4919667,1471
0.4936333,1451
0.4953,1325
0.4969667,1185
0.4986333,1181
0.5003,1273
0.5019667,1289
0.5036333,1354
0.5053,1100
0.5069667,857
0.5086333,1152
0.5103,1015
0.5119666,956
0.5136333,946
0.5153,942
0.5169666,890
0.5186333,894
0.5203,899
0.5219667,954
0.5236334,1122
0.5253,1188
0.5269667,1052
0.5286334,865
0.5303,830
0.5319667,1092
0.5336334,1022
0.5353,949
0.5369667,892
0.5386333,1040
0.5403,1029
0.5419667,951
0.5436333,1027
0.5453,1006
0.5469667,985
0.5486333,904
0.5503,1096
0.5519667,1065
0.5536333,1211
0.5553,1164
0.5569667,960
0.5586333,1053
0.5603,940
0.5619667,947
0.5636333,850
0.5653,835
0.5669667,869
0.5686333,903
0.5703,905
0.5719666,885
0.5736333,865
0.5753,932
0.5769666,924
0.5786333,917
0.5803,910
0.5819666,981
0.5836333,986
0.5853,991
0.5869667,977
0.5886334,1039
0.5903,992
0.5919667,944
0.5936334,991
0.5953,1037
0.5969667,880
0.5986333,1051
0.6003,1068
0.6019667,1091
0.6036333,998
0.6053,998
0.6069667,1159
0.6086333,847
0.6103,910
0.6119667,1007
0.6136333,1042
0.6153,873
0.6169667,865
0.6186333,867
0.6203,909
0.6219667,951
0.6236333,1038
0.6253,946
0.6269667,855
0.6286333,1069
0.6303,939
0.6319667,1099
0.6336333,1070
0.6353,844
0.6369666,1012
0.6386333,803
0.6403,828
0.6419666,853
0.6436333,1012
0.6453,968
0.6469667,835
0.6486334,798
0.6503,955
0.6519667,874
0.6536334,956
0.6553,907
0.6569667,950
0.6586334,950
0.6603,894
0.6619667,868
0.6636333,754
0.6653,882
0.6669667,714
0.6686333,928
0.6703,877
0.6719667,868
0.6736333,859
0.6753,855
0.6769667,852
0.6786333,757
0.6803,891
0.6819667,828
0.6836333,766
0.6853,801
0.6869667,835
0.6886333,755
0.6903,822
0.6919667,888
0.6936333,831
0.6953,774
0.6969666,914
0.6986333,914
0.7003,857
0.7019666,801
0.7036333,846
0.7053,988
0.7069666,996
0.7086333,818
0.7103,990
0.7119667,1089
0.7136334,630
0.7153,836
0.7169667,860
0.7186334,815
0.7203,770
0.7219667,824
0.7236333,877
0.7253,891
0.7269667,905
0.7286333,827
0.7303,884
0.7319667,823
0.7336333,825
0.7353,850
0.7369667,941
0.7386333,926
0.7403,893
0.7419667,762
0.7436333,750
0.7453,948
0.7469667,953
0.7486333,826
0.7503,845
0.7519667,893
0.7536333,931
0.7553,710
0.7569667,708
0.7586333,848
0.7603,866
0.7619666,852
0.7636333,859
0.7653,895
0.7669666,885
0.7686333,876
0.7703,874
0.7719667,873
0.7736334,864
0.7753,851
0.7769667,823
0.7786334,883
0.7803,786
0.7819667,854
0.7836334,922
0.7853,866
0.7869667,995
0.7886333,945
0.7903,896
0.7919667,937
0.7936333,835
0.7953,897
0.7969667,882
0.7986333,839
0.8003,796
0.8019667,878
0.8036333,849
0.8053,820
0.8069667,918
0.8086333,963
0.8103,898
0.8119667,962
0.8136333,932
0.8153,912
0.8169667,926
0.8186333,752
0.8203,982
0.8219666,944
0.8236333,1037
0.8253,982
0.8269666,829
0.8286333,1038
0.8303,689
0.8319666,1138
0.8336333,923
0.8353,814
0.8369667,817
0.8386334,869
0.8403,921
0.8419667,934
0.8436334,887
0.8453,1003
0.8469667,1013
0.8486333,1044
0.8503,836
0.8519667,868
0.8536333,874
0.8553,1054
0.8569667,1005
0.8586333,912
0.8603,943
0.8619667,921
0.8636333,898
0.8653,897
0.8669667,943
0.8686333,946
0.8703,833
0.8719667,797
0.8736333,907
0.8753,904
0.8769667,882
0.8786333,758
0.8803,822
0.8819667,885
0.8836333,1121
0.8853,1230
0.8869666,1035
0.8886333,1181
0.8903,1509
0.8919666,1500
0.8936333,1149
0.8953,1284
0.8969667,1380
0.8986334,1305
0.9003,1230
0.9019667,1151
0.9036334,1479
0.9053,1407
0.9069667,1285
0.9086334,1447
0.9103,1184
0.9119667,1328
0.9136333,1456
0.9153,1308
0.9169667,1291
0.9186333,1364
0.9203,1211
0.9219667,1289
0.9236333,1167
0.9253,1223
0.9269667,1280
0.9286333,1557
0.9303,1584
0.9319667,1381
0.9336333,1136
0.9353,1462
0.9369667,1287
0.9386333,1219
0.9403,1256
0.9419667,1337
0.9436333,1383
0.9453,1177
0.9469666,1132
0.9486333,1269
0.9503,1249
0.9519666,1241
0.9536333,1127
0.9553,1066
0.9569666,1316
0.9586333,926
0.9603,1121
0.9619667,1053
0.9636334,1108
0.9653,1148
0.9669667,1008
0.9686334,1026
0.9703,974
0.9719667,959
0.9736333,949
0.9753,908
0.9769667,866
0.9786333,871
0.9803,1097
0.9819667,1096
0.9836333,975
0.9853,1000
0.9869667,928
0.9886333,811
0.9903,894
0.9919667,1019
0.9936333,966
0.9953,687
0.9969667,680
0.9986333,840
1.0003,969
1.001967,907
1.003633,850
1.0053,849
1.006967,823
1.008633,988
1.0103,962
1.011967,796
1.013633,1007
1.0153,762
1.016967,897
1.018633,866
1.0203,870
1.021967,901
1.023633,880
1.0253,877
1.026967,921
1.028633,922
1.0303,922
1.031967,1025
1.033633,998
1.0353,971
1.036967,752
1.038633,972
1.0403,833
1.041967,993
1.043633,1006
1.0453,999
1.046967,973
1.048633,1008
1.0503,995
1.051967,982
1.053633,869
1.0553,1071
1.056967,956
1.058633,899
1.0603,892
1.061967,1012
1.063633,787
1.0653,1058
1.066967,1050
1.068633,903
1.0703,869
1.071967,822
1.073633,916
1.0753,610
1.076967,1010
1.078633,887
1.0803,968
1.081967,987
1.083633,936
1.0853,965
1.086967,995
1.088633,969
1.0903,943
1.091967,966
1.093633,990
1.0953,813
1.096967,689
1.098633,897
1.1003,917
1.101967,749
1.103633,918
1.1053,880
1.106967,781
1.108633,721
1.1103,949
1.111967,979
1.113633,970
1.1153,936
1.116967,725
1.118633,1012
1.1203,1006
1.121967,624
1.123633,1048
1.1253,1073
1.126967,1012
1.128633,847
1.1303,903
1.131967,993
1.133633,950
1.1353,856
1.136967,835
1.138633,784
1.1403,1009
1.141967,962
1.143633,891
1.1453,935
1.146967,877
1.148633,851
1.1503,799
1.151967,814
1.153633,831
1.1553,847
1.156967,867
1.158633,846
1.1603,835
1.161967,869
1.163633,875
1.1653,882
1.166967,878
1.168633,689
1.1703,899
1.171967,695
1.173633,749
1.1753,663
1.176967,729
1.178633,795
1.1803,767
1.181967,738
1.183633,787
1.1853,881
1.186967,888
1.188633,895
1.1903,866
1.191967,837
1.193633,832
1.1953,828
1.196967,781
1.198633,732
