"SampleName","A2Rd2_02-30"
"Target Mass 1",
"Column Name","IA-3 (3um, 4.6X100)"
"Channel","QDa 1: SIR Ch2"
0.00195,505
0.003616667,716
0.005283333,673
0.00695,806
0.008616666,772
0.01028333,883
0.01195,973
0.01361667,923
0.01528333,888
0.01695,748
0.01861667,810
0.02028333,856
0.02195,902
0.02361667,868
0.02528333,887
0.02695,904
0.02861667,920
0.03028333,924
0.03195,928
0.03361667,898
0.03528333,889
0.03695,880
0.03861667,814
0.04028333,748
0.04195,1000
0.04361667,1139
0.04528333,972
0.04695,1155
0.04861667,878
0.05028334,1256
0.05195,769
0.05361667,814
0.05528333,985
0.05695,885
0.05861667,859
0.06028333,847
0.06195,826
0.06361666,942
0.06528334,918
0.06695,963
0.06861667,865
0.07028333,905
0.07195,855
0.07361667,877
0.07528333,898
0.07695,804
0.07861666,811
0.08028334,819
0.08195,858
0.08361667,849
0.08528333,840
0.08695,744
0.08861667,956
0.09028333,1027
0.09195,721
0.09361666,934
0.09528334,790
0.09695,862
0.09861667,898
0.1002833,814
0.10195,809
0.1036167,805
0.1052833,824
0.10695,844
0.1086167,867
0.1102833,890
0.11195,981
0.1136167,950
0.1152833,919
0.11695,857
0.1186167,750
0.1202833,819
0.12195,780
0.1236167,741
0.1252833,955
0.12695,904
0.1286167,853
0.1302833,829
0.13195,833
0.1336167,821
0.1352833,821
0.13695,822
0.1386167,827
0.1402833,833
0.14195,858
0.1436167,854
0.1452833,1020
0.14695,1078
0.1486167,810
0.1502833,795
0.15195,710
0.1536167,774
0.1552833,718
0.15695,797
0.1586167,876
0.1602833,886
0.16195,730
0.1636167,778
0.1652833,664
0.16695,965
0.1686167,903
0.1702833,906
0.17195,734
0.1736167,733
0.1752833,739
0.17695,744
0.1786167,787
0.1802833,764
0.18195,742
0.1836167,898
0.1852833,830
0.18695,762
0.1886167,864
0.1902833,869
0.19195,864
0.1936167,860
0.1952833,851
0.19695,842
0.1986167,894
0.2002833,894
0.20195,689
0.2036167,760
0.2052833,959
0.20695,846
0.2086167,1021
0.2102833,1116
0.21195,994
0.2136167,985
0.2152833,937
0.21695,935
0.2186167,1009
0.2202833,1083
0.22195,826
0.2236167,1049
0.2252833,852
0.2269667,1171
0.2286167,1281
0.2302833,865
0.23195,1306
0.2336167,1125
0.2352833,976
0.23695,1402
0.2386167,1303
0.2402833,1098
0.24195,1455
0.2436167,1267
0.2453,1324
0.24695,1192
0.2486167,1019
0.2502833,1049
0.25195,984
0.2536167,1045
0.2552833,1107
0.25695,1052
0.2586167,996
0.2602833,1122
0.26195,1066
0.2636333,1210
0.2652833,798
0.26695,1037
0.2686167,751
0.2702833,1010
0.2719667,1046
0.2736167,1193
0.2752833,911
0.27695,830
0.2786167,902
0.2803,920
0.28195,937
0.2836167,948
0.2852833,958
0.2869667,1051
0.2886167,1066
0.2902833,1003
0.29195,922
0.2936167,1090
0.2952833,873
0.29695,960
0.2986333,1047
0.3002833,1010
0.3019667,1059
0.3036167,1063
0.3052833,1067
0.3069667,1025
0.3086167,984
0.3103,1136
0.31195,1231
0.3136167,1210
0.3153,1189
0.31695,1196
0.3186333,1204
0.3202833,1234
0.3219667,1201
0.3236333,1168
0.3252833,1214
0.32695,1226
0.3286167,1310
0.3302833,1291
0.3319667,1337
0.3336333,1081
0.3353,1292
0.3369667,1143
0.3386167,1387
0.3403,1300
0.34195,1291
0.3436167,1190
0.3452833,1321
0.34695,1300
0.3486333,1433
0.3503,1457
0.3519667,1145
0.3536333,1543
0.3553,1667
0.3569667,1315
0.3586333,1487
0.3603,1513
0.3619667,1439
0.3636167,1473
0.3653,1764
0.3669667,3029
0.3686333,3602
0.3703,2902
0.3719667,3610
0.3736333,3363
0.3753,3117
0.3769667,3069
0.3786333,3117
0.3803,3154
0.3819667,2567
0.3836333,2531
0.3853,1959
0.3869667,1905
0.3886333,1527
0.3903,1155
0.3919667,819
0.3936333,909
0.3953,805
0.3969667,443
0.3986333,615
0.4003,562
0.4019667,479
0.4036333,448
0.4053,453
0.4069667,458
0.4086333,469
0.4103,481
0.4119667,778
0.4136333,725
0.4153,755
0.4169667,705
0.4186333,664
0.4203,622
0.4219667,697
0.4236333,772
0.4253,857
0.4269667,861
0.4286333,794
0.4303,813
0.4319667,849
0.4336333,983
0.4353,967
0.4369667,913
0.4386333,860
0.4403,837
0.4419667,814
0.4436333,1004
0.4453,951
0.4469667,898
0.4486333,993
0.4503,1087
0.4519667,1136
0.4536333,1241
0.4553,1637
0.4569667,1528
0.4586333,1526
0.4603,1599
0.4619667,1613
0.4636333,1250
0.4653,1715
0.4669667,1631
0.4686333,1483
0.4703,1778
0.4719667,1662
0.4736333,1589
0.4753,1610
0.4769667,1627
0.4786333,1456
0.4803,1554
0.4819667,1475
0.4836333,1416
0.4853,1445
0.4869667,1475
0.4886333,1188
0.4903,1172
0.4919667,1220
0.4936333,1254
0.4953,1229
0.4969667,1203
0.4986333,1133
0.5003,1192
0.5019667,941
0.5036333,951
0.5053,843
0.5069667,1025
0.5086333,1001
0.5103,958
0.5119666,915
0.5136333,916
0.5153,968
0.5169666,939
0.5186333,909
0.5203,986
0.5219667,1063
0.5236334,800
0.5253,1016
0.5269667,1021
0.5286334,979
0.5303,977
0.5319667,976
0.5336334,984
0.5353,993
0.5369667,788
0.5386333,1018
0.5403,1062
0.5419667,949
0.5436333,1027
0.5453,1053
0.5469667,1079
0.5486333,754
0.5503,884
0.5519667,832
0.5536333,861
0.5553,893
0.5569667,883
0.5586333,872
0.5603,920
0.5619667,1071
0.5636333,1029
0.5653,1075
0.5669667,843
0.5686333,901
0.5703,959
0.5719666,1030
0.5736333,1067
0.5753,1104
0.5769666,956
0.5786333,875
0.5803,1018
0.5819666,1113
0.5836333,1118
0.5853,1101
0.5869667,996
0.5886334,1063
0.5903,873
0.5919667,1088
0.5936334,998
0.5953,1243
0.5969667,1158
0.5986333,1117
0.6003,773
0.6019667,1354
0.6036333,904
0.6053,978
0.6069667,1160
0.6086333,1024
0.6103,1027
0.6119667,959
0.6136333,1045
0.6153,1100
0.6169667,1118
0.6186333,840
0.6203,871
0.6219667,1005
0.6236333,786
0.6253,1041
0.6269667,949
0.6286333,1041
0.6303,1036
0.6319667,1004
0.6336333,965
0.6353,912
0.6369666,913
0.6386333,961
0.6403,875
0.6419666,790
0.6436333,890
0.6453,990
0.6469667,946
0.6486334,948
0.6503,950
0.6519667,880
0.6536334,917
0.6553,944
0.6569667,848
0.6586334,949
0.6603,836
0.6619667,920
0.6636333,709
0.6653,770
0.6669667,976
0.6686333,1052
0.6703,960
0.6719667,731
0.6736333,959
0.6753,1206
0.6769667,1082
0.6786333,872
0.6803,949
0.6819667,802
0.6836333,794
0.6853,785
0.6869667,776
0.6886333,1024
0.6903,1106
0.6919667,916
0.6936333,960
0.6953,1106
0.6969666,1157
0.6986333,852
0.7003,1090
0.7019666,777
0.7036333,924
0.7053,883
0.7069666,878
0.7086333,874
0.7103,907
0.7119667,831
0.7136334,837
0.7153,759
0.7169667,1016
0.7186334,960
0.7203,960
0.7219667,842
0.7236333,842
0.7253,1000
0.7269667,877
0.7286333,762
0.7303,911
0.7319667,734
0.7336333,924
0.7353,753
0.7369667,855
0.7386333,893
0.7403,931
0.7419667,724
0.7436333,770
0.7453,866
0.7469667,817
0.7486333,769
0.7503,926
0.7519667,894
0.7536333,992
0.7553,949
0.7569667,751
0.7586333,714
0.7603,928
0.7619666,894
0.7636333,992
0.7653,889
0.7669666,783
0.7686333,904
0.7703,809
0.7719667,874
0.7736334,849
0.7753,865
0.7769667,882
0.7786334,860
0.7803,677
0.7819667,832
0.7836334,987
0.7853,1017
0.7869667,970
0.7886333,798
0.7903,1099
0.7919667,1142
0.7936333,928
0.7953,894
0.7969667,1114
0.7986333,991
0.8003,859
0.8019667,1028
0.8036333,954
0.8053,908
0.8069667,917
0.8086333,969
0.8103,983
0.8119667,1029
0.8136333,1038
0.8153,940
0.8169667,1148
0.8186333,861
0.8203,1029
0.8219666,932
0.8236333,936
0.8253,872
0.8269666,805
0.8286333,1047
0.8303,1000
0.8319666,1050
0.8336333,851
0.8353,1057
0.8369667,884
0.8386334,1018
0.8403,942
0.8419667,1088
0.8436334,813
0.8453,815
0.8469667,973
0.8486333,1001
0.8503,995
0.8519667,916
0.8536333,1109
0.8553,831
0.8569667,902
0.8586333,931
0.8603,966
0.8619667,926
0.8636333,886
0.8653,915
0.8669667,830
0.8686333,826
0.8703,973
0.8719667,987
0.8736333,975
0.8753,855
0.8769667,950
0.8786333,931
0.8803,920
0.8819667,1005
0.8836333,1090
0.8853,1055
0.8869666,1019
0.8886333,1137
0.8903,1200
0.8919666,1128
0.8936333,1081
0.8953,1034
0.8969667,1094
0.8986334,1154
0.9003,1185
0.9019667,1188
0.9036334,1190
0.9053,1229
0.9069667,1231
0.9086334,1237
0.9103,1234
0.9119667,1231
0.9136333,1267
0.9153,1350
0.9169667,1472
0.9186333,1470
0.9203,1167
0.9219667,1272
0.9236333,1392
0.9253,1195
0.9269667,1160
0.9286333,1126
0.9303,1216
0.9319667,1182
0.9336333,1147
0.9353,1315
0.9369667,1275
0.9386333,1172
0.9403,1305
0.9419667,1145
0.9436333,1258
0.9453,1276
0.9469666,1245
0.9486333,1192
0.9503,1100
0.9519666,1140
0.9536333,1088
0.9553,1146
0.9569666,1055
0.9586333,1136
0.9603,964
0.9619667,1071
0.9636334,1182
0.9653,878
0.9669667,1177
0.9686334,1021
0.9703,933
0.9719667,1058
0.9736333,889
0.9753,1025
0.9769667,1001
0.9786333,964
0.9803,1021
0.9819667,842
0.9836333,999
0.9853,907
0.9869667,872
0.9886333,918
0.9903,782
0.9919667,801
0.9936333,983
0.9953,1069
0.9969667,1011
0.9986333,829
1.0003,728
1.001967,846
1.003633,1081
1.0053,1019
1.006967,1153
1.008633,947
1.0103,792
1.011967,861
1.013633,857
1.0153,887
1.016967,917
1.018633,868
1.0203,818
1.021967,821
1.023633,888
1.0253,955
1.026967,973
1.028633,965
1.0303,735
1.031967,961
1.033633,709
1.0353,830
1.036967,857
1.038633,871
1.0403,889
1.041967,906
1.043633,904
1.0453,902
1.046967,862
1.048633,875
1.0503,770
1.051967,861
1.053633,851
1.0553,908
1.056967,964
1.058633,1035
1.0603,1084
1.061967,1013
1.063633,976
1.0653,737
1.066967,917
1.068633,1011
1.0703,1098
1.071967,1058
1.073633,904
1.0753,771
1.076967,1033
1.078633,937
1.0803,841
1.081967,943
1.083633,1013
1.0853,746
1.086967,828
1.088633,976
1.0903,931
1.091967,974
1.093633,1072
1.0953,832
1.096967,968
1.098633,732
1.1003,989
1.101967,723
1.103633,997
1.1053,750
1.106967,749
1.108633,855
1.1103,900
1.111967,859
1.113633,819
1.1153,939
1.116967,1014
1.118633,947
1.1203,666
1.121967,722
1.123633,911
1.1253,901
1.126967,809
1.128633,820
1.1303,828
1.131967,801
1.133633,775
1.1353,848
1.136967,920
1.138633,932
1.1403,896
1.141967,750
1.143633,902
1.1453,763
1.146967,812
1.148633,869
1.1503,824
1.151967,832
1.153633,884
1.1553,868
1.156967,852
1.158633,854
1.1603,850
1.161967,845
1.163633,690
1.1653,909
1.166967,857
1.168633,748
1.1703,905
1.171967,899
1.173633,793
1.1753,703
1.176967,882
1.178633,911
1.1803,878
1.181967,864
1.183633,850
1.1853,836
1.186967,840
1.188633,843
1.1903,832
1.191967,815
1.193633,797
1.1953,780
1.196967,697
1.198633,871
