"SampleName","A2Rd2_02-83"
"Target Mass 1",
"Column Name","IA-3 (3um, 4.6X100)"
"Channel","QDa 1: SIR Ch1"
0.00195,350
0.003616667,623
0.005283333,612
0.00695,608
0.008616666,494
0.01028333,642
0.01195,474
0.01361667,639
0.01528333,489
0.01695,546
0.01861667,562
0.02028333,626
0.02195,443
0.02361667,551
0.02528333,601
0.02695,488
0.02861667,507
0.03028333,666
0.03195,420
0.03361667,665
0.03528333,622
0.03695,584
0.03861667,475
0.04028333,618
0.04195,510
0.04361667,461
0.04528333,629
0.04695,458
0.04861667,498
0.05028334,553
0.05195,451
0.05361667,557
0.05528333,521
0.05695,486
0.05861667,536
0.06028333,528
0.06195,596
0.06361666,615
0.06528334,436
0.06695,479
0.06861667,590
0.07028333,663
0.07195,629
0.07361667,605
0.07528333,579
0.07695,428
0.07861666,593
0.08028334,506
0.08195,569
0.08361667,360
0.08528333,431
0.08695,461
0.08861667,380
0.09028333,299
0.09195,519
0.09361666,587
0.09528334,559
0.09695,392
0.09861667,642
0.1002833,598
0.10195,389
0.1036167,513
0.1052833,541
0.10695,554
0.1086167,517
0.1102833,479
0.11195,545
0.1136167,458
0.1152833,494
0.11695,530
0.1186167,470
0.1202833,592
0.12195,377
0.1236167,525
0.1252833,438
0.12695,471
0.1286167,504
0.1302833,600
0.13195,653
0.1336167,601
0.1352833,427
0.13695,470
0.1386167,534
0.1402833,462
0.14195,438
0.1436167,547
0.1452833,401
0.14695,460
0.1486167,604
0.1502833,555
0.15195,492
0.1536167,567
0.1552833,534
0.15695,498
0.1586167,488
0.1602833,526
0.16195,499
0.1636167,472
0.1652833,513
0.16695,517
0.1686167,520
0.1702833,532
0.17195,558
0.1736167,554
0.1752833,452
0.17695,539
0.1786167,427
0.1802833,396
0.18195,481
0.1836167,516
0.1852833,505
0.18695,494
0.1886167,515
0.1902833,513
0.19195,495
0.1936167,493
0.1952833,491
0.19695,439
0.1986167,459
0.2002833,424
0.20195,433
0.2036167,443
0.2052833,420
0.20695,397
0.2086167,405
0.2102833,507
0.21195,610
0.2136167,664
0.2152833,521
0.21695,590
0.2186167,495
0.2202833,516
0.22195,538
0.2236167,490
0.2252833,443
0.22695,522
0.2286167,439
0.2302833,461
0.23195,484
0.2336167,486
0.2352833,355
0.23695,529
0.2386167,410
0.2402833,567
0.24195,591
0.2436167,552
0.2452833,541
0.24695,292
0.2486167,549
0.2502833,523
0.25195,668
0.2536167,450
0.2552833,502
0.25695,517
0.2586167,507
0.2602833,486
0.26195,573
0.2636333,592
0.2652833,471
0.26695,469
0.2686167,489
0.2702833,494
0.27195,499
0.2736167,486
0.2752833,474
0.27695,535
0.2786167,367
0.2803,447
0.28195,527
0.2836167,392
0.2852833,529
0.28695,654
0.2886167,552
0.2902833,614
0.29195,588
0.2936333,511
0.2952833,575
0.29695,541
0.2986333,477
0.3002833,571
0.30195,473
0.3036167,636
0.3052833,649
0.30695,574
0.3086167,497
0.3102833,543
0.31195,510
0.3136167,563
0.3153,485
0.31695,521
0.3186333,557
0.3202833,649
0.32195,689
0.3236167,726
0.3252833,655
0.3269667,579
0.3286167,553
0.3302833,591
0.3319667,486
0.3336333,530
0.3353,511
0.3369667,498
0.3386167,619
0.3402833,576
0.34195,533
0.3436333,556
0.3452833,558
0.34695,549
0.3486333,513
0.3503,476
0.3519667,492
0.3536333,508
0.3553,514
0.35695,516
0.3586167,516
0.3603,584
0.36195,652
0.3636333,1069
0.3653,1248
0.3669667,1861
0.3686333,2356
0.3703,2968
0.3719667,2950
0.3736333,3347
0.3753,2522
0.3769667,3067
0.3786167,3773
0.3803,3541
0.3819667,3811
0.3836333,3642
0.3853,3571
0.3869667,3717
0.3886333,3096
0.3903,2607
0.3919667,2398
0.3936333,1513
0.3952833,1550
0.3969667,1050
0.3986333,1269
0.4003,1208
0.4019667,1211
0.4036333,1214
0.4053,1235
0.4069667,1247
0.4086333,1147
0.4103,1107
0.4119667,1067
0.4136333,1321
0.4153,1400
0.4169667,1256
0.4186333,1367
0.4203,1385
0.4219667,1404
0.4236333,1432
0.4253,1459
0.4269667,1358
0.4286333,1436
0.4303,1455
0.4319667,1474
0.4336333,1751
0.4353,2967
0.4369667,4451
0.4386333,6611
0.4403,10536
0.4419667,18148
0.4436333,27484
0.4453,41536
0.4469667,55792
0.4486333,76208
0.4503,95232
0.4519667,108992
0.4536333,129680
0.4553,141696
0.4569667,153856
0.4586333,159808
0.4603,166528
0.4619667,165568
0.4636333,167744
0.4653,167808
0.4669667,167872
0.4686333,166656
0.4703,168000
0.4719667,169344
0.4736333,175680
0.4753,179648
0.4769667,184384
0.4786333,185920
0.4803,185216
0.4819667,181760
0.4836333,172992
0.4853,161344
0.4869667,141824
0.4886333,132416
0.4903,111936
0.4919667,98480
0.4936333,81792
0.4953,69136
0.4969667,58720
0.4986333,47744
0.5003,39168
0.5019667,29808
0.5036333,25608
0.5053,21560
0.5069667,17060
0.5086333,14864
0.5103,12220
0.5119666,10416
0.5136333,9260
0.5153,8320
0.5169666,6267
0.5186333,5830
0.5203,5629
0.5219667,5174
0.5236334,4699
0.5253,3883
0.5269667,3859
0.5286334,3504
0.5303,2946
0.5319667,3211
0.5336334,2929
0.5353,2802
0.5369667,2565
0.5386333,2382
0.5403,2434
0.5419667,2486
0.5436333,2253
0.5453,2098
0.5469667,2269
0.5486333,1777
0.5503,1951
0.5519667,2106
0.5536333,2054
0.5553,2054
0.5569667,1818
0.5586333,1546
0.5603,1764
0.5619667,1474
0.5636333,1687
0.5653,1499
0.5669667,1563
0.5686333,1464
0.5703,1560
0.5719666,1376
0.5736333,1517
0.5753,1432
0.5769666,1149
0.5786333,1188
0.5803,1438
0.5819666,1353
0.5836333,1380
0.5853,1478
0.5869667,1300
0.5886334,1355
0.5903,1219
0.5919667,1299
0.5936334,1380
0.5953,1248
0.5969667,1320
0.5986333,1139
0.6003,1010
0.6019667,1365
0.6036333,1456
0.6053,1463
0.6069667,1538
0.6086333,1580
0.6103,1291
0.6119667,1239
0.6136333,1211
0.6153,1196
0.6169667,1211
0.6186333,1121
0.6203,1165
0.6219667,1409
0.6236333,1491
0.6253,1273
0.6269667,1121
0.6286333,1284
0.6303,1213
0.6319667,1096
0.6336333,1011
0.6353,1109
0.6369666,1079
0.6386333,1003
0.6403,927
0.6419666,1118
0.6436333,972
0.6453,1125
0.6469667,901
0.6486334,1087
0.6503,959
0.6519667,852
0.6536334,1073
0.6553,1022
0.6569667,1013
0.6586334,1060
0.6603,824
0.6619667,977
0.6636333,1067
0.6653,1115
0.6669667,911
0.6686333,781
0.6703,949
0.6719667,889
0.6736333,911
0.6753,974
0.6769667,968
0.6786333,961
0.6803,952
0.6819667,679
0.6836333,797
0.6853,999
0.6869667,986
0.6886333,665
0.6903,932
0.6919667,813
0.6936333,834
0.6953,702
0.6969666,894
0.6986333,859
0.7003,844
0.7019666,763
0.7036333,799
0.7053,835
0.7069666,832
0.7086333,764
0.7103,799
0.7119667,833
0.7136334,827
0.7153,766
0.7169667,813
0.7186334,859
0.7203,830
0.7219667,802
0.7236333,760
0.7253,852
0.7269667,651
0.7286333,916
0.7303,940
0.7319667,663
0.7336333,824
0.7353,878
0.7369667,818
0.7386333,770
0.7403,934
0.7419667,983
0.7436333,1023
0.7453,771
0.7469667,931
0.7486333,959
0.7503,859
0.7519667,714
0.7536333,700
0.7553,880
0.7569667,1003
0.7586333,1101
0.7603,835
0.7619666,928
0.7636333,935
0.7653,913
0.7669666,872
0.7686333,805
0.7703,867
0.7719667,846
0.7736334,825
0.7753,617
0.7769667,904
0.7786334,869
0.7803,950
0.7819667,795
0.7836334,999
0.7853,1054
0.7869667,862
0.7886333,875
0.7903,790
0.7919667,852
0.7936333,870
0.7953,888
0.7969667,791
0.7986333,757
0.8003,656
0.8019667,790
0.8036333,619
0.8053,625
0.8069667,631
0.8086333,827
0.8103,876
0.8119667,715
0.8136333,812
0.8153,822
0.8169667,860
0.8186333,784
0.8203,820
0.8219666,794
0.8236333,796
0.8253,797
0.8269666,797
0.8286333,762
0.8303,778
0.8319666,794
0.8336333,826
0.8353,804
0.8369667,783
0.8386334,803
0.8403,792
0.8419667,780
0.8436334,763
0.8453,746
0.8469667,784
0.8486333,777
0.8503,751
0.8519667,724
0.8536333,739
0.8553,754
0.8569667,758
0.8586333,790
0.8603,640
0.8619667,776
0.8636333,824
0.8653,872
0.8669667,601
0.8686333,670
0.8703,652
0.8719667,720
0.8736333,734
0.8753,694
0.8769667,995
0.8786333,1192
0.8803,1608
0.8819667,1897
0.8836333,2203
0.8853,2955
0.8869666,3140
0.8886333,3497
0.8903,3508
0.8919666,3536
0.8936333,3565
0.8953,3449
0.8969667,3650
0.8986334,3755
0.9003,3852
0.9019667,3593
0.9036334,3819
0.9053,4118
0.9069667,3986
0.9086334,3743
0.9103,3850
0.9119667,3696
0.9136333,3862
0.9153,3846
0.9169667,3830
0.9186333,4101
0.9203,3498
0.9219667,4154
0.9236333,4113
0.9253,4009
0.9269667,4139
0.9286333,3573
0.9303,3929
0.9319667,3726
0.9336333,3464
0.9353,3417
0.9369667,3417
0.9386333,3398
0.9403,3463
0.9419667,3192
0.9436333,3251
0.9453,3260
0.9469666,2704
0.9486333,2933
0.9503,2606
0.9519666,2297
0.9536333,2728
0.9553,2189
0.9569666,2204
0.9586333,2186
0.9603,1992
0.9619667,1828
0.9636334,2068
0.9653,1773
0.9669667,1635
0.9686334,1756
0.9703,1695
0.9719667,1197
0.9736333,1320
0.9753,1167
0.9769667,1042
0.9786333,1151
0.9803,918
0.9819667,939
0.9836333,814
0.9853,945
0.9869667,891
0.9886333,882
0.9903,786
0.9919667,965
0.9936333,747
0.9953,797
0.9969667,646
0.9986333,751
1.0003,676
1.001967,579
1.003633,657
1.0053,688
1.006967,711
1.008633,552
1.0103,611
1.011967,770
1.013633,647
1.0153,711
1.016967,517
1.018633,561
1.0203,602
1.021967,602
1.023633,603
1.0253,644
1.026967,644
1.028633,644
1.0303,596
1.031967,617
1.033633,638
1.0353,581
1.036967,524
1.038633,505
1.0403,679
1.041967,635
1.043633,617
1.0453,654
1.046967,634
1.048633,614
1.0503,604
1.051967,593
1.053633,560
1.0553,568
1.056967,576
1.058633,663
1.0603,652
1.061967,551
1.063633,561
1.0653,571
1.066967,642
1.068633,729
1.0703,715
1.071967,711
1.073633,672
1.0753,633
1.076967,686
1.078633,738
1.0803,569
1.081967,702
1.083633,590
1.0853,608
1.086967,626
1.088633,578
1.0903,530
1.091967,632
1.093633,617
1.0953,601
1.096967,595
1.098633,566
1.1003,538
1.101967,693
1.103633,677
1.1053,708
1.106967,679
1.108633,478
1.1103,722
1.111967,791
1.113633,712
1.1153,684
1.116967,563
1.118633,720
1.1203,716
1.121967,674
1.123633,692
1.1253,721
1.126967,576
1.128633,622
1.1303,623
1.131967,624
1.133633,629
1.1353,633
1.136967,772
1.138633,736
1.1403,638
1.141967,638
1.143633,606
1.1453,612
1.146967,623
1.148633,636
1.1503,648
1.151967,628
1.153633,609
1.1553,656
1.156967,704
1.158633,872
1.1603,781
1.161967,691
1.163633,569
1.1653,749
1.166967,766
1.168633,735
1.1703,662
1.171967,767
1.173633,754
1.1753,769
1.176967,700
1.178633,650
1.1803,706
1.181967,585
1.183633,593
1.1853,601
1.186967,689
1.188633,751
1.1903,840
1.191967,758
1.193633,691
1.1953,727
1.196967,730
1.198633,741
