"SampleName","A2Rd2_02-53"
"Target Mass 1",
"Column Name","IA-3 (3um, 4.6X100)"
"Channel","QDa 1: SIR Ch1"
0.00195,338
0.003616667,552
0.005283333,523
0.00695,578
0.008616666,512
0.01028333,536
0.01195,560
0.01361667,541
0.01528333,531
0.01695,520
0.01861667,540
0.02028333,463
0.02195,555
0.02361667,473
0.02528333,425
0.02695,457
0.02861667,450
0.03028333,389
0.03195,496
0.03361667,451
0.03528333,406
0.03695,465
0.03861667,442
0.04028333,431
0.04195,421
0.04361667,459
0.04528333,496
0.04695,475
0.04861667,454
0.05028334,426
0.05195,397
0.05361667,463
0.05528333,428
0.05695,393
0.05861667,393
0.06028333,444
0.06195,421
0.06361666,399
0.06528334,461
0.06695,599
0.06861667,594
0.07028333,457
0.07195,504
0.07361667,471
0.07528333,489
0.07695,430
0.07861666,381
0.08028334,457
0.08195,373
0.08361667,397
0.08528333,421
0.08695,399
0.08861667,378
0.09028333,333
0.09195,289
0.09361666,624
0.09528334,675
0.09695,538
0.09861667,438
0.1002833,542
0.10195,404
0.1036167,338
0.1052833,403
0.10695,551
0.1086167,554
0.1102833,379
0.11195,440
0.1136167,625
0.1152833,573
0.11695,556
0.1186167,367
0.1202833,466
0.12195,422
0.1236167,415
0.1252833,364
0.12695,381
0.1286167,398
0.1302833,433
0.13195,422
0.1336167,411
0.1352833,476
0.13695,459
0.1386167,404
0.1402833,453
0.14195,444
0.1436167,435
0.1452833,325
0.14695,394
0.1486167,433
0.1502833,495
0.15195,521
0.1536167,517
0.1552833,448
0.15695,479
0.1586333,491
0.1602833,502
0.16195,513
0.1636167,522
0.1652833,531
0.16695,371
0.1686167,471
0.1702833,512
0.17195,456
0.1736167,446
0.1753,407
0.17695,391
0.1786167,504
0.1802833,531
0.18195,480
0.1836167,403
0.1852833,463
0.18695,496
0.1886167,529
0.1902833,443
0.19195,416
0.1936167,408
0.1952833,419
0.19695,399
0.1986167,625
0.2002833,578
0.20195,459
0.2036167,435
0.2053,555
0.20695,536
0.2086167,517
0.2102833,468
0.21195,456
0.2136167,435
0.2152833,452
0.21695,392
0.2186167,295
0.2202833,438
0.22195,436
0.2236167,434
0.2252833,451
0.22695,607
0.2286333,598
0.2302833,486
0.23195,425
0.2336167,371
0.2352833,409
0.23695,483
0.2386167,450
0.2402833,416
0.24195,533
0.2436167,542
0.2452833,479
0.24695,472
0.2486333,434
0.2502833,409
0.25195,418
0.2536167,445
0.2552833,473
0.25695,494
0.2586167,488
0.2602833,467
0.26195,464
0.2636333,461
0.2652833,394
0.26695,469
0.2686167,451
0.2702833,479
0.27195,449
0.2736167,419
0.2752833,472
0.27695,487
0.2786167,446
0.2803,499
0.28195,515
0.2836167,487
0.2852833,479
0.28695,470
0.2886333,515
0.2902833,537
0.29195,559
0.2936167,591
0.2952833,623
0.29695,466
0.2986333,503
0.3002833,544
0.30195,515
0.3036167,487
0.3052833,455
0.30695,570
0.3086167,544
0.3102833,504
0.31195,440
0.3136167,551
0.3153,531
0.31695,498
0.3186167,531
0.3202833,477
0.32195,478
0.3236167,583
0.3252833,624
0.32695,631
0.3286167,490
0.3302833,488
0.33195,495
0.3336333,514
0.3352833,503
0.33695,493
0.3386167,520
0.3402833,448
0.34195,510
0.3436167,443
0.3452833,501
0.34695,407
0.3486167,423
0.3503,438
0.35195,599
0.3536333,557
0.3552833,476
0.3569667,594
0.3586167,531
0.3602833,429
0.36195,563
0.3636167,711
0.3652833,1369
0.36695,1711
0.3686333,2273
0.3702833,2977
0.3719667,3422
0.3736167,3657
0.3752833,3599
0.3769667,3498
0.3786333,4040
0.3803,4224
0.38195,4242
0.3836333,3633
0.3853,4211
0.3869667,3587
0.3886333,2616
0.3903,2643
0.3919667,2070
0.3936333,1700
0.3953,1567
0.3969667,1399
0.3986333,1222
0.4003,1014
0.4019667,1274
0.4036333,1186
0.4053,1277
0.4069667,1194
0.4086333,1111
0.4103,1278
0.4119667,1396
0.4136333,1519
0.4153,1455
0.4169667,1439
0.4186333,1450
0.4203,1494
0.4219667,1511
0.4236333,1514
0.4253,1528
0.4269667,1542
0.4286333,1467
0.4303,1921
0.4319667,2083
0.4336333,2431
0.4353,3839
0.4369667,5281
0.4386333,8432
0.4403,13524
0.4419667,20796
0.4436333,30244
0.4453,44576
0.4469667,58432
0.4486333,72576
0.4503,87984
0.4519667,103984
0.4536333,116592
0.4553,126688
0.4569667,138816
0.4586333,145280
0.4603,153024
0.4619667,157312
0.4636333,159552
0.4653,161024
0.4669667,163776
0.4686333,169728
0.4703,174464
0.4719667,184640
0.4736333,185856
0.4753,195136
0.4769667,201408
0.4786333,201792
0.4803,199808
0.4819667,191616
0.4836333,180864
0.4853,163520
0.4869667,148288
0.4886333,128304
0.4903,109936
0.4919667,91920
0.4936333,76576
0.4953,62848
0.4969667,51968
0.4986333,43056
0.5003,34272
0.5019667,26864
0.5036333,21748
0.5053,17572
0.5069667,14064
0.5086333,11416
0.5103,10248
0.5119666,8768
0.5136333,7101
0.5153,6353
0.5169666,5841
0.5186333,5206
0.5203,4905
0.5219667,4187
0.5236334,3534
0.5253,3063
0.5269667,3405
0.5286334,3148
0.5303,2853
0.5319667,3005
0.5336334,2847
0.5353,2615
0.5369667,2692
0.5386333,2611
0.5403,2427
0.5419667,2386
0.5436333,2229
0.5453,2399
0.5469667,2528
0.5486333,2073
0.5503,2163
0.5519667,1767
0.5536333,2080
0.5553,2027
0.5569667,1858
0.5586333,1732
0.5603,1635
0.5619667,1935
0.5636333,1814
0.5653,1601
0.5669667,1839
0.5686333,1712
0.5703,1746
0.5719666,1523
0.5736333,1734
0.5753,1384
0.5769666,1565
0.5786333,1401
0.5803,1477
0.5819666,1254
0.5836333,1395
0.5853,1382
0.5869667,1370
0.5886334,1398
0.5903,1426
0.5919667,1251
0.5936334,1441
0.5953,1395
0.5969667,1350
0.5986333,1392
0.6003,1380
0.6019667,1439
0.6036333,1511
0.6053,1532
0.6069667,1518
0.6086333,1498
0.6103,1445
0.6119667,1439
0.6136333,1451
0.6153,1388
0.6169667,1372
0.6186333,1092
0.6203,1245
0.6219667,1254
0.6236333,1202
0.6253,1285
0.6269667,1306
0.6286333,1327
0.6303,1218
0.6319667,1309
0.6336333,949
0.6353,1254
0.6369666,1010
0.6386333,1257
0.6403,1406
0.6419666,1161
0.6436333,1193
0.6453,1024
0.6469667,770
0.6486334,756
0.6503,932
0.6519667,1021
0.6536334,999
0.6553,908
0.6569667,891
0.6586334,1034
0.6603,815
0.6619667,881
0.6636333,1074
0.6653,920
0.6669667,818
0.6686333,926
0.6703,728
0.6719667,1131
0.6736333,1099
0.6753,790
0.6769667,1164
0.6786333,854
0.6803,962
0.6819667,856
0.6836333,802
0.6853,940
0.6869667,790
0.6886333,880
0.6903,931
0.6919667,754
0.6936333,690
0.6953,896
0.6969666,854
0.6986333,812
0.7003,788
0.7019666,794
0.7036333,800
0.7053,788
0.7069666,946
0.7086333,598
0.7103,751
0.7119667,761
0.7136334,829
0.7153,753
0.7169667,676
0.7186334,832
0.7203,748
0.7219667,838
0.7236333,635
0.7253,659
0.7269667,857
0.7286333,742
0.7303,627
0.7319667,819
0.7336333,796
0.7353,844
0.7369667,786
0.7386333,538
0.7403,918
0.7419667,779
0.7436333,754
0.7453,895
0.7469667,955
0.7486333,994
0.7503,752
0.7519667,946
0.7536333,834
0.7553,876
0.7569667,734
0.7586333,809
0.7603,732
0.7619666,742
0.7636333,802
0.7653,764
0.7669666,727
0.7686333,664
0.7703,631
0.7719667,742
0.7736334,755
0.7753,797
0.7769667,769
0.7786334,700
0.7803,758
0.7819667,759
0.7836334,761
0.7853,743
0.7869667,725
0.7886333,734
0.7903,743
0.7919667,830
0.7936333,580
0.7953,890
0.7969667,778
0.7986333,698
0.8003,731
0.8019667,765
0.8036333,601
0.8053,751
0.8069667,778
0.8086333,786
0.8103,743
0.8119667,518
0.8136333,910
0.8153,693
0.8169667,943
0.8186333,784
0.8203,797
0.8219666,695
0.8236333,768
0.8253,795
0.8269666,671
0.8286333,715
0.8303,742
0.8319666,630
0.8336333,677
0.8353,718
0.8369667,779
0.8386334,800
0.8403,767
0.8419667,782
0.8436334,817
0.8453,798
0.8469667,712
0.8486333,645
0.8503,592
0.8519667,689
0.8536333,785
0.8553,708
0.8569667,631
0.8586333,819
0.8603,824
0.8619667,633
0.8636333,744
0.8653,688
0.8669667,724
0.8686333,656
0.8703,425
0.8719667,730
0.8736333,528
0.8753,534
0.8769667,803
0.8786333,973
0.8803,969
0.8819667,1255
0.8836333,1524
0.8853,1879
0.8869666,2712
0.8886333,2372
0.8903,2746
0.8919666,2846
0.8936333,2946
0.8953,3155
0.8969667,3181
0.8986334,3246
0.9003,3311
0.9019667,3268
0.9036334,3226
0.9053,3408
0.9069667,3419
0.9086334,3431
0.9103,3485
0.9119667,3540
0.9136333,3459
0.9153,3378
0.9169667,3500
0.9186333,3327
0.9203,3528
0.9219667,3531
0.9236333,3190
0.9253,3521
0.9269667,3017
0.9286333,3450
0.9303,3769
0.9319667,3279
0.9336333,3059
0.9353,2779
0.9369667,2984
0.9386333,2778
0.9403,2715
0.9419667,2652
0.9436333,2872
0.9453,2373
0.9469666,2657
0.9486333,2277
0.9503,2534
0.9519666,2426
0.9536333,2230
0.9553,1995
0.9569666,1839
0.9586333,2053
0.9603,1670
0.9619667,1754
0.9636334,1848
0.9653,1462
0.9669667,1638
0.9686334,1520
0.9703,1274
0.9719667,1103
0.9736333,1195
0.9753,1121
0.9769667,1170
0.9786333,901
0.9803,993
0.9819667,761
0.9836333,1047
0.9853,999
0.9869667,637
0.9886333,752
0.9903,686
0.9919667,665
0.9936333,644
0.9953,641
0.9969667,615
0.9986333,634
1.0003,653
1.001967,458
1.003633,671
1.0053,598
1.006967,565
1.008633,486
1.0103,562
1.011967,651
1.013633,589
1.0153,526
1.016967,468
1.018633,655
1.0203,646
1.021967,636
1.023633,502
1.0253,643
1.026967,695
1.028633,540
1.0303,626
1.031967,673
1.033633,629
1.0353,653
1.036967,658
1.038633,650
1.0403,641
1.041967,581
1.043633,665
1.0453,635
1.046967,521
1.048633,611
1.0503,699
1.051967,642
1.053633,698
1.0553,676
1.056967,626
1.058633,514
1.0603,618
1.061967,505
1.063633,670
1.0653,578
1.066967,635
1.068633,703
1.0703,668
1.071967,645
1.073633,608
1.0753,571
1.076967,563
1.078633,554
1.0803,596
1.081967,638
1.083633,614
1.0853,677
1.086967,739
1.088633,728
1.0903,609
1.091967,709
1.093633,505
1.0953,584
1.096967,726
1.098633,738
1.1003,572
1.101967,705
1.103633,581
1.1053,727
1.106967,697
1.108633,696
1.1103,664
1.111967,609
1.113633,687
1.1153,601
1.116967,570
1.118633,612
1.1203,570
1.121967,556
1.123633,542
1.1253,569
1.126967,597
1.128633,590
1.1303,582
1.131967,577
1.133633,549
1.1353,590
1.136967,598
1.138633,644
1.1403,639
1.141967,535
1.143633,567
1.1453,542
1.146967,517
1.148633,625
1.1503,653
1.151967,624
1.153633,595
1.1553,487
1.156967,623
1.158633,633
1.1603,672
1.161967,651
1.163633,630
1.1653,713
1.166967,699
1.168633,519
1.1703,561
1.171967,666
1.173633,570
1.1753,448
1.176967,668
1.178633,604
1.1803,539
1.181967,593
1.183633,533
1.1853,473
1.186967,692
1.188633,847
1.1903,798
1.191967,705
1.193633,666
1.1953,809
1.196967,536
1.198633,760
