"SampleName","A2Rd2_02-15"
"Target Mass 1",
"Column Name","IA-3 (3um, 4.6X100)"
"Channel","QDa 1: SIR Ch2"
0.00195,475
0.003616667,682
0.005283333,664
0.00695,720
0.008616666,904
0.01028333,1036
0.01195,1004
0.01361667,896
0.01528333,993
0.01695,996
0.01861667,894
0.02028333,755
0.02195,813
0.02361667,834
0.02528333,854
0.02695,787
0.02861667,794
0.03028333,801
0.03195,848
0.03361667,895
0.03528333,963
0.03695,1043
0.03861667,920
0.04028333,797
0.04195,911
0.04361667,957
0.04528333,871
0.04695,960
0.04861667,764
0.05028334,1148
0.05195,1054
0.05361667,1156
0.05528333,1217
0.05695,1037
0.05861667,975
0.06028333,1085
0.06195,972
0.06361666,866
0.06528334,929
0.06695,919
0.06861667,908
0.07028333,879
0.07195,886
0.07361667,893
0.07528333,830
0.07695,841
0.07861666,851
0.08028334,715
0.08195,783
0.08361667,915
0.08528333,902
0.08695,889
0.08861667,915
0.09028333,941
0.09195,935
0.09361666,894
0.09528334,852
0.09695,872
0.09861667,893
0.1002833,813
0.10195,885
0.1036167,800
0.1052833,866
0.10695,931
0.1086167,685
0.1102833,817
0.11195,1035
0.1136167,919
0.1152833,802
0.11695,896
0.1186167,838
0.1202833,778
0.12195,913
0.1236167,864
0.1252833,842
0.12695,819
0.1286167,855
0.1302833,940
0.13195,934
0.1336167,928
0.1352833,876
0.13695,872
0.1386167,895
0.1402833,882
0.14195,869
0.1436167,756
0.1452833,755
0.14695,920
0.1486167,883
0.1502833,841
0.15195,821
0.1536167,816
0.1552833,651
0.15695,623
0.1586167,896
0.1602833,738
0.16195,760
0.1636167,864
0.1652833,662
0.16695,839
0.1686167,899
0.1702833,879
0.17195,925
0.1736167,772
0.1752833,739
0.17695,934
0.1786167,800
0.1802833,783
0.18195,905
0.1836167,781
0.1852833,820
0.18695,859
0.1886167,917
0.1902833,885
0.19195,852
0.1936167,890
0.1952833,857
0.19695,823
0.1986167,892
0.2002833,812
0.20195,720
0.2036167,665
0.2052833,993
0.20695,917
0.2086167,1064
0.2102833,1020
0.21195,842
0.2136167,809
0.2152833,1076
0.21695,831
0.2186167,985
0.2202833,1066
0.22195,1143
0.2236167,1113
0.2252833,1089
0.22695,1145
0.2286167,1160
0.2302833,1111
0.23195,1061
0.2336167,1221
0.2352833,773
0.23695,1191
0.2386167,1328
0.2402833,1086
0.24195,1104
0.2436167,1014
0.2452833,1362
0.24695,1275
0.2486167,898
0.2502833,1344
0.25195,1166
0.2536167,1344
0.2552833,1288
0.25695,1052
0.2586167,1028
0.2602833,1288
0.26195,1050
0.2636333,1065
0.2652833,1066
0.26695,1038
0.2686167,1013
0.2703,970
0.27195,979
0.2736167,902
0.2752833,825
0.27695,795
0.2786167,986
0.2803,935
0.28195,920
0.2836167,906
0.2852833,943
0.28695,981
0.2886167,942
0.2902833,904
0.29195,976
0.2936167,1042
0.2953,1089
0.29695,952
0.2986333,1071
0.3002833,912
0.30195,910
0.3036167,909
0.3052833,976
0.30695,1042
0.3086167,1146
0.3102833,1066
0.31195,1236
0.3136333,1189
0.3153,1142
0.3169667,1139
0.3186167,1137
0.3203,1364
0.32195,1305
0.3236167,1247
0.3252833,1031
0.32695,1193
0.3286167,1212
0.3302833,1198
0.33195,1096
0.3336333,1037
0.3352833,1072
0.33695,981
0.3386167,1080
0.3402833,1179
0.34195,1220
0.3436167,1205
0.3452833,1190
0.3469667,1225
0.3486167,1016
0.3503,1299
0.3519667,1293
0.3536333,1376
0.3552833,1316
0.3569667,1255
0.3586167,1349
0.3603,1398
0.3619667,1447
0.3636333,1393
0.3652833,2466
0.3669667,3489
0.3686333,3916
0.3703,4376
0.3719667,4250
0.3736333,4052
0.3753,4179
0.3769667,3984
0.3786333,3898
0.3803,3760
0.38195,3579
0.3836333,2796
0.3853,2478
0.3869667,1842
0.3886333,1309
0.3903,1108
0.3919667,874
0.3936333,652
0.3953,710
0.3969667,555
0.3986333,646
0.4003,526
0.4019667,394
0.4036333,444
0.4053,428
0.4069667,412
0.4086333,439
0.4103,506
0.4119667,561
0.4136333,524
0.4153,409
0.4169667,559
0.4186333,568
0.4203,669
0.4219667,723
0.4236333,653
0.4253,600
0.4269667,548
0.4286333,617
0.4303,753
0.4319667,797
0.4336333,850
0.4353,852
0.4369667,725
0.4386333,706
0.4403,869
0.4419667,1011
0.4436333,916
0.4453,924
0.4469667,965
0.4486333,1007
0.4503,1112
0.4519667,1044
0.4536333,976
0.4553,1013
0.4569667,1049
0.4586333,1200
0.4603,1201
0.4619667,1204
0.4636333,1222
0.4653,1240
0.4669667,1258
0.4686333,1032
0.4703,1438
0.4719667,1302
0.4736333,1200
0.4753,1442
0.4769667,1214
0.4786333,1286
0.4803,1361
0.4819667,1416
0.4836333,1290
0.4853,1187
0.4869667,1242
0.4886333,1263
0.4903,1134
0.4919667,1136
0.4936333,1138
0.4953,735
0.4969667,1138
0.4986333,1086
0.5003,988
0.5019667,983
0.5036333,885
0.5053,887
0.5069667,889
0.5086333,857
0.5103,959
0.5119666,1028
0.5136333,1014
0.5153,932
0.5169666,827
0.5186333,663
0.5203,1034
0.5219667,849
0.5236334,994
0.5253,1109
0.5269667,1032
0.5286334,922
0.5303,915
0.5319667,994
0.5336334,890
0.5353,877
0.5369667,864
0.5386333,840
0.5403,830
0.5419667,820
0.5436333,937
0.5453,865
0.5469667,792
0.5486333,876
0.5503,860
0.5519667,844
0.5536333,829
0.5553,882
0.5569667,926
0.5586333,971
0.5603,904
0.5619667,869
0.5636333,835
0.5653,957
0.5669667,886
0.5686333,815
0.5703,988
0.5719666,913
0.5736333,838
0.5753,1011
0.5769666,680
0.5786333,1079
0.5803,815
0.5819666,803
0.5836333,1108
0.5853,947
0.5869667,1025
0.5886334,934
0.5903,1024
0.5919667,1067
0.5936334,846
0.5953,924
0.5969667,745
0.5986333,925
0.6003,906
0.6019667,888
0.6036333,946
0.6053,1004
0.6069667,970
0.6086333,813
0.6103,999
0.6119667,792
0.6136333,1066
0.6153,767
0.6169667,998
0.6186333,803
0.6203,1060
0.6219667,848
0.6236333,941
0.6253,882
0.6269667,1135
0.6286333,1154
0.6303,1033
0.6319667,1084
0.6336333,1135
0.6353,950
0.6369666,987
0.6386333,996
0.6403,1072
0.6419666,1062
0.6436333,1052
0.6453,1129
0.6469667,1071
0.6486334,1014
0.6503,976
0.6519667,1114
0.6536334,1100
0.6553,1035
0.6569667,928
0.6586334,1006
0.6603,1109
0.6619667,1191
0.6636333,1241
0.6653,1040
0.6669667,1042
0.6686333,1156
0.6703,1577
0.6719667,1794
0.6736333,1516
0.6753,2218
0.6769667,2293
0.6786333,3528
0.6803,4023
0.6819667,5651
0.6836333,6884
0.6853,9000
0.6869667,10984
0.6886333,13264
0.6903,16680
0.6919667,18468
0.6936333,22148
0.6953,23832
0.6969666,26580
0.6986333,28000
0.7003,28688
0.7019666,31488
0.7036333,31288
0.7053,31732
0.7069666,31632
0.7086333,31532
0.7103,32028
0.7119667,32068
0.7136334,32108
0.7153,31372
0.7169667,32328
0.7186334,32164
0.7203,32024
0.7219667,28904
0.7236333,27060
0.7253,25556
0.7269667,22996
0.7286333,21400
0.7303,20084
0.7319667,16792
0.7336333,14808
0.7353,11868
0.7369667,10096
0.7386333,9492
0.7403,7517
0.7419667,6855
0.7436333,6159
0.7453,5375
0.7469667,4684
0.7486333,3990
0.7503,4089
0.7519667,3336
0.7536333,2745
0.7553,2807
0.7569667,2470
0.7586333,2317
0.7603,1947
0.7619666,2157
0.7636333,1950
0.7653,1984
0.7669666,1878
0.7686333,1850
0.7703,1822
0.7719667,2103
0.7736334,2033
0.7753,1891
0.7769667,2169
0.7786334,3048
0.7803,3280
0.7819667,4326
0.7836334,5314
0.7853,6075
0.7869667,8016
0.7886333,9932
0.7903,12804
0.7919667,15448
0.7936333,17408
0.7953,20776
0.7969667,24116
0.7986333,26428
0.8003,27384
0.8019667,29044
0.8036333,31172
0.8053,33216
0.8069667,32136
0.8086333,33104
0.8103,33088
0.8119667,33088
0.8136333,32040
0.8153,33648
0.8169667,34400
0.8186333,33472
0.8203,33280
0.8219666,33088
0.8236333,33216
0.8253,33360
0.8269666,31588
0.8286333,31096
0.8303,29420
0.8319666,27284
0.8336333,25084
0.8353,23884
0.8369667,21380
0.8386334,18564
0.8403,17184
0.8419667,15216
0.8436334,13320
0.8453,12676
0.8469667,9996
0.8486333,9336
0.8503,7738
0.8519667,6638
0.8536333,6128
0.8553,5734
0.8569667,5273
0.8586333,4173
0.8603,4259
0.8619667,3779
0.8636333,3276
0.8653,3186
0.8669667,2844
0.8686333,2537
0.8703,2552
0.8719667,2473
0.8736333,2179
0.8753,2243
0.8769667,2090
0.8786333,2067
0.8803,2181
0.8819667,2264
0.8836333,2355
0.8853,2447
0.8869666,2483
0.8886333,2519
0.8903,2342
0.8919666,2267
0.8936333,2407
0.8953,2145
0.8969667,1683
0.8986334,2299
0.9003,1919
0.9019667,2024
0.9036334,1873
0.9053,2073
0.9069667,1958
0.9086334,2092
0.9103,1836
0.9119667,1874
0.9136333,1671
0.9153,1747
0.9169667,1616
0.9186333,1736
0.9203,1675
0.9219667,1712
0.9236333,1467
0.9253,1447
0.9269667,1532
0.9286333,1498
0.9303,1465
0.9319667,1667
0.9336333,1687
0.9353,1465
0.9369667,1517
0.9386333,1569
0.9403,1405
0.9419667,1420
0.9436333,1435
0.9453,1551
0.9469666,1894
0.9486333,2180
0.9503,2506
0.9519666,2591
0.9536333,2942
0.9553,3745
0.9569666,4048
0.9586333,5468
0.9603,6519
0.9619667,7617
0.9636334,9848
0.9653,11928
0.9669667,14560
0.9686334,17944
0.9703,20164
0.9719667,24496
0.9736333,28460
0.9753,33040
0.9769667,37856
0.9786333,43312
0.9803,46288
0.9819667,49072
0.9836333,54816
0.9853,59504
0.9869667,61824
0.9886333,63120
0.9903,65888
0.9919667,68112
0.9936333,69792
0.9953,73408
0.9969667,73136
0.9986333,72768
1.0003,71664
1.001967,72688
1.003633,73712
1.0053,73408
1.006967,75344
1.008633,75840
1.0103,75072
1.011967,76368
1.013633,75824
1.0153,75296
1.016967,76064
1.018633,75072
1.0203,73232
1.021967,71280
1.023633,69472
1.0253,64592
1.026967,63936
1.028633,58608
1.0303,56640
1.031967,53552
1.033633,49008
1.0353,44208
1.036967,41472
1.038633,37088
1.0403,32244
1.041967,31112
1.043633,29032
1.0453,26008
1.046967,23896
1.048633,21476
1.0503,21220
1.051967,19644
1.053633,17756
1.0553,17848
1.056967,17384
1.058633,18008
1.0603,17400
1.061967,18752
1.063633,19156
1.0653,18996
1.066967,19216
1.068633,19436
1.0703,19696
1.071967,20844
1.073633,20856
1.0753,22252
1.076967,22776
1.078633,23156
1.0803,22188
1.081967,22560
1.083633,23544
1.0853,23304
1.086967,23060
1.088633,23312
1.0903,23560
1.091967,24084
1.093633,23848
1.0953,24156
1.096967,24136
1.098633,24120
1.1003,24192
1.101967,23788
1.103633,23276
1.1053,23404
1.106967,23316
1.108633,23444
1.1103,23156
1.111967,21480
1.113633,21600
1.1153,19880
1.116967,19500
1.118633,18976
1.1203,17388
1.121967,16228
1.123633,15708
1.1253,15088
1.126967,14028
1.128633,13232
1.1303,11952
1.131967,11208
1.133633,10024
1.1353,9596
1.136967,9204
1.138633,7851
1.1403,7485
1.141967,7219
1.143633,7282
1.1453,6041
1.146967,5538
1.148633,5472
1.1503,5102
1.151967,5132
1.153633,4423
1.1553,4330
1.156967,4259
1.158633,3499
1.1603,3558
1.161967,3463
1.163633,3216
1.1653,3197
1.166967,3032
1.168633,2657
1.1703,2820
1.171967,2619
1.173633,2578
1.1753,2132
1.176967,2712
1.178633,2596
1.1803,2398
1.181967,2412
1.183633,2251
1.1853,2291
1.186967,2331
1.188633,2325
1.1903,2318
1.191967,2574
1.193633,2787
1.1953,2660
1.196967,2877
1.198633,3266
