"SampleName","A2Rd2_02-53"
"Target Mass 1",
"Column Name","IA-3 (3um, 4.6X100)"
"Channel","QDa 1: SIR Ch2"
0.00195,529
0.003616667,778
0.005283333,543
0.00695,814
0.008616666,846
0.01028333,878
0.01195,972
0.01361667,1010
0.01528333,922
0.01695,868
0.01861667,912
0.02028333,957
0.02195,1121
0.02361667,1130
0.02528333,1080
0.02695,975
0.02861667,1096
0.03028333,998
0.03195,1035
0.03361667,839
0.03528333,1001
0.03695,1136
0.03861667,1089
0.04028333,1043
0.04195,915
0.04361667,1150
0.04528333,1114
0.04695,1122
0.04861667,1183
0.05028334,967
0.05195,1028
0.05361667,1095
0.05528333,1049
0.05695,1004
0.05861667,1025
0.06028333,993
0.06195,959
0.06361666,1014
0.06528334,967
0.06695,897
0.06861667,976
0.07028333,1043
0.07195,1005
0.07361667,966
0.07528333,1025
0.07695,986
0.07861666,977
0.08028334,968
0.08195,872
0.08361667,1250
0.08528333,1184
0.08695,1072
0.08861667,1018
0.09028333,1081
0.09195,1072
0.09361666,871
0.09528334,1070
0.09695,999
0.09861667,929
0.1002833,784
0.10195,848
0.1036167,848
0.1052833,969
0.10695,992
0.1086167,987
0.1102833,1023
0.11195,862
0.1136167,1036
0.1152833,1148
0.11695,1175
0.1186167,813
0.1202833,861
0.12195,921
0.1236167,835
0.1252833,887
0.12695,940
0.1286167,902
0.1302833,944
0.13195,927
0.1336167,907
0.1352833,1024
0.13695,806
0.1386167,855
0.1402833,904
0.14195,900
0.1436167,895
0.1452833,889
0.14695,965
0.1486167,974
0.1502833,983
0.15195,830
0.1536167,852
0.1552833,873
0.15695,825
0.1586333,986
0.1602833,966
0.16195,940
0.1636167,896
0.1652833,1019
0.16695,956
0.1686167,892
0.1702833,857
0.17195,983
0.1736167,794
0.1753,831
0.17695,887
0.1786167,904
0.1802833,920
0.18195,837
0.1836167,766
0.1852833,988
0.18695,870
0.1886167,861
0.1902833,835
0.19195,783
0.1936167,771
0.1952833,759
0.19695,886
0.1986167,1013
0.2002833,1120
0.20195,1059
0.2036167,996
0.2053,1065
0.20695,985
0.2086167,877
0.2102833,1105
0.21195,1209
0.2136167,1099
0.2152833,910
0.21695,1196
0.2186167,1019
0.2202833,1175
0.22195,1061
0.2236167,919
0.2252833,1231
0.22695,1156
0.2286333,1121
0.2302833,1081
0.23195,1041
0.2336167,1172
0.2352833,1187
0.23695,1205
0.2386167,1202
0.2402833,1199
0.24195,1219
0.2436167,1260
0.2452833,1227
0.24695,1193
0.2486333,1543
0.2502833,1602
0.25195,1312
0.2536167,1116
0.2552833,1053
0.25695,1019
0.2586167,1160
0.2602833,1301
0.26195,1268
0.2636333,1326
0.2652833,1324
0.26695,1361
0.2686167,1074
0.2702833,934
0.27195,1180
0.2736167,1168
0.2752833,1262
0.27695,1247
0.2786167,1095
0.2803,1335
0.28195,1197
0.2836167,1245
0.2852833,1228
0.28695,1121
0.2886333,901
0.2902833,1298
0.29195,1122
0.2936167,991
0.2952833,1127
0.29695,1027
0.2986333,1206
0.3002833,1271
0.30195,1376
0.3036167,1404
0.3052833,1138
0.30695,1207
0.3086167,1187
0.3102833,1177
0.31195,1266
0.3136167,1356
0.3153,1314
0.31695,1355
0.3186167,1395
0.3202833,1419
0.32195,1443
0.3236167,1426
0.3252833,1352
0.32695,1390
0.3286167,1429
0.3302833,1265
0.33195,1435
0.3336333,1292
0.3352833,1241
0.33695,1464
0.3386167,1450
0.3402833,1209
0.34195,1304
0.3436167,1242
0.3452833,1202
0.34695,1463
0.3486167,1567
0.3503,1348
0.35195,1452
0.3536333,1281
0.3552833,1260
0.3569667,1428
0.3586167,1489
0.3602833,1145
0.36195,1493
0.3636167,1570
0.3652833,2164
0.36695,3043
0.3686333,3128
0.3702833,3290
0.3719667,3150
0.3736167,3331
0.3752833,3056
0.3769667,3139
0.3786333,2644
0.3803,2544
0.38195,2930
0.3836333,2390
0.3853,1923
0.3869667,1772
0.3886333,1386
0.3903,939
0.3919667,703
0.3936333,853
0.3953,623
0.3969667,520
0.3986333,591
0.4003,524
0.4019667,485
0.4036333,450
0.4053,446
0.4069667,553
0.4086333,537
0.4103,522
0.4119667,506
0.4136333,490
0.4153,548
0.4169667,607
0.4186333,569
0.4203,718
0.4219667,832
0.4236333,840
0.4253,688
0.4269667,735
0.4286333,746
0.4303,693
0.4319667,833
0.4336333,872
0.4353,747
0.4369667,946
0.4386333,907
0.4403,1089
0.4419667,948
0.4436333,967
0.4453,1114
0.4469667,1189
0.4486333,1099
0.4503,1336
0.4519667,1432
0.4536333,1324
0.4553,1179
0.4569667,1301
0.4586333,1301
0.4603,1302
0.4619667,1605
0.4636333,1632
0.4653,1552
0.4669667,1482
0.4686333,1575
0.4703,1532
0.4719667,1361
0.4736333,1492
0.4753,1507
0.4769667,1589
0.4786333,1653
0.4803,1288
0.4819667,1434
0.4836333,1589
0.4853,1294
0.4869667,1414
0.4886333,1463
0.4903,1089
0.4919667,1401
0.4936333,1308
0.4953,1205
0.4969667,1158
0.4986333,911
0.5003,977
0.5019667,1059
0.5036333,954
0.5053,1056
0.5069667,931
0.5086333,1023
0.5103,1162
0.5119666,1078
0.5136333,936
0.5153,1140
0.5169666,950
0.5186333,855
0.5203,853
0.5219667,966
0.5236334,965
0.5253,964
0.5269667,936
0.5286334,985
0.5303,934
0.5319667,882
0.5336334,905
0.5353,971
0.5369667,1037
0.5386333,1027
0.5403,995
0.5419667,964
0.5436333,813
0.5453,877
0.5469667,941
0.5486333,982
0.5503,918
0.5519667,1171
0.5536333,1112
0.5553,988
0.5569667,1126
0.5586333,964
0.5603,1074
0.5619667,973
0.5636333,1027
0.5653,1082
0.5669667,1053
0.5686333,1025
0.5703,1013
0.5719666,908
0.5736333,883
0.5753,858
0.5769666,865
0.5786333,872
0.5803,868
0.5819666,863
0.5836333,824
0.5853,785
0.5869667,914
0.5886334,954
0.5903,953
0.5919667,986
0.5936334,989
0.5953,991
0.5969667,993
0.5986333,763
0.6003,921
0.6019667,871
0.6036333,979
0.6053,767
0.6069667,1025
0.6086333,912
0.6103,894
0.6119667,887
0.6136333,905
0.6153,967
0.6169667,779
0.6186333,853
0.6203,926
0.6219667,955
0.6236333,1001
0.6253,1047
0.6269667,1107
0.6286333,1086
0.6303,943
0.6319667,970
0.6336333,1076
0.6353,856
0.6369666,1017
0.6386333,872
0.6403,1117
0.6419666,1043
0.6436333,1230
0.6453,1008
0.6469667,974
0.6486334,1030
0.6503,915
0.6519667,1069
0.6536334,942
0.6553,847
0.6569667,1070
0.6586334,887
0.6603,1100
0.6619667,993
0.6636333,1127
0.6653,892
0.6669667,792
0.6686333,954
0.6703,1201
0.6719667,1229
0.6736333,1246
0.6753,1416
0.6769667,1758
0.6786333,2096
0.6803,2348
0.6819667,3147
0.6836333,3643
0.6853,3979
0.6869667,5064
0.6886333,5771
0.6903,6799
0.6919667,7558
0.6936333,7971
0.6953,8524
0.6969666,9112
0.6986333,9504
0.7003,9472
0.7019666,9532
0.7036333,9592
0.7053,9536
0.7069666,9484
0.7086333,8888
0.7103,9220
0.7119667,8988
0.7136334,8956
0.7153,8856
0.7169667,7985
0.7186334,8652
0.7203,9224
0.7219667,8066
0.7236333,8178
0.7253,7815
0.7269667,7135
0.7286333,7434
0.7303,6556
0.7319667,5649
0.7336333,4903
0.7353,5049
0.7369667,4092
0.7386333,3607
0.7403,3925
0.7419667,3084
0.7436333,2916
0.7453,2788
0.7469667,2369
0.7486333,2033
0.7503,1980
0.7519667,1773
0.7536333,1702
0.7553,1594
0.7569667,1590
0.7586333,1561
0.7603,1205
0.7619666,1706
0.7636333,1370
0.7653,1323
0.7669666,1381
0.7686333,1165
0.7703,1250
0.7719667,1531
0.7736334,1655
0.7753,1639
0.7769667,1955
0.7786334,1970
0.7803,2806
0.7819667,3641
0.7836334,3673
0.7853,4596
0.7869667,5731
0.7886333,6968
0.7903,8588
0.7919667,10052
0.7936333,11564
0.7953,13072
0.7969667,15040
0.7986333,15272
0.8003,16980
0.8019667,17248
0.8036333,18204
0.8053,17200
0.8069667,17468
0.8086333,17948
0.8103,16924
0.8119667,17228
0.8136333,15808
0.8153,15780
0.8169667,16872
0.8186333,15060
0.8203,16016
0.8219666,14740
0.8236333,15000
0.8253,15888
0.8269666,14840
0.8286333,14960
0.8303,15192
0.8319666,14212
0.8336333,12492
0.8353,14016
0.8369667,12440
0.8386334,11196
0.8403,10344
0.8419667,9404
0.8436334,8596
0.8453,7971
0.8469667,7188
0.8486333,6038
0.8503,5809
0.8519667,4712
0.8536333,4598
0.8553,4142
0.8569667,3767
0.8586333,3256
0.8603,3265
0.8619667,2716
0.8636333,2786
0.8653,2342
0.8669667,2157
0.8686333,2140
0.8703,1942
0.8719667,1910
0.8736333,1884
0.8753,1703
0.8769667,1503
0.8786333,1890
0.8803,1620
0.8819667,1895
0.8836333,1875
0.8853,2044
0.8869666,2073
0.8886333,2061
0.8903,2067
0.8919666,2073
0.8936333,1795
0.8953,2277
0.8969667,2236
0.8986334,2039
0.9003,1841
0.9019667,1953
0.9036334,2069
0.9053,1613
0.9069667,1658
0.9086334,1911
0.9103,1779
0.9119667,1648
0.9136333,1736
0.9153,1825
0.9169667,1755
0.9186333,1591
0.9203,1645
0.9219667,1558
0.9236333,1688
0.9253,1633
0.9269667,1694
0.9286333,1509
0.9303,1725
0.9319667,1756
0.9336333,1502
0.9353,1795
0.9369667,1578
0.9386333,1612
0.9403,1538
0.9419667,1604
0.9436333,1652
0.9453,1640
0.9469666,1684
0.9486333,1523
0.9503,1659
0.9519666,1648
0.9536333,1844
0.9553,2244
0.9569666,2398
0.9586333,2404
0.9603,2530
0.9619667,2657
0.9636334,3364
0.9653,4712
0.9669667,4582
0.9686334,5369
0.9703,6530
0.9719667,6955
0.9736333,7993
0.9753,9316
0.9769667,10616
0.9786333,11396
0.9803,12012
0.9819667,12396
0.9836333,13004
0.9853,13396
0.9869667,15148
0.9886333,15784
0.9903,15776
0.9919667,16072
0.9936333,16460
0.9953,16524
0.9969667,15832
0.9986333,16804
1.0003,15932
1.001967,16940
1.003633,15348
1.0053,15536
1.006967,15612
1.008633,14356
1.0103,15400
1.011967,15828
1.013633,15156
1.0153,15348
1.016967,15352
1.018633,14508
1.0203,15424
1.021967,15252
1.023633,15364
1.0253,14048
1.026967,14204
1.028633,12916
1.0303,13856
1.031967,12576
1.033633,11788
1.0353,11308
1.036967,10148
1.038633,9852
1.0403,9072
1.041967,8025
1.043633,8220
1.0453,7372
1.046967,7170
1.048633,6468
1.0503,6319
1.051967,5981
1.053633,6497
1.0553,5514
1.056967,5914
1.058633,6446
1.0603,5840
1.061967,6621
1.063633,6340
1.0653,7111
1.066967,6977
1.068633,7328
1.0703,7354
1.071967,7627
1.073633,8448
1.0753,8372
1.076967,8044
1.078633,8252
1.0803,8240
1.081967,8284
1.083633,8332
1.0853,8232
1.086967,8135
1.088633,8332
1.0903,8156
1.091967,8368
1.093633,7835
1.0953,7881
1.096967,7779
1.098633,7698
1.1003,7616
1.101967,7949
1.103633,7238
1.1053,7490
1.106967,7190
1.108633,7392
1.1103,7490
1.111967,7364
1.113633,7298
1.1153,6643
1.116967,7084
1.118633,6011
1.1203,6584
1.121967,6446
1.123633,6009
1.1253,5639
1.126967,5229
1.128633,5148
1.1303,5400
1.131967,4636
1.133633,4270
1.1353,3921
1.136967,4194
1.138633,3587
1.1403,3670
1.141967,3552
1.143633,3287
1.1453,2884
1.146967,2678
1.148633,2978
1.1503,2456
1.151967,2424
1.153633,2310
1.1553,1899
1.156967,2402
1.158633,2132
1.1603,2012
1.161967,1833
1.163633,1775
1.1653,1960
1.166967,1764
1.168633,1663
1.1703,1681
1.171967,1431
1.173633,1640
1.1753,1591
1.176967,1439
1.178633,1606
1.1803,1594
1.181967,1562
1.183633,1473
1.1853,1433
1.186967,1518
1.188633,1430
1.1903,1459
1.191967,1443
1.193633,1427
1.1953,1817
1.196967,1786
1.198633,1732
