"SampleName","A2Rd2_02-27"
"Target Mass 1",
"Column Name","IA-3 (3um, 4.6X100)"
"Channel","QDa 1: SIR Ch2"
0.00195,508
0.003616667,663
0.005283333,710
0.00695,826
0.008616666,797
0.01028333,767
0.01195,819
0.01361667,872
0.01528333,864
0.01695,830
0.01861667,796
0.02028333,751
0.02195,706
0.02361667,864
0.02528333,860
0.02695,856
0.02861667,854
0.03028333,841
0.03195,827
0.03361667,813
0.03528333,800
0.03695,850
0.03861667,900
0.04028333,919
0.04195,938
0.04361667,946
0.04528333,953
0.04695,976
0.04861667,1000
0.05028334,993
0.05195,986
0.05361667,1049
0.05528333,815
0.05695,742
0.05861667,983
0.06028333,854
0.06195,1000
0.06361666,990
0.06528334,955
0.06695,972
0.06861667,861
0.07028333,854
0.07195,671
0.07361667,905
0.07528333,725
0.07695,969
0.07861666,1039
0.08028334,876
0.08195,1029
0.08361667,791
0.08528333,894
0.08695,946
0.08861667,889
0.09028333,825
0.09195,850
0.09361666,882
0.09528334,806
0.09695,895
0.09861667,921
0.1002833,947
0.10195,933
0.1036167,742
0.1052833,908
0.10695,943
0.1086167,896
0.1102833,848
0.11195,1076
0.1136167,1070
0.1152833,778
0.11695,866
0.1186167,895
0.1202833,926
0.12195,847
0.1236167,907
0.1252833,894
0.12695,772
0.1286167,814
0.1302833,942
0.13195,852
0.1336167,875
0.1352833,828
0.13695,780
0.1386167,808
0.1402833,852
0.14195,820
0.1436167,813
0.1452833,806
0.14695,742
0.1486167,678
0.1502833,689
0.15195,700
0.1536167,855
0.1552833,890
0.15695,878
0.1586167,662
0.1602833,727
0.16195,791
0.1636167,865
0.1652833,882
0.16695,768
0.1686167,814
0.1702833,917
0.17195,814
0.1736167,948
0.1752833,793
0.17695,883
0.1786167,977
0.1802833,990
0.18195,785
0.1836167,776
0.1852833,1019
0.18695,819
0.1886167,1023
0.1902833,804
0.19195,980
0.1936167,984
0.1952833,954
0.19695,935
0.1986167,909
0.2002833,796
0.20195,810
0.2036167,901
0.2052833,891
0.20695,812
0.2086167,734
0.2102833,889
0.21195,867
0.2136167,825
0.2152833,784
0.21695,956
0.2186167,1077
0.2202833,1221
0.22195,1171
0.2236167,1173
0.2252833,1199
0.22695,1105
0.2286167,1195
0.2302833,956
0.23195,1075
0.2336167,1260
0.2352833,1007
0.23695,1251
0.2386167,1074
0.2402833,1110
0.24195,1149
0.2436167,1208
0.2453,1237
0.24695,1089
0.2486167,1181
0.2502833,1042
0.25195,1304
0.2536167,1440
0.2552833,1250
0.25695,1088
0.2586167,975
0.2602833,1190
0.26195,1148
0.2636333,832
0.2652833,1196
0.26695,1226
0.2686167,1230
0.2702833,1160
0.27195,1132
0.2736167,1022
0.2752833,1132
0.27695,1153
0.2786167,1123
0.2803,1095
0.28195,1047
0.2836333,1026
0.2853,1054
0.2869667,1046
0.2886167,925
0.2902833,1120
0.29195,1042
0.2936333,1093
0.2952833,948
0.29695,1001
0.2986333,1077
0.3002833,1062
0.3019667,1046
0.3036333,1095
0.3052833,1088
0.30695,1220
0.3086167,1186
0.3103,1152
0.31195,1145
0.3136167,1203
0.3153,1234
0.3169667,1266
0.3186333,1282
0.3202833,1297
0.3219667,1226
0.3236333,1181
0.3253,1136
0.3269667,1187
0.3286333,1235
0.3303,1283
0.3319667,1071
0.3336333,1135
0.3353,1272
0.3369667,1014
0.3386167,1424
0.3403,1450
0.34195,1420
0.3436333,1406
0.3452833,1441
0.34695,1231
0.3486167,1290
0.3503,1197
0.3519667,1205
0.3536333,1292
0.3553,1244
0.3569667,1196
0.3586167,1162
0.3603,1127
0.36195,1552
0.3636333,1585
0.3653,2110
0.3669667,3963
0.3686333,3705
0.3703,3641
0.3719667,3818
0.3736333,3640
0.3753,3693
0.3769667,3747
0.3786333,3231
0.3803,3733
0.3819667,3050
0.3836333,2681
0.3853,2173
0.3869667,1920
0.3886333,1545
0.3903,1123
0.3919667,978
0.3936333,738
0.3953,734
0.3969667,654
0.3986333,417
0.4003,436
0.4019667,584
0.4036333,515
0.4053,644
0.4069667,602
0.4086333,667
0.4103,595
0.4119667,627
0.4136333,627
0.4153,700
0.4169667,674
0.4186333,677
0.4203,733
0.4219667,718
0.4236333,717
0.4253,716
0.4269667,637
0.4286333,961
0.4303,983
0.4319667,689
0.4336333,947
0.4353,919
0.4369667,1093
0.4386333,792
0.4403,985
0.4419667,1127
0.4436333,1212
0.4453,1144
0.4469667,1076
0.4486333,1141
0.4503,1446
0.4519667,1385
0.4536333,1238
0.4553,1302
0.4569667,1437
0.4586333,1429
0.4603,1422
0.4619667,1605
0.4636333,1745
0.4653,1835
0.4669667,1436
0.4686333,1754
0.4703,1714
0.4719667,1499
0.4736333,1461
0.4753,1672
0.4769667,1543
0.4786333,1224
0.4803,1442
0.4819667,1493
0.4836333,1345
0.4853,1333
0.4869667,1367
0.4886333,1401
0.4903,1254
0.4919667,1347
0.4936333,1062
0.4953,1276
0.4969667,1192
0.4986333,1152
0.5003,1183
0.5019667,1141
0.5036333,1265
0.5053,917
0.5069667,978
0.5086333,979
0.5103,996
0.5119666,1014
0.5136333,1004
0.5153,868
0.5169666,1016
0.5186333,992
0.5203,1086
0.5219667,1010
0.5236334,955
0.5253,802
0.5269667,1079
0.5286334,904
0.5303,1035
0.5319667,893
0.5336334,913
0.5353,923
0.5369667,932
0.5386333,903
0.5403,816
0.5419667,1024
0.5436333,944
0.5453,950
0.5469667,846
0.5486333,869
0.5503,823
0.5519667,1076
0.5536333,1079
0.5553,1052
0.5569667,1007
0.5586333,957
0.5603,1032
0.5619667,1108
0.5636333,836
0.5653,892
0.5669667,885
0.5686333,902
0.5703,840
0.5719666,923
0.5736333,1006
0.5753,988
0.5769666,988
0.5786333,987
0.5803,846
0.5819666,782
0.5836333,1058
0.5853,901
0.5869667,752
0.5886334,966
0.5903,1094
0.5919667,1105
0.5936334,996
0.5953,822
0.5969667,1127
0.5986333,866
0.6003,1068
0.6019667,1035
0.6036333,1161
0.6053,927
0.6069667,917
0.6086333,899
0.6103,899
0.6119667,898
0.6136333,921
0.6153,944
0.6169667,636
0.6186333,891
0.6203,963
0.6219667,1004
0.6236333,895
0.6253,896
0.6269667,863
0.6286333,831
0.6303,925
0.6319667,1018
0.6336333,985
0.6353,951
0.6369666,955
0.6386333,879
0.6403,939
0.6419666,999
0.6436333,1017
0.6453,979
0.6469667,858
0.6486334,805
0.6503,933
0.6519667,917
0.6536334,948
0.6553,958
0.6569667,812
0.6586334,985
0.6603,1026
0.6619667,936
0.6636333,833
0.6653,1054
0.6669667,906
0.6686333,745
0.6703,1060
0.6719667,928
0.6736333,1055
0.6753,951
0.6769667,831
0.6786333,998
0.6803,824
0.6819667,792
0.6836333,827
0.6853,922
0.6869667,681
0.6886333,793
0.6903,845
0.6919667,784
0.6936333,758
0.6953,732
0.6969666,816
0.6986333,857
0.7003,860
0.7019666,913
0.7036333,732
0.7053,740
0.7069666,667
0.7086333,698
0.7103,933
0.7119667,965
0.7136334,1030
0.7153,960
0.7169667,936
0.7186334,912
0.7203,871
0.7219667,830
0.7236333,878
0.7253,914
0.7269667,718
0.7286333,844
0.7303,881
0.7319667,689
0.7336333,885
0.7353,786
0.7369667,965
0.7386333,1001
0.7403,1049
0.7419667,679
0.7436333,867
0.7453,795
0.7469667,916
0.7486333,883
0.7503,925
0.7519667,926
0.7536333,779
0.7553,847
0.7569667,874
0.7586333,886
0.7603,780
0.7619666,895
0.7636333,896
0.7653,768
0.7669666,890
0.7686333,925
0.7703,724
0.7719667,1092
0.7736334,949
0.7753,877
0.7769667,766
0.7786334,741
0.7803,795
0.7819667,831
0.7836334,866
0.7853,725
0.7869667,792
0.7886333,859
0.7903,858
0.7919667,970
0.7936333,972
0.7953,890
0.7969667,747
0.7986333,989
0.8003,867
0.8019667,751
0.8036333,827
0.8053,826
0.8069667,825
0.8086333,764
0.8103,832
0.8119667,833
0.8136333,870
0.8153,908
0.8169667,1038
0.8186333,1058
0.8203,1065
0.8219666,895
0.8236333,897
0.8253,870
0.8269666,911
0.8286333,951
0.8303,667
0.8319666,868
0.8336333,969
0.8353,915
0.8369667,1029
0.8386334,821
0.8403,972
0.8419667,1001
0.8436334,789
0.8453,964
0.8469667,955
0.8486333,600
0.8503,956
0.8519667,926
0.8536333,719
0.8553,742
0.8569667,708
0.8586333,955
0.8603,959
0.8619667,949
0.8636333,855
0.8653,894
0.8669667,804
0.8686333,773
0.8703,742
0.8719667,752
0.8736333,762
0.8753,859
0.8769667,883
0.8786333,798
0.8803,1003
0.8819667,1030
0.8836333,1106
0.8853,1083
0.8869666,1060
0.8886333,1145
0.8903,1001
0.8919666,1066
0.8936333,1130
0.8953,1053
0.8969667,1316
0.8986334,1346
0.9003,1231
0.9019667,1342
0.9036334,1303
0.9053,1013
0.9069667,1261
0.9086334,1306
0.9103,1407
0.9119667,1348
0.9136333,959
0.9153,1293
0.9169667,1159
0.9186333,1299
0.9203,1312
0.9219667,1206
0.9236333,1100
0.9253,1230
0.9269667,1279
0.9286333,957
0.9303,1138
0.9319667,1260
0.9336333,1147
0.9353,1198
0.9369667,1310
0.9386333,1284
0.9403,1170
0.9419667,1074
0.9436333,1130
0.9453,993
0.9469666,1180
0.9486333,1170
0.9503,1098
0.9519666,1145
0.9536333,1091
0.9553,1142
0.9569666,1116
0.9586333,1042
0.9603,1039
0.9619667,899
0.9636334,919
0.9653,940
0.9669667,901
0.9686334,861
0.9703,949
0.9719667,916
0.9736333,892
0.9753,819
0.9769667,938
0.9786333,892
0.9803,666
0.9819667,783
0.9836333,913
0.9853,758
0.9869667,805
0.9886333,837
0.9903,750
0.9919667,721
0.9936333,692
0.9953,827
0.9969667,864
0.9986333,822
1.0003,750
1.001967,838
1.003633,931
1.0053,902
1.006967,873
1.008633,1054
1.0103,654
1.011967,823
1.013633,819
1.0153,839
1.016967,871
1.018633,902
1.0203,913
1.021967,1003
1.023633,912
1.0253,822
1.026967,912
1.028633,801
1.0303,958
1.031967,946
1.033633,926
1.0353,1120
1.036967,1073
1.038633,1030
1.0403,681
1.041967,886
1.043633,872
1.0453,1008
1.046967,820
1.048633,790
1.0503,788
1.051967,759
1.053633,745
1.0553,778
1.056967,819
1.058633,860
1.0603,813
1.061967,843
1.063633,853
1.0653,863
1.066967,832
1.068633,801
1.0703,857
1.071967,914
1.073633,1031
1.0753,982
1.076967,837
1.078633,972
1.0803,881
1.081967,745
1.083633,759
1.0853,764
1.086967,769
1.088633,775
1.0903,765
1.091967,755
1.093633,744
1.0953,734
1.096967,801
1.098633,761
1.1003,721
1.101967,806
1.103633,917
1.1053,913
1.106967,1078
1.108633,1029
1.1103,763
1.111967,998
1.113633,918
1.1153,916
1.116967,822
1.118633,690
1.1203,814
1.121967,937
1.123633,861
1.1253,894
1.126967,740
1.128633,802
1.1303,865
1.131967,907
1.133633,949
1.1353,789
1.136967,787
1.138633,961
1.1403,937
1.141967,722
1.143633,943
1.1453,974
1.146967,713
1.148633,972
1.1503,721
1.151967,854
1.153633,902
1.1553,671
1.156967,821
1.158633,769
1.1603,928
1.161967,887
1.163633,847
1.1653,820
1.166967,793
1.168633,958
1.1703,927
1.171967,914
1.173633,935
1.1753,919
1.176967,904
1.178633,886
1.1803,737
1.181967,895
1.183633,959
1.1853,765
1.186967,904
1.188633,902
1.1903,875
1.191967,864
1.193633,786
1.1953,827
1.196967,716
1.198633,738
