"SampleName","A2Rd2_02-62"
"Target Mass 1",
"Column Name","IA-3 (3um, 4.6X100)"
"Channel","QDa 1: SIR Ch2"
0.00195,515
0.003616667,705
0.005283333,741
0.00695,669
0.008616666,795
0.01028333,922
0.01195,885
0.01361667,848
0.01528333,1048
0.01695,1107
0.01861667,1091
0.02028333,933
0.02195,1043
0.02361667,1109
0.02528333,893
0.02695,1169
0.02861667,941
0.03028333,1034
0.03195,1157
0.03361667,1153
0.03528333,915
0.03695,1224
0.03861667,1145
0.04028333,1209
0.04195,1169
0.04361667,1140
0.04528333,1111
0.04695,1052
0.04861667,1087
0.05028334,1144
0.05195,1112
0.05361667,1116
0.05528333,1119
0.05695,1158
0.05861667,1107
0.06028333,1056
0.06195,1064
0.06361666,1057
0.06528334,1050
0.06695,1099
0.06861667,1079
0.07028333,1058
0.07195,1054
0.07361667,861
0.07528333,1047
0.07695,1087
0.07861666,1069
0.08028334,948
0.08195,947
0.08361667,882
0.08528333,803
0.08695,1133
0.08861667,1067
0.09028333,1020
0.09195,1084
0.09361666,953
0.09528334,1090
0.09695,1111
0.09861667,1104
0.1002833,976
0.10195,1031
0.1036167,1114
0.1052833,1045
0.10695,818
0.1086167,1165
0.1102833,1156
0.11195,954
0.1136167,914
0.1152833,1091
0.11695,1070
0.1186167,1151
0.1202833,915
0.12195,1149
0.1236167,1002
0.1252833,997
0.12695,831
0.1286167,868
0.1302833,1018
0.13195,1055
0.1336167,940
0.1352833,1083
0.13695,913
0.1386167,994
0.1402833,1052
0.14195,1110
0.1436167,923
0.1452833,999
0.14695,760
0.1486167,906
0.1502833,822
0.15195,893
0.1536167,1024
0.1552833,1133
0.15695,1061
0.1586167,989
0.1602833,754
0.16195,978
0.1636167,1128
0.1652833,1097
0.16695,992
0.1686167,958
0.1702833,1038
0.17195,971
0.1736167,1062
0.1752833,804
0.17695,863
0.1786167,910
0.1802833,957
0.18195,912
0.1836167,867
0.1852833,972
0.18695,967
0.1886167,999
0.1902833,975
0.19195,952
0.1936167,888
0.1952833,947
0.19695,1006
0.1986167,1034
0.2002833,1038
0.20195,1024
0.2036167,1126
0.2052833,860
0.20695,1105
0.2086167,968
0.2102833,1076
0.21195,1083
0.2136167,1082
0.2152833,1081
0.21695,1129
0.2186167,1135
0.2202833,1135
0.22195,1136
0.2236167,1194
0.2252833,1229
0.22695,1210
0.2286167,1214
0.2302833,1219
0.23195,1213
0.2336167,1206
0.2352833,1229
0.23695,1213
0.2386167,1196
0.2402833,1413
0.24195,1492
0.2436167,1463
0.2453,1424
0.24695,1330
0.2486167,1201
0.2502833,1383
0.25195,1194
0.2536167,1141
0.2552833,1354
0.25695,1244
0.2586167,1340
0.2602833,1198
0.26195,1035
0.2636333,1131
0.2652833,1222
0.26695,1282
0.2686167,1059
0.2702833,1249
0.27195,1275
0.2736167,1280
0.2752833,951
0.27695,1133
0.2786167,1054
0.2803,1079
0.2819667,1027
0.2836167,1077
0.2852833,1162
0.28695,1155
0.2886167,1148
0.2902833,920
0.29195,981
0.2936167,977
0.2952833,973
0.29695,1208
0.2986333,1199
0.3002833,1066
0.30195,1151
0.3036167,1023
0.3052833,1170
0.30695,1261
0.3086167,1285
0.3102833,1184
0.31195,1226
0.3136167,1268
0.3153,1282
0.31695,1505
0.3186167,1516
0.3202833,1408
0.32195,1386
0.3236167,1631
0.3252833,1659
0.32695,1537
0.3286167,1431
0.3302833,1486
0.3319667,1466
0.3336333,1336
0.3352833,1462
0.3369667,1227
0.3386167,1390
0.3402833,1440
0.34195,1195
0.3436167,1527
0.3452833,1469
0.34695,1343
0.3486167,1338
0.3503,1334
0.35195,1348
0.3536333,1362
0.3552833,1374
0.35695,1367
0.3586167,1361
0.3602833,1502
0.36195,1159
0.3636167,1328
0.3652833,2173
0.36695,3200
0.3686333,3327
0.3703,3256
0.37195,3654
0.3736167,3487
0.3752833,3320
0.37695,3364
0.3786167,3292
0.3802833,3220
0.3819667,2781
0.3836333,2892
0.3853,2179
0.38695,1935
0.3886333,1531
0.3902833,1495
0.3919667,931
0.3936167,757
0.3953,651
0.3969667,665
0.3986333,579
0.4003,496
0.4019667,591
0.4036333,448
0.4053,495
0.4069667,487
0.4086333,537
0.4103,600
0.4119667,579
0.4136333,558
0.4153,617
0.4169667,676
0.4186333,730
0.4203,677
0.4219667,825
0.4236333,798
0.4253,859
0.4269667,864
0.4286333,710
0.4303,900
0.4319667,907
0.4336333,832
0.4353,594
0.4369667,868
0.4386333,884
0.4403,810
0.4419667,852
0.4436333,1128
0.4453,1157
0.4469667,1079
0.4486333,1129
0.4503,1062
0.4519667,1298
0.4536333,1323
0.4553,1157
0.4569667,1083
0.4586333,1028
0.4603,1206
0.4619667,1384
0.4636333,1411
0.4653,1467
0.4669667,1249
0.4686333,1314
0.4703,1518
0.4719667,1275
0.4736333,1119
0.4753,1129
0.4769667,1161
0.4786333,1206
0.4803,1190
0.4819667,1194
0.4836333,1183
0.4853,1172
0.4869667,1169
0.4886333,1167
0.4903,1119
0.4919667,1156
0.4936333,1193
0.4953,1115
0.4969667,1213
0.4986333,1112
0.5003,1119
0.5019667,1273
0.5036333,866
0.5053,893
0.5069667,1039
0.5086333,952
0.5103,1166
0.5119666,720
0.5136333,1084
0.5153,1010
0.5169666,867
0.5186333,977
0.5203,1183
0.5219667,1288
0.5236334,802
0.5253,966
0.5269667,1049
0.5286334,919
0.5303,1214
0.5319667,1198
0.5336334,934
0.5353,862
0.5369667,1090
0.5386333,1095
0.5403,1146
0.5419667,1100
0.5436333,916
0.5453,908
0.5469667,1037
0.5486333,849
0.5503,836
0.5519667,913
0.5536333,972
0.5553,1052
0.5569667,983
0.5586333,1037
0.5603,1128
0.5619667,774
0.5636333,1031
0.5653,807
0.5669667,981
0.5686333,954
0.5703,939
0.5719666,859
0.5736333,978
0.5753,962
0.5769666,945
0.5786333,943
0.5803,987
0.5819666,1031
0.5836333,1005
0.5853,980
0.5869667,1014
0.5886334,1042
0.5903,1011
0.5919667,980
0.5936334,964
0.5953,832
0.5969667,985
0.5986333,865
0.6003,896
0.6019667,926
0.6036333,958
0.6053,1063
0.6069667,1076
0.6086333,974
0.6103,1117
0.6119667,894
0.6136333,985
0.6153,1108
0.6169667,944
0.6186333,783
0.6203,1198
0.6219667,1124
0.6236333,880
0.6253,1036
0.6269667,979
0.6286333,989
0.6303,913
0.6319667,941
0.6336333,1096
0.6353,730
0.6369666,916
0.6386333,886
0.6403,643
0.6419666,949
0.6436333,851
0.6453,875
0.6469667,900
0.6486334,1033
0.6503,1100
0.6519667,974
0.6536334,907
0.6553,886
0.6569667,871
0.6586334,856
0.6603,1071
0.6619667,1113
0.6636333,938
0.6653,736
0.6669667,834
0.6686333,995
0.6703,821
0.6719667,932
0.6736333,887
0.6753,972
0.6769667,975
0.6786333,853
0.6803,707
0.6819667,856
0.6836333,1077
0.6853,976
0.6869667,1077
0.6886333,847
0.6903,787
0.6919667,804
0.6936333,817
0.6953,724
0.6969666,826
0.6986333,804
0.7003,783
0.7019666,834
0.7036333,814
0.7053,794
0.7069666,885
0.7086333,781
0.7103,678
0.7119667,860
0.7136334,974
0.7153,884
0.7169667,786
0.7186334,937
0.7203,930
0.7219667,972
0.7236333,925
0.7253,926
0.7269667,783
0.7286333,931
0.7303,919
0.7319667,905
0.7336333,892
0.7353,920
0.7369667,949
0.7386333,954
0.7403,960
0.7419667,969
0.7436333,979
0.7453,942
0.7469667,905
0.7486333,862
0.7503,819
0.7519667,907
0.7536333,936
0.7553,831
0.7569667,775
0.7586333,776
0.7603,777
0.7619666,778
0.7636333,754
0.7653,713
0.7669666,847
0.7686333,1120
0.7703,1235
0.7719667,710
0.7736334,957
0.7753,709
0.7769667,778
0.7786334,663
0.7803,829
0.7819667,987
0.7836334,1051
0.7853,943
0.7869667,965
0.7886333,849
0.7903,755
0.7919667,985
0.7936333,951
0.7953,804
0.7969667,827
0.7986333,856
0.8003,984
0.8019667,964
0.8036333,913
0.8053,974
0.8069667,967
0.8086333,959
0.8103,954
0.8119667,805
0.8136333,853
0.8153,940
0.8169667,956
0.8186333,987
0.8203,992
0.8219666,997
0.8236333,844
0.8253,892
0.8269666,875
0.8286333,895
0.8303,955
0.8319666,950
0.8336333,946
0.8353,927
0.8369667,909
0.8386334,907
0.8403,904
0.8419667,886
0.8436334,857
0.8453,901
0.8469667,945
0.8486333,903
0.8503,862
0.8519667,822
0.8536333,973
0.8553,932
0.8569667,1036
0.8586333,1049
0.8603,924
0.8619667,688
0.8636333,782
0.8653,807
0.8669667,833
0.8686333,824
0.8703,816
0.8719667,736
0.8736333,745
0.8753,754
0.8769667,808
0.8786333,1143
0.8803,1555
0.8819667,1314
0.8836333,1389
0.8853,1345
0.8869666,1358
0.8886333,1371
0.8903,1250
0.8919666,1129
0.8936333,1748
0.8953,1698
0.8969667,1619
0.8986334,1368
0.9003,1530
0.9019667,1342
0.9036334,1481
0.9053,1325
0.9069667,1490
0.9086334,1541
0.9103,1405
0.9119667,1418
0.9136333,1610
0.9153,1320
0.9169667,1399
0.9186333,1445
0.9203,1209
0.9219667,1412
0.9236333,1444
0.9253,1428
0.9269667,1418
0.9286333,1549
0.9303,1613
0.9319667,1300
0.9336333,1284
0.9353,1352
0.9369667,1407
0.9386333,1370
0.9403,1333
0.9419667,1352
0.9436333,1397
0.9453,1306
0.9469666,1260
0.9486333,1215
0.9503,1227
0.9519666,1243
0.9536333,1307
0.9553,1095
0.9569666,1306
0.9586333,1390
0.9603,1213
0.9619667,1032
0.9636334,1051
0.9653,1172
0.9669667,1033
0.9686334,1058
0.9703,1059
0.9719667,998
0.9736333,1098
0.9753,973
0.9769667,1137
0.9786333,896
0.9803,837
0.9819667,1002
0.9836333,967
0.9853,808
0.9869667,846
0.9886333,883
0.9903,901
0.9919667,860
0.9936333,727
0.9953,883
0.9969667,868
0.9986333,899
1.0003,909
1.001967,919
1.003633,882
1.0053,744
1.006967,1051
1.008633,987
1.0103,897
1.011967,846
1.013633,882
1.0153,902
1.016967,1001
1.018633,1007
1.0203,873
1.021967,777
1.023633,915
1.0253,945
1.026967,1008
1.028633,1021
1.0303,972
1.031967,929
1.033633,849
1.0353,847
1.036967,769
1.038633,1002
1.0403,972
1.041967,936
1.043633,990
1.0453,999
1.046967,900
1.048633,953
1.0503,1011
1.051967,923
1.053633,945
1.0553,1061
1.056967,1033
1.058633,1005
1.0603,973
1.061967,928
1.063633,1015
1.0653,996
1.066967,816
1.068633,942
1.0703,896
1.071967,906
1.073633,925
1.0753,931
1.076967,936
1.078633,924
1.0803,852
1.081967,920
1.083633,913
1.0853,919
1.086967,929
1.088633,940
1.0903,819
1.091967,916
1.093633,1023
1.0953,1018
1.096967,826
1.098633,895
1.1003,899
1.101967,903
1.103633,831
1.1053,858
1.106967,856
1.108633,995
1.1103,1048
1.111967,820
1.113633,906
1.1153,761
1.116967,972
1.118633,869
1.1203,1051
1.121967,854
1.123633,776
1.1253,956
1.126967,822
1.128633,687
1.1303,827
1.131967,923
1.133633,997
1.1353,870
1.136967,819
1.138633,795
1.1403,876
1.141967,1007
1.143633,999
1.1453,991
1.146967,870
1.148633,959
1.1503,801
1.151967,794
1.153633,836
1.1553,821
1.156967,807
1.158633,984
1.1603,957
1.161967,854
1.163633,1053
1.1653,766
1.166967,892
1.168633,909
1.1703,819
1.171967,857
1.173633,698
1.1753,941
1.176967,1049
1.178633,904
1.1803,949
1.181967,796
1.183633,986
1.1853,912
1.186967,694
1.188633,740
1.1903,787
1.191967,847
1.193633,855
1.1953,862
1.196967,880
1.198633,859
