"SampleName","A2Rd2_02-8"
"Target Mass 1",
"Column Name","IA-3 (3um, 4.6X100)"
"Channel","QDa 1: SIR Ch2"
0.00195,528
0.003616667,695
0.005283333,692
0.00695,810
0.008616666,909
0.01028333,997
0.01195,1072
0.01361667,794
0.01528333,963
0.01695,895
0.01861667,1001
0.02028333,931
0.02195,881
0.02361667,1029
0.02528333,1108
0.02695,1042
0.02861667,1038
0.03028333,1033
0.03195,1071
0.03361667,932
0.03528333,1063
0.03695,822
0.03861667,710
0.04028333,1208
0.04195,1251
0.04361667,1284
0.04528333,1006
0.04695,1007
0.04861667,955
0.05028334,1012
0.05195,1024
0.05361667,989
0.05528333,1041
0.05695,877
0.05861667,1081
0.06028333,1003
0.06195,980
0.06361666,881
0.06528334,1053
0.06695,887
0.06861667,1017
0.07028333,794
0.07195,1029
0.07361667,810
0.07528333,965
0.07695,958
0.07861666,986
0.08028334,1016
0.08195,740
0.08361667,795
0.08528333,930
0.08695,937
0.08861667,974
0.09028333,887
0.09195,841
0.09361666,1042
0.09528334,1088
0.09695,951
0.09861667,782
0.1002833,913
0.10195,885
0.1036167,750
0.1052833,979
0.10695,865
0.1086167,963
0.1102833,918
0.11195,934
0.1136167,804
0.1152833,798
0.11695,827
0.1186167,795
0.1202833,931
0.12195,907
0.1236167,737
0.1252833,809
0.12695,916
0.1286167,855
0.1302833,793
0.13195,899
0.1336167,763
0.1352833,955
0.13695,908
0.1386167,833
0.1402833,964
0.14195,875
0.1436167,960
0.1452833,876
0.14695,863
0.1486167,808
0.1502833,824
0.15195,819
0.1536167,750
0.1552833,681
0.15695,873
0.1586167,788
0.1602833,875
0.16195,934
0.1636167,885
0.1652833,910
0.16695,893
0.1686167,893
0.1702833,790
0.17195,786
0.1736167,821
0.1752833,856
0.17695,851
0.1786167,829
0.1802833,806
0.18195,832
0.1836167,869
0.1852833,873
0.18695,878
0.1886167,830
0.1902833,878
0.19195,925
0.1936167,846
0.1952833,766
0.19695,984
0.1986167,768
0.2002833,820
0.20195,871
0.2036167,876
0.2052833,881
0.20695,882
0.2086167,944
0.2102833,1006
0.21195,1017
0.2136167,769
0.2152833,999
0.21695,1118
0.2186167,964
0.2202833,1092
0.22195,1190
0.2236167,1127
0.2252833,783
0.22695,1015
0.2286167,1142
0.2302833,1077
0.23195,1045
0.2336167,1118
0.2352833,1114
0.23695,1111
0.2386167,1260
0.2402833,1283
0.24195,1266
0.2436167,989
0.2453,1143
0.24695,1067
0.2486167,1124
0.2502833,1147
0.25195,1150
0.2536167,1370
0.2552833,1354
0.25695,1492
0.2586167,1116
0.2602833,1299
0.26195,1488
0.2636167,971
0.2652833,1165
0.26695,943
0.2686167,1258
0.2702833,1197
0.27195,1059
0.2736167,1092
0.2752833,1049
0.27695,1124
0.2786167,967
0.2803,1200
0.28195,1125
0.2836167,1084
0.2852833,1012
0.2869667,858
0.2886167,1096
0.2902833,1211
0.29195,1058
0.2936167,1152
0.2952833,1021
0.29695,1126
0.2986333,995
0.3002833,1189
0.30195,936
0.3036167,991
0.3052833,1176
0.30695,862
0.3086167,1224
0.3102833,1137
0.31195,1385
0.3136167,1310
0.3153,1286
0.31695,1216
0.3186167,1315
0.3203,1338
0.32195,1360
0.3236167,1152
0.3253,1450
0.32695,1523
0.3286333,1018
0.3302833,1096
0.33195,1199
0.3336333,1336
0.3352833,1221
0.3369667,1220
0.3386167,1311
0.3402833,1267
0.34195,1223
0.3436167,1105
0.3453,1366
0.34695,1358
0.3486167,1459
0.3503,1204
0.35195,1267
0.3536333,1238
0.3552833,1297
0.35695,1284
0.3586167,1368
0.3602833,1336
0.3619667,1581
0.3636167,1591
0.3652833,2700
0.3669667,3821
0.3686333,3776
0.3703,4124
0.3719667,4082
0.3736167,4121
0.3753,4087
0.37695,3890
0.3786333,3785
0.3802833,3412
0.3819667,3121
0.3836167,2355
0.3853,1701
0.3869667,1380
0.3886333,1547
0.3902833,1070
0.3919667,917
0.3936167,777
0.3953,578
0.39695,627
0.3986333,491
0.4002833,391
0.4019667,590
0.4036333,605
0.4053,382
0.4069667,651
0.4086333,580
0.4103,607
0.4119667,721
0.4136167,700
0.4153,587
0.41695,662
0.4186333,658
0.4203,587
0.4219667,673
0.4236333,631
0.4253,589
0.4269667,673
0.4286333,939
0.4303,872
0.4319667,882
0.4336333,786
0.4353,847
0.4369667,838
0.4386333,882
0.4403,957
0.4419667,925
0.4436333,916
0.4453,1015
0.4469667,944
0.4486333,873
0.4503,1054
0.4519667,1366
0.4536333,1304
0.4553,1285
0.4569667,1324
0.4586333,1315
0.4603,1307
0.4619667,1272
0.4636333,1099
0.4653,1081
0.4669667,1627
0.4686333,1665
0.4703,1233
0.4719667,1485
0.4736333,1372
0.4753,1280
0.4769667,1436
0.4786333,1156
0.4803,1444
0.4819667,1316
0.4836333,1190
0.4853,1078
0.4869667,1059
0.4886333,1124
0.4903,1015
0.4919667,924
0.4936333,834
0.4953,833
0.4969667,832
0.4986333,867
0.5003,902
0.5019667,1005
0.5036333,925
0.5053,845
0.5069667,913
0.5086333,886
0.5103,959
0.5119666,1033
0.5136333,961
0.5153,888
0.5169666,960
0.5186333,1045
0.5203,999
0.5219667,953
0.5236334,907
0.5253,878
0.5269667,1195
0.5286334,1122
0.5303,1015
0.5319667,894
0.5336334,1063
0.5353,935
0.5369667,896
0.5386333,1078
0.5403,915
0.5419667,932
0.5436333,879
0.5453,827
0.5469667,877
0.5486333,927
0.5503,908
0.5519667,985
0.5536333,904
0.5553,823
0.5569667,938
0.5586333,1014
0.5603,1083
0.5619667,866
0.5636333,1182
0.5653,858
0.5669667,890
0.5686333,1087
0.5703,946
0.5719666,800
0.5736333,945
0.5753,912
0.5769666,1048
0.5786333,1035
0.5803,862
0.5819666,1017
0.5836333,908
0.5853,1078
0.5869667,989
0.5886334,900
0.5903,917
0.5919667,951
0.5936334,939
0.5953,926
0.5969667,891
0.5986333,898
0.6003,1144
0.6019667,1082
0.6036333,888
0.6053,875
0.6069667,1160
0.6086333,786
0.6103,1026
0.6119667,944
0.6136333,980
0.6153,930
0.6169667,999
0.6186333,969
0.6203,940
0.6219667,957
0.6236333,923
0.6253,888
0.6269667,955
0.6286333,937
0.6303,923
0.6319667,869
0.6336333,816
0.6353,1024
0.6369666,1091
0.6386333,1082
0.6403,983
0.6419666,1110
0.6436333,1010
0.6453,1014
0.6469667,994
0.6486334,995
0.6503,1017
0.6519667,1040
0.6536334,1001
0.6553,962
0.6569667,930
0.6586334,953
0.6603,977
0.6619667,855
0.6636333,891
0.6653,928
0.6669667,893
0.6686333,1033
0.6703,1159
0.6719667,1328
0.6736333,1355
0.6753,1531
0.6769667,1670
0.6786333,2388
0.6803,2891
0.6819667,3178
0.6836333,3871
0.6853,5056
0.6869667,6175
0.6886333,7571
0.6903,8856
0.6919667,10032
0.6936333,11936
0.6953,12472
0.6969666,14568
0.6986333,15148
0.7003,15868
0.7019666,18104
0.7036333,17900
0.7053,18368
0.7069666,18464
0.7086333,18560
0.7103,18488
0.7119667,18264
0.7136334,18736
0.7153,18648
0.7169667,18556
0.7186334,18540
0.7203,16872
0.7219667,17032
0.7236333,16200
0.7253,15264
0.7269667,12792
0.7286333,12996
0.7303,10776
0.7319667,11048
0.7336333,8808
0.7353,7817
0.7369667,6530
0.7386333,5818
0.7403,4864
0.7419667,4561
0.7436333,3695
0.7453,3356
0.7469667,3195
0.7486333,2655
0.7503,2462
0.7519667,2172
0.7536333,2067
0.7553,1956
0.7569667,1942
0.7586333,1674
0.7603,1716
0.7619666,1514
0.7636333,1384
0.7653,1601
0.7669666,1497
0.7686333,1386
0.7703,1564
0.7719667,1485
0.7736334,1353
0.7753,1631
0.7769667,2112
0.7786334,2242
0.7803,2982
0.7819667,3364
0.7836334,4128
0.7853,5208
0.7869667,6873
0.7886333,7622
0.7903,9904
0.7919667,11376
0.7936333,13980
0.7953,16092
0.7969667,19480
0.7986333,21656
0.8003,22364
0.8019667,24392
0.8036333,25712
0.8053,25744
0.8069667,27680
0.8086333,28220
0.8103,27936
0.8119667,28296
0.8136333,27780
0.8153,28476
0.8169667,28264
0.8186333,28600
0.8203,27892
0.8219666,28576
0.8236333,28156
0.8253,27740
0.8269666,27276
0.8286333,26520
0.8303,24168
0.8319666,23948
0.8336333,21180
0.8353,19296
0.8369667,17596
0.8386334,17216
0.8403,15404
0.8419667,12680
0.8436334,11468
0.8453,10600
0.8469667,8344
0.8486333,8280
0.8503,6967
0.8519667,5990
0.8536333,5850
0.8553,4589
0.8569667,4575
0.8586333,3834
0.8603,3426
0.8619667,3194
0.8636333,2602
0.8653,2892
0.8669667,2348
0.8686333,2385
0.8703,2323
0.8719667,2113
0.8736333,1847
0.8753,1756
0.8769667,1791
0.8786333,1750
0.8803,1891
0.8819667,2024
0.8836333,2346
0.8853,2384
0.8869666,2221
0.8886333,2196
0.8903,2512
0.8919666,2445
0.8936333,2246
0.8953,2183
0.8969667,1917
0.8986334,1848
0.9003,2343
0.9019667,1592
0.9036334,1999
0.9053,1898
0.9069667,1713
0.9086334,1758
0.9103,2143
0.9119667,2036
0.9136333,2038
0.9153,1781
0.9169667,2034
0.9186333,1944
0.9203,2078
0.9219667,2066
0.9236333,1629
0.9253,1648
0.9269667,1617
0.9286333,1592
0.9303,1567
0.9319667,1587
0.9336333,1617
0.9353,1505
0.9369667,1492
0.9386333,1507
0.9403,1505
0.9419667,1503
0.9436333,1720
0.9453,1738
0.9469666,1664
0.9486333,1755
0.9503,1845
0.9519666,1877
0.9536333,1910
0.9553,2166
0.9569666,2456
0.9586333,2839
0.9603,3318
0.9619667,3714
0.9636334,4289
0.9653,4906
0.9669667,5447
0.9686334,7510
0.9703,9004
0.9719667,9672
0.9736333,11536
0.9753,13328
0.9769667,14988
0.9786333,17812
0.9803,18604
0.9819667,19716
0.9836333,22848
0.9853,23084
0.9869667,26220
0.9886333,27876
0.9903,27604
0.9919667,28328
0.9936333,29792
0.9953,31520
0.9969667,30568
0.9986333,31332
1.0003,32320
1.001967,32452
1.003633,32944
1.0053,32224
1.006967,34256
1.008633,34240
1.0103,33072
1.011967,33680
1.013633,33792
1.0153,33792
1.016967,34624
1.018633,34704
1.0203,32172
1.021967,32912
1.023633,29084
1.0253,28904
1.026967,27820
1.028633,25160
1.0303,24756
1.031967,22624
1.033633,20920
1.0353,17812
1.036967,18040
1.038633,15468
1.0403,13956
1.041967,13580
1.043633,12404
1.0453,10900
1.046967,9516
1.048633,9856
1.0503,9568
1.051967,8504
1.053633,9056
1.0553,8404
1.056967,9108
1.058633,8432
1.0603,9004
1.061967,9308
1.063633,9348
1.0653,9712
1.066967,9744
1.068633,10464
1.0703,11020
1.071967,12048
1.073633,12780
1.0753,12784
1.076967,12440
1.078633,13004
1.0803,13852
1.081967,13520
1.083633,13892
1.0853,14272
1.086967,14036
1.088633,14168
1.0903,14296
1.091967,14120
1.093633,14620
1.0953,15200
1.096967,15408
1.098633,14392
1.1003,15340
1.101967,15956
1.103633,14816
1.1053,14768
1.106967,13972
1.108633,13796
1.1103,14104
1.111967,13424
1.113633,13512
1.1153,13128
1.116967,12356
1.118633,11868
1.1203,11148
1.121967,10624
1.123633,9912
1.1253,8404
1.126967,8824
1.128633,8348
1.1303,7698
1.131967,7316
1.133633,7085
1.1353,5671
1.136967,6105
1.138633,5500
1.1403,5348
1.141967,4968
1.143633,4480
1.1453,4171
1.146967,3790
1.148633,3750
1.1503,3212
1.151967,2785
1.153633,2979
1.1553,2505
1.156967,2928
1.158633,2346
1.1603,2403
1.161967,2382
1.163633,2285
1.1653,2365
1.166967,1978
1.168633,2360
1.1703,1909
1.171967,1966
1.173633,1796
1.1753,2114
1.176967,2126
1.178633,1693
1.1803,1846
1.181967,1730
1.183633,1681
1.1853,1649
1.186967,1606
1.188633,1619
1.1903,1582
1.191967,1546
1.193633,1707
1.1953,1740
1.196967,2031
1.198633,2063
