"SampleName","A2Rd2_02-46"
"Target Mass 1",
"Column Name","IA-3 (3um, 4.6X100)"
"Channel","QDa 1: SIR Ch1"
0.00195,392
0.003616667,652
0.005283333,603
0.00695,499
0.008616666,462
0.01028333,510
0.01195,635
0.01361667,615
0.01528333,716
0.01695,657
0.01861667,574
0.02028333,475
0.02195,550
0.02361667,552
0.02528333,554
0.02695,458
0.02861667,559
0.03028333,521
0.03195,483
0.03361667,471
0.03528333,485
0.03695,499
0.03861667,467
0.04028333,436
0.04195,511
0.04361667,560
0.04528333,560
0.04695,558
0.04861667,504
0.05028334,450
0.05195,535
0.05361667,525
0.05528333,516
0.05695,501
0.05861667,487
0.06028333,614
0.06195,587
0.06361666,559
0.06528334,523
0.06695,560
0.06861667,603
0.07028333,588
0.07195,442
0.07361667,459
0.07528333,546
0.07695,582
0.07861666,571
0.08028334,616
0.08195,486
0.08361667,569
0.08528333,402
0.08695,386
0.08861667,604
0.09028333,396
0.09195,486
0.09361666,609
0.09528334,587
0.09695,395
0.09861667,694
0.1002833,423
0.10195,562
0.1036167,502
0.1052833,525
0.10695,549
0.1086167,514
0.1102833,443
0.11195,481
0.1136167,462
0.1152833,514
0.11695,626
0.1186167,614
0.1202833,556
0.12195,567
0.1236167,496
0.1252833,506
0.12695,572
0.1286167,499
0.1302833,527
0.13195,483
0.1336167,431
0.1352833,391
0.13695,507
0.1386167,408
0.1402833,591
0.14195,590
0.1436167,464
0.1452833,655
0.14695,431
0.1486167,421
0.1502833,440
0.15195,488
0.1536167,535
0.1552833,575
0.15695,578
0.1586167,608
0.1602833,469
0.16195,403
0.1636167,464
0.1652833,442
0.16695,420
0.1686167,409
0.1702833,442
0.17195,476
0.1736167,556
0.1752833,559
0.17695,506
0.1786167,640
0.1802833,387
0.18195,573
0.1836167,578
0.1852833,557
0.18695,490
0.1886167,629
0.1902833,575
0.19195,576
0.1936167,505
0.1952833,529
0.19695,503
0.1986167,539
0.2002833,555
0.20195,529
0.2036167,518
0.2052833,472
0.20695,444
0.2086167,445
0.2102833,446
0.21195,478
0.2136167,510
0.2152833,549
0.21695,523
0.2186167,534
0.2202833,431
0.22195,534
0.2236167,532
0.2252833,527
0.22695,498
0.2286167,641
0.2302833,344
0.23195,612
0.2336167,508
0.2352833,538
0.23695,470
0.2386167,482
0.2402833,512
0.24195,527
0.2436167,640
0.2452833,643
0.24695,415
0.2486167,437
0.2502833,497
0.25195,533
0.2536167,569
0.2552833,458
0.25695,513
0.2586167,461
0.2602833,573
0.26195,379
0.2636333,553
0.2652833,689
0.26695,654
0.2686167,473
0.2702833,597
0.27195,551
0.2736167,564
0.2752833,533
0.27695,471
0.2786167,486
0.2803,519
0.28195,495
0.2836333,470
0.2852833,598
0.28695,621
0.2886167,567
0.2902833,486
0.29195,448
0.2936167,499
0.2952833,550
0.29695,540
0.2986333,530
0.3002833,568
0.30195,578
0.3036167,543
0.3052833,507
0.30695,538
0.3086167,568
0.3102833,557
0.31195,490
0.3136167,584
0.3153,627
0.31695,555
0.3186333,641
0.3202833,643
0.32195,620
0.3236167,564
0.3252833,530
0.3269667,537
0.3286167,489
0.3303,480
0.33195,559
0.3336333,544
0.3353,519
0.33695,513
0.3386167,507
0.3402833,452
0.34195,486
0.3436333,457
0.3452833,556
0.3469667,516
0.3486167,475
0.3503,495
0.3519667,510
0.3536167,455
0.3552833,627
0.35695,662
0.3586167,522
0.3603,634
0.3619667,623
0.3636333,613
0.3653,1423
0.3669667,1720
0.3686333,2501
0.3703,3547
0.3719667,3667
0.3736333,4137
0.3752833,3114
0.3769667,3822
0.3786167,4427
0.3803,4594
0.3819667,4915
0.3836333,4660
0.3853,4166
0.3869667,3968
0.3886333,3320
0.3903,2937
0.3919667,2413
0.3936333,1950
0.3953,1803
0.3969667,1552
0.3986333,1510
0.4003,1275
0.4019667,1356
0.4036333,1160
0.4053,956
0.4069667,1192
0.4086333,1262
0.4103,1332
0.4119667,1415
0.4136333,1479
0.4153,1171
0.4169667,1265
0.4186333,1427
0.4203,1418
0.4219667,1414
0.4236333,1479
0.4253,1348
0.4269667,1326
0.4286333,1447
0.4303,1493
0.4319667,1533
0.4336333,1882
0.4353,2929
0.4369667,4212
0.4386333,6422
0.4403,10300
0.4419667,16908
0.4436333,25716
0.4453,36512
0.4469667,48608
0.4486333,65216
0.4503,79328
0.4519667,96000
0.4536333,108560
0.4553,118992
0.4569667,132416
0.4586333,139712
0.4603,147712
0.4619667,149376
0.4636333,152000
0.4653,156544
0.4669667,159040
0.4686333,167616
0.4703,171392
0.4719667,179520
0.4736333,189824
0.4753,196416
0.4769667,199104
0.4786333,197120
0.4803,191872
0.4819667,183488
0.4836333,170176
0.4853,154112
0.4869667,135936
0.4886333,121968
0.4903,100464
0.4919667,86800
0.4936333,69920
0.4953,60176
0.4969667,46112
0.4986333,36592
0.5003,30160
0.5019667,23984
0.5036333,19408
0.5053,15660
0.5069667,13692
0.5086333,10988
0.5103,9132
0.5119666,7867
0.5136333,6642
0.5153,5427
0.5169666,4926
0.5186333,4836
0.5203,4256
0.5219667,3880
0.5236334,3641
0.5253,3358
0.5269667,3485
0.5286334,2813
0.5303,3099
0.5319667,3310
0.5336334,2689
0.5353,2779
0.5369667,2520
0.5386333,2552
0.5403,2477
0.5419667,2423
0.5436333,2454
0.5453,2237
0.5469667,1766
0.5486333,2035
0.5503,2031
0.5519667,1828
0.5536333,1944
0.5553,1834
0.5569667,1783
0.5586333,1680
0.5603,1965
0.5619667,1386
0.5636333,1344
0.5653,1474
0.5669667,1512
0.5686333,1505
0.5703,1483
0.5719666,1461
0.5736333,1300
0.5753,1534
0.5769666,1388
0.5786333,1497
0.5803,1319
0.5819666,1554
0.5836333,1383
0.5853,1530
0.5869667,1199
0.5886334,1235
0.5903,1357
0.5919667,1368
0.5936334,1472
0.5953,1541
0.5969667,1561
0.5986333,1399
0.6003,1587
0.6019667,1496
0.6036333,1446
0.6053,1380
0.6069667,1550
0.6086333,1456
0.6103,1422
0.6119667,1230
0.6136333,1153
0.6153,1486
0.6169667,1566
0.6186333,1333
0.6203,1339
0.6219667,1387
0.6236333,1351
0.6253,1311
0.6269667,1380
0.6286333,1412
0.6303,1072
0.6319667,1222
0.6336333,1317
0.6353,955
0.6369666,957
0.6386333,1189
0.6403,1149
0.6419666,983
0.6436333,921
0.6453,1083
0.6469667,866
0.6486334,942
0.6503,988
0.6519667,808
0.6536334,940
0.6553,924
0.6569667,908
0.6586334,991
0.6603,1026
0.6619667,874
0.6636333,1045
0.6653,908
0.6669667,852
0.6686333,770
0.6703,937
0.6719667,842
0.6736333,825
0.6753,818
0.6769667,811
0.6786333,771
0.6803,903
0.6819667,914
0.6836333,827
0.6853,734
0.6869667,817
0.6886333,811
0.6903,823
0.6919667,843
0.6936333,844
0.6953,845
0.6969666,1013
0.6986333,1027
0.7003,860
0.7019666,692
0.7036333,1025
0.7053,674
0.7069666,818
0.7086333,816
0.7103,872
0.7119667,856
0.7136334,916
0.7153,770
0.7169667,887
0.7186334,812
0.7203,753
0.7219667,674
0.7236333,962
0.7253,901
0.7269667,898
0.7286333,799
0.7303,875
0.7319667,708
0.7336333,834
0.7353,820
0.7369667,784
0.7386333,808
0.7403,833
0.7419667,838
0.7436333,877
0.7453,699
0.7469667,834
0.7486333,775
0.7503,693
0.7519667,803
0.7536333,849
0.7553,1009
0.7569667,932
0.7586333,666
0.7603,610
0.7619666,865
0.7636333,853
0.7653,733
0.7669666,847
0.7686333,803
0.7703,768
0.7719667,734
0.7736334,829
0.7753,809
0.7769667,623
0.7786334,790
0.7803,928
0.7819667,819
0.7836334,626
0.7853,657
0.7869667,605
0.7886333,709
0.7903,745
0.7919667,580
0.7936333,756
0.7953,726
0.7969667,692
0.7986333,704
0.8003,716
0.8019667,660
0.8036333,691
0.8053,651
0.8069667,638
0.8086333,625
0.8103,625
0.8119667,625
0.8136333,700
0.8153,774
0.8169667,770
0.8186333,770
0.8203,736
0.8219666,702
0.8236333,748
0.8253,788
0.8269666,805
0.8286333,821
0.8303,822
0.8319666,823
0.8336333,868
0.8353,846
0.8369667,823
0.8386334,831
0.8403,863
0.8419667,622
0.8436334,888
0.8453,870
0.8469667,790
0.8486333,711
0.8503,798
0.8519667,707
0.8536333,656
0.8553,771
0.8569667,604
0.8586333,747
0.8603,731
0.8619667,773
0.8636333,621
0.8653,830
0.8669667,658
0.8686333,753
0.8703,676
0.8719667,643
0.8736333,800
0.8753,617
0.8769667,765
0.8786333,922
0.8803,1137
0.8819667,1408
0.8836333,1865
0.8853,2340
0.8869666,2227
0.8886333,3057
0.8903,3167
0.8919666,3236
0.8936333,3114
0.8953,3366
0.8969667,3413
0.8986334,3353
0.9003,3449
0.9019667,3545
0.9036334,3481
0.9053,3416
0.9069667,3388
0.9086334,3616
0.9103,3586
0.9119667,3452
0.9136333,3841
0.9153,3826
0.9169667,3370
0.9186333,3581
0.9203,3604
0.9219667,3496
0.9236333,3672
0.9253,3706
0.9269667,3264
0.9286333,3616
0.9303,3429
0.9319667,3296
0.9336333,3432
0.9353,3072
0.9369667,3245
0.9386333,3006
0.9403,3206
0.9419667,3207
0.9436333,2818
0.9453,2633
0.9469666,2398
0.9486333,2647
0.9503,2510
0.9519666,2275
0.9536333,2346
0.9553,2085
0.9569666,2179
0.9586333,1966
0.9603,2141
0.9619667,2175
0.9636334,1762
0.9653,1458
0.9669667,1527
0.9686334,1359
0.9703,1243
0.9719667,1321
0.9736333,1351
0.9753,934
0.9769667,1155
0.9786333,1050
0.9803,1065
0.9819667,984
0.9836333,1106
0.9853,967
0.9869667,760
0.9886333,797
0.9903,724
0.9919667,649
0.9936333,734
0.9953,650
0.9969667,565
0.9986333,693
1.0003,685
1.001967,616
1.003633,546
1.0053,514
1.006967,655
1.008633,613
1.0103,541
1.011967,556
1.013633,649
1.0153,590
1.016967,531
1.018633,573
1.0203,535
1.021967,537
1.023633,516
1.0253,623
1.026967,625
1.028633,639
1.0303,653
1.031967,652
1.033633,651
1.0353,716
1.036967,545
1.038633,688
1.0403,624
1.041967,631
1.043633,587
1.0453,605
1.046967,622
1.048633,617
1.0503,598
1.051967,620
1.053633,642
1.0553,600
1.056967,558
1.058633,565
1.0603,547
1.061967,691
1.063633,722
1.0653,787
1.066967,719
1.068633,697
1.0703,660
1.071967,766
1.073633,574
1.0753,538
1.076967,644
1.078633,690
1.0803,715
1.081967,599
1.083633,677
1.0853,658
1.086967,640
1.088633,662
1.0903,583
1.091967,593
1.093633,643
1.0953,692
1.096967,711
1.098633,671
1.1003,665
1.101967,621
1.103633,601
1.1053,736
1.106967,745
1.108633,526
1.1103,753
1.111967,641
1.113633,790
1.1153,741
1.116967,610
1.118633,700
1.1203,610
1.121967,686
1.123633,734
1.1253,599
1.126967,598
1.128633,633
1.1303,663
1.131967,649
1.133633,629
1.1353,688
1.136967,397
1.138633,679
1.1403,621
1.141967,623
1.143633,553
1.1453,534
1.146967,571
1.148633,569
1.1503,567
1.151967,537
1.153633,517
1.1553,498
1.156967,665
1.158633,842
1.1603,782
1.161967,700
1.163633,596
1.1653,758
1.166967,712
1.168633,723
1.1703,716
1.171967,771
1.173633,573
1.1753,889
1.176967,779
1.178633,792
1.1803,661
1.181967,773
1.183633,874
1.1853,557
1.186967,796
1.188633,664
1.1903,832
1.191967,700
1.193633,645
1.1953,713
1.196967,661
1.198633,641
