"SampleName","A2Rd2_02-25"
"Target Mass 1",
"Column Name","IA-3 (3um, 4.6X100)"
"Channel","QDa 1: SIR Ch2"
0.00195,552
0.003616667,728
0.005283333,734
0.00695,796
0.008616666,857
0.01028333,833
0.01195,808
0.01361667,1055
0.01528333,941
0.01695,827
0.01861667,1051
0.02028333,939
0.02195,947
0.02361667,1042
0.02528333,1056
0.02695,1150
0.02861667,1076
0.03028333,883
0.03195,1021
0.03361667,930
0.03528333,1079
0.03695,1103
0.03861667,1043
0.04028333,1101
0.04195,1139
0.04361667,1182
0.04528333,1211
0.04695,1112
0.04861667,838
0.05028334,1153
0.05195,1218
0.05361667,659
0.05528333,976
0.05695,973
0.05861667,1005
0.06028333,791
0.06195,882
0.06361666,973
0.06528334,1064
0.06695,1160
0.06861667,1104
0.07028333,1019
0.07195,1167
0.07361667,1057
0.07528333,834
0.07695,1200
0.07861666,1012
0.08028334,977
0.08195,896
0.08361667,893
0.08528333,852
0.08695,941
0.08861667,1018
0.09028333,961
0.09195,935
0.09361666,910
0.09528334,961
0.09695,992
0.09861667,1022
0.1002833,979
0.10195,1071
0.1036167,1067
0.1052833,872
0.10695,1166
0.1086167,1154
0.1102833,992
0.11195,927
0.1136167,895
0.1152833,943
0.11695,996
0.1186167,1012
0.1202833,1033
0.12195,884
0.1236167,857
0.1252833,1071
0.12695,969
0.1286167,1015
0.1302833,778
0.13195,837
0.1336167,866
0.1352833,824
0.13695,941
0.1386167,1077
0.1402833,1020
0.14195,818
0.1436167,849
0.1452833,791
0.14695,1036
0.1486167,1097
0.1502833,1091
0.15195,838
0.1536167,937
0.1552833,1025
0.15695,1007
0.1586167,737
0.1602833,660
0.16195,913
0.1636167,1029
0.1652833,957
0.16695,932
0.1686167,813
0.1702833,897
0.17195,1010
0.1736167,942
0.1752833,804
0.17695,1035
0.1786167,985
0.1802833,959
0.18195,945
0.1836167,797
0.1852833,804
0.18695,992
0.1886167,1035
0.1902833,892
0.19195,1020
0.1936167,1013
0.1952833,1031
0.19695,946
0.1986333,943
0.2002833,940
0.20195,974
0.2036167,936
0.2052833,897
0.20695,1126
0.2086167,1149
0.2102833,1042
0.21195,1140
0.2136167,1206
0.2152833,1030
0.21695,1193
0.2186167,1032
0.2202833,934
0.22195,1100
0.2236167,1087
0.2252833,1074
0.22695,1187
0.2286333,1300
0.2302833,1266
0.23195,1231
0.2336167,1218
0.2352833,1232
0.23695,1053
0.2386167,1239
0.2402833,1233
0.24195,1302
0.2436167,1369
0.2453,1383
0.24695,1427
0.2486333,1223
0.2502833,1144
0.25195,1329
0.2536167,1298
0.2552833,1411
0.25695,1249
0.2586167,1288
0.2603,1158
0.26195,1007
0.2636333,1276
0.2653,1254
0.2669667,1110
0.2686167,1060
0.2702833,1066
0.27195,1098
0.2736167,1122
0.2752833,1115
0.27695,1108
0.2786167,1076
0.2803,1088
0.2819667,1100
0.2836167,1106
0.2852833,1108
0.28695,1111
0.2886167,1139
0.2902833,1113
0.29195,1088
0.2936167,937
0.2952833,1152
0.29695,1168
0.2986333,1121
0.3002833,1190
0.30195,1214
0.3036333,1239
0.3052833,1113
0.30695,1231
0.3086167,1228
0.3102833,1282
0.3119667,1463
0.3136333,1479
0.3153,1351
0.31695,1203
0.3186167,1308
0.3203,1387
0.32195,1233
0.3236167,1284
0.3252833,1445
0.32695,1187
0.3286167,1082
0.3303,1130
0.33195,1135
0.3336333,1103
0.3352833,1071
0.3369667,1353
0.3386167,1439
0.3403,1531
0.34195,1329
0.3436333,1293
0.3453,1509
0.3469667,1176
0.3486333,1447
0.3503,1256
0.3519667,1113
0.3536333,1623
0.3553,1534
0.3569667,1493
0.3586167,1416
0.3603,1605
0.3619667,1335
0.3636333,1602
0.3653,2633
0.3669667,3563
0.3686333,3584
0.3703,3742
0.3719667,3774
0.3736333,3806
0.3753,3528
0.3769667,3860
0.3786333,3758
0.3803,3707
0.3819667,2940
0.3836333,2579
0.3853,1915
0.3869667,1928
0.3886333,1313
0.3903,1156
0.3919667,822
0.3936333,716
0.3953,613
0.3969667,392
0.3986333,493
0.4003,337
0.4019667,362
0.4036333,587
0.4053,619
0.4069667,635
0.4086333,587
0.4103,538
0.4119667,597
0.4136333,644
0.4153,672
0.4169667,688
0.4186333,720
0.4203,734
0.4219667,748
0.4236333,751
0.4253,755
0.4269667,804
0.4286333,867
0.4303,897
0.4319667,927
0.4336333,919
0.4353,980
0.4369667,1041
0.4386333,1175
0.4403,1098
0.4419667,1110
0.4436333,1197
0.4453,1173
0.4469667,1149
0.4486333,1213
0.4503,1245
0.4519667,1269
0.4536333,1309
0.4553,1279
0.4569667,1249
0.4586333,1311
0.4603,1282
0.4619667,1254
0.4636333,1349
0.4653,1316
0.4669667,1282
0.4686333,1384
0.4703,1486
0.4719667,1434
0.4736333,1381
0.4753,1416
0.4769667,1450
0.4786333,1497
0.4803,1522
0.4819667,1410
0.4836333,1341
0.4853,1285
0.4869667,1262
0.4886333,1307
0.4903,1340
0.4919667,1188
0.4936333,1102
0.4953,1318
0.4969667,1348
0.4986333,1388
0.5003,1114
0.5019667,952
0.5036333,885
0.5053,1195
0.5069667,1053
0.5086333,1031
0.5103,1154
0.5119666,904
0.5136333,1134
0.5153,826
0.5169666,857
0.5186333,1115
0.5203,865
0.5219667,851
0.5236334,1017
0.5253,910
0.5269667,910
0.5286334,1050
0.5303,975
0.5319667,899
0.5336334,907
0.5353,1042
0.5369667,1047
0.5386333,964
0.5403,1016
0.5419667,850
0.5436333,1093
0.5453,1125
0.5469667,938
0.5486333,993
0.5503,918
0.5519667,938
0.5536333,958
0.5553,933
0.5569667,908
0.5586333,913
0.5603,910
0.5619667,914
0.5636333,901
0.5653,853
0.5669667,761
0.5686333,836
0.5703,825
0.5719666,815
0.5736333,787
0.5753,904
0.5769666,1144
0.5786333,1129
0.5803,1003
0.5819666,1065
0.5836333,894
0.5853,1111
0.5869667,969
0.5886334,792
0.5903,983
0.5919667,1086
0.5936334,1022
0.5953,1002
0.5969667,900
0.5986333,1076
0.6003,998
0.6019667,979
0.6036333,1086
0.6053,872
0.6069667,960
0.6086333,927
0.6103,794
0.6119667,963
0.6136333,1036
0.6153,1078
0.6169667,972
0.6186333,1092
0.6203,1167
0.6219667,1135
0.6236333,783
0.6253,843
0.6269667,838
0.6286333,892
0.6303,832
0.6319667,771
0.6336333,892
0.6353,862
0.6369666,1014
0.6386333,972
0.6403,817
0.6419666,1017
0.6436333,1051
0.6453,946
0.6469667,756
0.6486334,927
0.6503,864
0.6519667,938
0.6536334,905
0.6553,821
0.6569667,847
0.6586334,1093
0.6603,1078
0.6619667,788
0.6636333,914
0.6653,1048
0.6669667,933
0.6686333,945
0.6703,837
0.6719667,858
0.6736333,815
0.6753,1033
0.6769667,939
0.6786333,846
0.6803,875
0.6819667,945
0.6836333,976
0.6853,834
0.6869667,978
0.6886333,955
0.6903,837
0.6919667,981
0.6936333,913
0.6953,947
0.6969666,845
0.6986333,1040
0.7003,995
0.7019666,1021
0.7036333,1087
0.7053,885
0.7069666,711
0.7086333,1033
0.7103,905
0.7119667,887
0.7136334,949
0.7153,1016
0.7169667,1018
0.7186334,1025
0.7203,886
0.7219667,990
0.7236333,872
0.7253,919
0.7269667,967
0.7286333,956
0.7303,905
0.7319667,977
0.7336333,818
0.7353,784
0.7369667,890
0.7386333,862
0.7403,901
0.7419667,823
0.7436333,883
0.7453,930
0.7469667,850
0.7486333,817
0.7503,879
0.7519667,962
0.7536333,997
0.7553,922
0.7569667,825
0.7586333,858
0.7603,777
0.7619666,789
0.7636333,801
0.7653,842
0.7669666,884
0.7686333,902
0.7703,920
0.7719667,886
0.7736334,916
0.7753,947
0.7769667,843
0.7786334,858
0.7803,811
0.7819667,953
0.7836334,968
0.7853,947
0.7869667,921
0.7886333,1097
0.7903,735
0.7919667,921
0.7936333,923
0.7953,939
0.7969667,803
0.7986333,879
0.8003,868
0.8019667,857
0.8036333,798
0.8053,740
0.8069667,814
0.8086333,894
0.8103,924
0.8119667,954
0.8136333,951
0.8153,947
0.8169667,766
0.8186333,946
0.8203,888
0.8219666,811
0.8236333,830
0.8253,849
0.8269666,933
0.8286333,926
0.8303,919
0.8319666,897
0.8336333,909
0.8353,912
0.8369667,877
0.8386334,753
0.8403,824
0.8419667,895
0.8436334,802
0.8453,710
0.8469667,985
0.8486333,890
0.8503,796
0.8519667,780
0.8536333,681
0.8553,902
0.8569667,932
0.8586333,712
0.8603,863
0.8619667,916
0.8636333,1029
0.8653,706
0.8669667,969
0.8686333,813
0.8703,613
0.8719667,940
0.8736333,874
0.8753,662
0.8769667,849
0.8786333,944
0.8803,843
0.8819667,819
0.8836333,1171
0.8853,1221
0.8869666,1199
0.8886333,1213
0.8903,1228
0.8919666,1223
0.8936333,1219
0.8953,1259
0.8969667,1298
0.8986334,1105
0.9003,1249
0.9019667,1462
0.9036334,1393
0.9053,1319
0.9069667,1160
0.9086334,1237
0.9103,1268
0.9119667,1298
0.9136333,1300
0.9153,1391
0.9169667,1165
0.9186333,1222
0.9203,1304
0.9219667,1081
0.9236333,1315
0.9253,1228
0.9269667,1240
0.9286333,1135
0.9303,1165
0.9319667,1195
0.9336333,1201
0.9353,1224
0.9369667,1277
0.9386333,1304
0.9403,1332
0.9419667,1132
0.9436333,1418
0.9453,1089
0.9469666,1142
0.9486333,1390
0.9503,1342
0.9519666,1163
0.9536333,1247
0.9553,1006
0.9569666,1283
0.9586333,1087
0.9603,1116
0.9619667,1092
0.9636334,1049
0.9653,1115
0.9669667,949
0.9686334,830
0.9703,893
0.9719667,903
0.9736333,834
0.9753,982
0.9769667,1012
0.9786333,998
0.9803,930
0.9819667,863
0.9836333,659
0.9853,1056
0.9869667,824
0.9886333,819
0.9903,829
0.9919667,971
0.9936333,1008
0.9953,752
0.9969667,598
0.9986333,928
1.0003,850
1.001967,985
1.003633,994
1.0053,729
1.006967,816
1.008633,761
1.0103,973
1.011967,1011
1.013633,935
1.0153,837
1.016967,686
1.018633,801
1.0203,915
1.021967,778
1.023633,862
1.0253,860
1.026967,887
1.028633,913
1.0303,987
1.031967,970
1.033633,737
1.0353,1108
1.036967,991
1.038633,901
1.0403,811
1.041967,1008
1.043633,905
1.0453,803
1.046967,876
1.048633,966
1.0503,924
1.051967,805
1.053633,814
1.0553,822
1.056967,832
1.058633,802
1.0603,772
1.061967,842
1.063633,924
1.0653,973
1.066967,944
1.068633,891
1.0703,908
1.071967,929
1.073633,951
1.0753,853
1.076967,733
1.078633,901
1.0803,1101
1.081967,1105
1.083633,714
1.0853,981
1.086967,1004
1.088633,727
1.0903,1019
1.091967,744
1.093633,931
1.0953,925
1.096967,989
1.098633,948
1.1003,907
1.101967,1013
1.103633,996
1.1053,979
1.106967,877
1.108633,789
1.1103,962
1.111967,998
1.113633,807
1.1153,823
1.116967,929
1.118633,786
1.1203,905
1.121967,1003
1.123633,1032
1.1253,878
1.126967,885
1.128633,966
1.1303,867
1.131967,800
1.133633,704
1.1353,802
1.136967,901
1.138633,888
1.1403,881
1.141967,919
1.143633,879
1.1453,839
1.146967,773
1.148633,934
1.1503,704
1.151967,1003
1.153633,882
1.1553,1027
1.156967,876
1.158633,853
1.1603,1025
1.161967,936
1.163633,875
1.1653,794
1.166967,829
1.168633,751
1.1703,751
1.171967,751
1.173633,788
1.1753,824
1.176967,849
1.178633,880
1.1803,871
1.181967,810
1.183633,946
1.1853,725
1.186967,889
1.188633,855
1.1903,879
1.191967,862
1.193633,815
1.1953,768
1.196967,747
1.198633,965
