"SampleName","A2Rd2_02-17"
"Target Mass 1",
"Column Name","IA-3 (3um, 4.6X100)"
"Channel","QDa 1: SIR Ch2"
0.00195,693
0.003616667,874
0.005283333,549
0.00695,764
0.008616666,916
0.01028333,913
0.01195,990
0.01361667,939
0.01528333,888
0.01695,1000
0.01861667,929
0.02028333,779
0.02195,1116
0.02361667,1155
0.02528333,990
0.02695,968
0.02861667,976
0.03028333,882
0.03195,1000
0.03361667,995
0.03528333,1004
0.03695,1006
0.03861667,1067
0.04028333,1059
0.04195,1076
0.04361667,1092
0.04528333,1006
0.04695,982
0.04861667,969
0.05028334,938
0.05195,933
0.05361667,928
0.05528333,1070
0.05695,1040
0.05861667,732
0.06028333,860
0.06195,972
0.06361666,967
0.06528334,1080
0.06695,1036
0.06861667,1030
0.07028333,1064
0.07195,1041
0.07361667,1099
0.07528333,960
0.07695,970
0.07861666,935
0.08028334,979
0.08195,904
0.08361667,892
0.08528333,984
0.08695,919
0.08861667,961
0.09028333,1134
0.09195,1048
0.09361666,963
0.09528334,883
0.09695,928
0.09861667,972
0.1002833,1009
0.10195,847
0.1036167,997
0.1052833,1167
0.10695,1068
0.1086167,981
0.1102833,1001
0.11195,936
0.1136167,860
0.1152833,846
0.11695,875
0.1186167,866
0.1202833,1004
0.12195,999
0.1236167,995
0.1252833,919
0.12695,802
0.1286167,992
0.1302833,986
0.13195,1096
0.1336167,790
0.1352833,951
0.13695,853
0.1386167,935
0.1402833,894
0.14195,938
0.1436167,911
0.1452833,924
0.14695,937
0.1486167,955
0.1502833,973
0.15195,784
0.1536167,907
0.1552833,896
0.15695,838
0.1586167,792
0.1602833,1008
0.16195,944
0.1636167,1019
0.1652833,1005
0.16695,986
0.1686167,837
0.1702833,1036
0.17195,957
0.1736167,980
0.1752833,995
0.17695,1105
0.1786167,1100
0.1802833,891
0.18195,1098
0.1836167,866
0.1852833,1085
0.18695,975
0.1886167,1050
0.1902833,1125
0.19195,749
0.1936167,1002
0.1952833,1069
0.19695,876
0.1986167,1052
0.2002833,1060
0.20195,1068
0.2036167,1211
0.2052833,1216
0.20695,1078
0.2086167,1115
0.2102833,1026
0.21195,1049
0.2136167,1071
0.2152833,971
0.21695,1159
0.2186167,1116
0.2202833,1074
0.22195,1207
0.2236167,1004
0.2252833,1175
0.22695,1146
0.2286167,1234
0.2302833,1321
0.23195,1267
0.2336167,1239
0.2352833,1183
0.23695,1097
0.2386167,1075
0.2402833,1053
0.24195,1344
0.2436167,1492
0.2452833,1578
0.24695,1577
0.2486167,1619
0.2502833,1348
0.25195,1173
0.2536167,1351
0.2552833,1283
0.25695,1348
0.2586167,1314
0.2602833,1302
0.26195,1371
0.2636333,1141
0.2652833,1331
0.26695,1170
0.2686167,1239
0.2702833,1250
0.27195,967
0.2736167,1158
0.2753,1277
0.27695,1084
0.2786167,1262
0.2803,1234
0.28195,1164
0.2836167,1037
0.2852833,1170
0.28695,976
0.2886167,1113
0.2902833,1061
0.29195,1008
0.2936167,1128
0.2952833,1128
0.29695,1127
0.2986333,1142
0.3002833,1151
0.30195,1010
0.3036167,1040
0.3053,1070
0.30695,1242
0.3086167,1218
0.3102833,1121
0.31195,1296
0.3136167,1322
0.3153,1390
0.31695,1266
0.3186333,1277
0.3202833,1289
0.3219667,1281
0.3236167,1159
0.3253,1210
0.32695,1592
0.3286167,1656
0.3302833,1026
0.33195,1416
0.3336333,1198
0.3352833,1337
0.3369667,1567
0.3386333,1520
0.3403,1428
0.34195,1482
0.3436167,1285
0.3452833,1191
0.34695,1321
0.3486333,1348
0.3503,1331
0.35195,1339
0.3536333,1347
0.3553,1344
0.3569667,1210
0.3586167,1185
0.3602833,1208
0.36195,1282
0.3636167,1585
0.3653,2620
0.36695,3583
0.3686333,3565
0.3702833,3824
0.3719667,3445
0.3736333,3724
0.3753,3948
0.3769667,3734
0.3786167,3367
0.3803,3026
0.3819667,2802
0.3836333,2311
0.3853,1846
0.3869667,1703
0.3886333,1476
0.3903,908
0.3919667,914
0.3936333,850
0.3953,580
0.3969667,555
0.3986333,512
0.4003,572
0.4019667,579
0.4036333,641
0.4053,647
0.4069667,635
0.4086333,630
0.4103,621
0.4119667,682
0.4136333,694
0.4153,694
0.4169667,744
0.4186333,772
0.4203,768
0.4219667,765
0.4236333,695
0.4253,940
0.4269667,923
0.4286333,959
0.4303,938
0.4319667,918
0.4336333,840
0.4353,949
0.4369667,868
0.4386333,882
0.4403,896
0.4419667,1087
0.4436333,1245
0.4453,1128
0.4469667,1188
0.4486333,1287
0.4503,1342
0.4519667,1472
0.4536333,1423
0.4553,1319
0.4569667,1427
0.4586333,1170
0.4603,1228
0.4619667,1289
0.4636333,1357
0.4653,1425
0.4669667,1495
0.4686333,1455
0.4703,1513
0.4719667,1557
0.4736333,1347
0.4753,1503
0.4769667,1518
0.4786333,1494
0.4803,1466
0.4819667,1447
0.4836333,1217
0.4853,1493
0.4869667,1182
0.4886333,1500
0.4903,1345
0.4919667,1281
0.4936333,1183
0.4953,1157
0.4969667,962
0.4986333,1096
0.5003,1168
0.5019667,1194
0.5036333,1146
0.5053,1046
0.5069667,1112
0.5086333,835
0.5103,869
0.5119666,1154
0.5136333,1187
0.5153,1125
0.5169666,827
0.5186333,771
0.5203,972
0.5219667,929
0.5236334,885
0.5253,917
0.5269667,949
0.5286334,980
0.5303,1040
0.5319667,1101
0.5336334,1032
0.5353,963
0.5369667,1062
0.5386333,984
0.5403,1101
0.5419667,1014
0.5436333,928
0.5453,856
0.5469667,902
0.5486333,947
0.5503,966
0.5519667,1095
0.5536333,1121
0.5553,941
0.5569667,880
0.5586333,980
0.5603,1009
0.5619667,891
0.5636333,1020
0.5653,839
0.5669667,839
0.5686333,1040
0.5703,1037
0.5719666,1063
0.5736333,836
0.5753,977
0.5769666,980
0.5786333,955
0.5803,946
0.5819666,938
0.5836333,936
0.5853,934
0.5869667,974
0.5886334,968
0.5903,961
0.5919667,901
0.5936334,841
0.5953,1066
0.5969667,1149
0.5986333,1058
0.6003,943
0.6019667,907
0.6036333,917
0.6053,951
0.6069667,942
0.6086333,933
0.6103,937
0.6119667,960
0.6136333,983
0.6153,976
0.6169667,967
0.6186333,1044
0.6203,1025
0.6219667,1006
0.6236333,1046
0.6253,992
0.6269667,907
0.6286333,1041
0.6303,1038
0.6319667,949
0.6336333,930
0.6353,872
0.6369666,905
0.6386333,938
0.6403,809
0.6419666,929
0.6436333,981
0.6453,897
0.6469667,959
0.6486334,974
0.6503,989
0.6519667,899
0.6536334,915
0.6553,957
0.6569667,953
0.6586334,901
0.6603,1008
0.6619667,963
0.6636333,917
0.6653,923
0.6669667,999
0.6686333,746
0.6703,895
0.6719667,835
0.6736333,984
0.6753,901
0.6769667,820
0.6786333,864
0.6803,828
0.6819667,864
0.6836333,850
0.6853,836
0.6869667,838
0.6886333,936
0.6903,990
0.6919667,961
0.6936333,932
0.6953,961
0.6969666,921
0.6986333,1100
0.7003,1081
0.7019666,1022
0.7036333,947
0.7053,1055
0.7069666,876
0.7086333,1118
0.7103,1058
0.7119667,1102
0.7136334,1092
0.7153,1081
0.7169667,1027
0.7186334,974
0.7203,1087
0.7219667,1173
0.7236333,894
0.7253,1067
0.7269667,1183
0.7286333,879
0.7303,862
0.7319667,1083
0.7336333,997
0.7353,1102
0.7369667,994
0.7386333,913
0.7403,793
0.7419667,1058
0.7436333,967
0.7453,885
0.7469667,837
0.7486333,857
0.7503,898
0.7519667,749
0.7536333,922
0.7553,782
0.7569667,924
0.7586333,990
0.7603,776
0.7619666,1044
0.7636333,858
0.7653,872
0.7669666,1051
0.7686333,1021
0.7703,943
0.7719667,1019
0.7736334,844
0.7753,885
0.7769667,794
0.7786334,1026
0.7803,969
0.7819667,834
0.7836334,889
0.7853,924
0.7869667,998
0.7886333,1094
0.7903,1075
0.7919667,1056
0.7936333,1085
0.7953,884
0.7969667,964
0.7986333,1116
0.8003,908
0.8019667,1127
0.8036333,1190
0.8053,1327
0.8069667,1147
0.8086333,1291
0.8103,1048
0.8119667,1257
0.8136333,1104
0.8153,1175
0.8169667,1210
0.8186333,1132
0.8203,1107
0.8219666,1222
0.8236333,1146
0.8253,1091
0.8269666,1036
0.8286333,1185
0.8303,1084
0.8319666,1205
0.8336333,893
0.8353,1104
0.8369667,1059
0.8386334,1158
0.8403,1162
0.8419667,1114
0.8436334,905
0.8453,1010
0.8469667,999
0.8486333,969
0.8503,940
0.8519667,1009
0.8536333,847
0.8553,1000
0.8569667,868
0.8586333,774
0.8603,962
0.8619667,739
0.8636333,1020
0.8653,712
0.8669667,898
0.8686333,845
0.8703,818
0.8719667,790
0.8736333,843
0.8753,959
0.8769667,956
0.8786333,840
0.8803,943
0.8819667,838
0.8836333,1152
0.8853,1266
0.8869666,1231
0.8886333,1339
0.8903,1012
0.8919666,1293
0.8936333,1530
0.8953,1808
0.8969667,1447
0.8986334,1225
0.9003,1543
0.9019667,1373
0.9036334,1452
0.9053,1474
0.9069667,1344
0.9086334,1293
0.9103,1242
0.9119667,1250
0.9136333,1511
0.9153,1588
0.9169667,1381
0.9186333,1669
0.9203,1800
0.9219667,1556
0.9236333,1409
0.9253,1382
0.9269667,1265
0.9286333,1405
0.9303,1294
0.9319667,1389
0.9336333,1277
0.9353,1393
0.9369667,1357
0.9386333,1322
0.9403,1238
0.9419667,1159
0.9436333,1261
0.9453,1413
0.9469666,1434
0.9486333,1199
0.9503,1282
0.9519666,1182
0.9536333,1273
0.9553,1307
0.9569666,1239
0.9586333,1137
0.9603,1253
0.9619667,1064
0.9636334,1102
0.9653,1296
0.9669667,927
0.9686334,1142
0.9703,787
0.9719667,1068
0.9736333,969
0.9753,992
0.9769667,1067
0.9786333,1019
0.9803,998
0.9819667,1057
0.9836333,1116
0.9853,1089
0.9869667,1062
0.9886333,1101
0.9903,961
0.9919667,1011
0.9936333,1000
0.9953,974
0.9969667,1011
0.9986333,942
1.0003,905
1.001967,867
1.003633,1215
1.0053,1162
1.006967,1206
1.008633,1027
1.0103,830
1.011967,926
1.013633,1162
1.0153,1282
1.016967,1122
1.018633,1099
1.0203,1124
1.021967,1033
1.023633,886
1.0253,995
1.026967,993
1.028633,783
1.0303,989
1.031967,1099
1.033633,1192
1.0353,919
1.036967,1076
1.038633,837
1.0403,1050
1.041967,918
1.043633,961
1.0453,1048
1.046967,1101
1.048633,1059
1.0503,1029
1.051967,954
1.053633,900
1.0553,1087
1.056967,779
1.058633,946
1.0603,1028
1.061967,757
1.063633,894
1.0653,1011
1.066967,1016
1.068633,950
1.0703,1007
1.071967,1064
1.073633,921
1.0753,1049
1.076967,885
1.078633,946
1.0803,1048
1.081967,1104
1.083633,972
1.0853,990
1.086967,950
1.088633,952
1.0903,958
1.091967,963
1.093633,840
1.0953,971
1.096967,891
1.098633,1107
1.1003,1020
1.101967,839
1.103633,1012
1.1053,1009
1.106967,870
1.108633,865
1.1103,1051
1.111967,1026
1.113633,1065
1.1153,1007
1.116967,976
1.118633,996
1.1203,1015
1.121967,807
1.123633,1017
1.1253,987
1.126967,896
1.128633,899
1.1303,956
1.131967,920
1.133633,883
1.1353,901
1.136967,919
1.138633,944
1.1403,969
1.141967,737
1.143633,701
1.1453,949
1.146967,881
1.148633,703
1.1503,772
1.151967,906
1.153633,851
1.1553,917
1.156967,821
1.158633,844
1.1603,957
1.161967,969
1.163633,856
1.1653,898
1.166967,941
1.168633,824
1.1703,803
1.171967,782
1.173633,806
1.1753,831
1.176967,861
1.178633,853
1.1803,904
1.181967,904
1.183633,905
1.1853,889
1.186967,826
1.188633,764
1.1903,799
1.191967,834
1.193633,809
1.1953,785
1.196967,795
1.198633,805
