"SampleName","A2Rd2_02-4"
"Target Mass 1",
"Column Name","IA-3 (3um, 4.6X100)"
"Channel","QDa 1: SIR Ch1"
0.00195,249
0.003616667,533
0.005283333,470
0.00695,392
0.008616666,527
0.01028333,461
0.01195,466
0.01361667,470
0.01528333,550
0.01695,511
0.01861667,473
0.02028333,475
0.02195,400
0.02361667,354
0.02528333,309
0.02695,541
0.02861667,495
0.03028333,548
0.03195,586
0.03361667,519
0.03528333,452
0.03695,615
0.03861667,610
0.04028333,432
0.04195,475
0.04361667,451
0.04528333,530
0.04695,536
0.04861667,534
0.05028334,532
0.05195,508
0.05361667,540
0.05528333,518
0.05695,425
0.05861667,564
0.06028333,511
0.06195,499
0.06361666,479
0.06528334,474
0.06695,468
0.06861667,491
0.07028333,491
0.07195,492
0.07361667,442
0.07528333,442
0.07695,443
0.07861666,461
0.08028334,471
0.08195,481
0.08361667,557
0.08528333,562
0.08695,545
0.08861667,552
0.09028333,449
0.09195,517
0.09361666,417
0.09528334,517
0.09695,502
0.09861667,540
0.1002833,515
0.10195,504
0.1036167,524
0.1052833,533
0.10695,458
0.1086167,461
0.1102833,539
0.11195,544
0.1136167,504
0.1152833,464
0.11695,499
0.1186167,480
0.1202833,546
0.12195,543
0.1236167,541
0.1252833,438
0.12695,304
0.1286167,425
0.1302833,467
0.13195,472
0.1336167,564
0.1352833,557
0.13695,528
0.1386167,583
0.1402833,503
0.14195,361
0.1436167,452
0.1452833,536
0.14695,546
0.1486167,423
0.1502833,365
0.15195,384
0.1536167,490
0.1552833,435
0.15695,381
0.1586167,547
0.1602833,509
0.16195,640
0.1636167,636
0.1652833,493
0.16695,505
0.1686167,498
0.1702833,508
0.17195,509
0.1736167,463
0.1752833,417
0.17695,470
0.1786167,523
0.1802833,487
0.18195,368
0.1836167,481
0.1852833,469
0.18695,392
0.1886167,459
0.1902833,426
0.19195,553
0.1936167,541
0.1952833,426
0.19695,439
0.1986167,388
0.2002833,528
0.20195,547
0.2036167,552
0.2052833,510
0.20695,464
0.2086167,328
0.2102833,463
0.21195,602
0.2136167,543
0.2152833,533
0.21695,511
0.2186167,539
0.2202833,439
0.22195,553
0.2236167,497
0.2252833,489
0.22695,482
0.2286167,508
0.2302833,464
0.23195,429
0.2336167,393
0.2352833,472
0.23695,469
0.2386167,353
0.2402833,491
0.24195,527
0.2436167,535
0.2453,478
0.24695,382
0.2486167,533
0.2502833,507
0.25195,521
0.2536167,557
0.2552833,400
0.25695,618
0.2586167,559
0.2602833,506
0.26195,441
0.2636167,456
0.2652833,477
0.26695,488
0.2686167,544
0.2702833,495
0.27195,445
0.2736167,485
0.2752833,498
0.27695,512
0.2786167,552
0.2803,511
0.2819667,471
0.2836167,490
0.2852833,508
0.28695,468
0.2886167,474
0.2902833,479
0.29195,507
0.2936167,337
0.2952833,617
0.29695,495
0.2986333,565
0.3003,498
0.30195,556
0.3036167,497
0.3052833,438
0.30695,594
0.3086167,597
0.3102833,627
0.31195,657
0.3136167,548
0.3153,677
0.3169667,684
0.3186167,430
0.3202833,528
0.32195,532
0.3236167,562
0.3252833,576
0.32695,589
0.3286167,445
0.3302833,539
0.3319667,524
0.3336333,472
0.3352833,597
0.33695,571
0.3386167,573
0.3402833,557
0.3419667,571
0.3436333,512
0.3453,556
0.34695,442
0.3486167,531
0.3503,621
0.35195,421
0.3536167,582
0.3552833,539
0.35695,438
0.3586333,504
0.3602833,508
0.3619667,530
0.3636167,872
0.3653,1093
0.3669667,1848
0.3686333,2899
0.3703,3962
0.3719667,5198
0.3736333,5360
0.3753,6480
0.3769667,6750
0.3786333,6663
0.3802833,6715
0.3819667,5898
0.3836333,5549
0.3853,4873
0.38695,4511
0.3886333,3449
0.3902833,3333
0.3919667,2870
0.3936333,2140
0.3953,1696
0.39695,1469
0.3986333,973
0.4003,1382
0.4019667,1112
0.4036333,1006
0.4053,1021
0.4069667,965
0.4086333,1051
0.4103,919
0.4119667,970
0.4136333,1022
0.4153,1016
0.4169667,882
0.4186333,1090
0.4203,1082
0.4219667,1244
0.4236333,1082
0.4253,864
0.4269667,1127
0.4286333,1102
0.4303,1223
0.4319667,1206
0.4336333,1484
0.4353,2205
0.4369667,3516
0.4386333,5143
0.4403,7649
0.4419667,12608
0.4436333,19128
0.4453,29500
0.4469667,40800
0.4486333,54704
0.4503,71776
0.4519667,86320
0.4536333,104880
0.4553,121856
0.4569667,137216
0.4586333,148480
0.4603,163392
0.4619667,177472
0.4636333,186112
0.4653,192832
0.4669667,206784
0.4686333,218112
0.4703,231360
0.4719667,246400
0.4736333,264064
0.4753,268544
0.4769667,276352
0.4786333,277184
0.4803,267392
0.4819667,250112
0.4836333,233152
0.4853,210432
0.4869667,184896
0.4886333,160704
0.4903,136384
0.4919667,114384
0.4936333,94784
0.4953,76688
0.4969667,62960
0.4986333,48400
0.5003,38560
0.5019667,30984
0.5036333,24688
0.5053,19520
0.5069667,15076
0.5086333,12392
0.5103,10920
0.5119666,9160
0.5136333,8324
0.5153,7004
0.5169666,7020
0.5186333,5617
0.5203,5570
0.5219667,4599
0.5236334,4274
0.5253,4262
0.5269667,4175
0.5286334,3993
0.5303,3849
0.5319667,3436
0.5336334,3289
0.5353,3152
0.5369667,3212
0.5386333,3041
0.5403,3212
0.5419667,3307
0.5436333,2852
0.5453,2547
0.5469667,2537
0.5486333,2045
0.5503,2415
0.5519667,2196
0.5536333,2349
0.5553,2207
0.5569667,2148
0.5586333,1737
0.5603,1966
0.5619667,1948
0.5636333,1710
0.5653,1661
0.5669667,1363
0.5686333,1613
0.5703,1625
0.5719666,1487
0.5736333,1164
0.5753,1417
0.5769666,1457
0.5786333,1493
0.5803,1247
0.5819666,1539
0.5836333,1410
0.5853,1454
0.5869667,1531
0.5886334,1191
0.5903,1487
0.5919667,1342
0.5936334,1427
0.5953,1480
0.5969667,1384
0.5986333,1139
0.6003,1151
0.6019667,1295
0.6036333,1373
0.6053,1451
0.6069667,1151
0.6086333,1256
0.6103,1221
0.6119667,1228
0.6136333,1187
0.6153,1228
0.6169667,1221
0.6186333,1096
0.6203,996
0.6219667,1052
0.6236333,975
0.6253,1219
0.6269667,1155
0.6286333,991
0.6303,1310
0.6319667,810
0.6336333,1084
0.6353,820
0.6369666,994
0.6386333,1131
0.6403,1209
0.6419666,837
0.6436333,909
0.6453,874
0.6469667,969
0.6486334,702
0.6503,947
0.6519667,973
0.6536334,937
0.6553,807
0.6569667,788
0.6586334,745
0.6603,883
0.6619667,907
0.6636333,715
0.6653,889
0.6669667,782
0.6686333,767
0.6703,678
0.6719667,733
0.6736333,707
0.6753,734
0.6769667,761
0.6786333,891
0.6803,865
0.6819667,839
0.6836333,775
0.6853,757
0.6869667,839
0.6886333,736
0.6903,569
0.6919667,677
0.6936333,720
0.6953,847
0.6969666,836
0.6986333,779
0.7003,722
0.7019666,730
0.7036333,741
0.7053,711
0.7069666,682
0.7086333,678
0.7103,635
0.7119667,704
0.7136334,774
0.7153,721
0.7169667,669
0.7186334,731
0.7203,673
0.7219667,705
0.7236333,667
0.7253,778
0.7269667,790
0.7286333,674
0.7303,757
0.7319667,798
0.7336333,766
0.7353,772
0.7369667,682
0.7386333,661
0.7403,641
0.7419667,703
0.7436333,748
0.7453,747
0.7469667,817
0.7486333,796
0.7503,810
0.7519667,701
0.7536333,816
0.7553,629
0.7569667,661
0.7586333,876
0.7603,700
0.7619666,753
0.7636333,895
0.7653,652
0.7669666,819
0.7686333,838
0.7703,894
0.7719667,742
0.7736334,652
0.7753,807
0.7769667,646
0.7786334,938
0.7803,863
0.7819667,649
0.7836334,877
0.7853,817
0.7869667,616
0.7886333,642
0.7903,758
0.7919667,719
0.7936333,685
0.7953,538
0.7969667,599
0.7986333,711
0.8003,703
0.8019667,804
0.8036333,767
0.8053,730
0.8069667,881
0.8086333,851
0.8103,582
0.8119667,706
0.8136333,693
0.8153,685
0.8169667,727
0.8186333,784
0.8203,874
0.8219666,840
0.8236333,829
0.8253,819
0.8269666,799
0.8286333,734
0.8303,795
0.8319666,773
0.8336333,751
0.8353,747
0.8369667,742
0.8386334,718
0.8403,941
0.8419667,1008
0.8436334,833
0.8453,773
0.8469667,797
0.8486333,772
0.8503,747
0.8519667,749
0.8536333,904
0.8553,909
0.8569667,779
0.8586333,785
0.8603,754
0.8619667,767
0.8636333,772
0.8653,802
0.8669667,682
0.8686333,704
0.8703,665
0.8719667,626
0.8736333,663
0.8753,685
0.8769667,906
0.8786333,1085
0.8803,1468
0.8819667,2153
0.8836333,2026
0.8853,2225
0.8869666,2375
0.8886333,2809
0.8903,2646
0.8919666,2708
0.8936333,2659
0.8953,2802
0.8969667,2753
0.8986334,2705
0.9003,2909
0.9019667,3112
0.9036334,3086
0.9053,3232
0.9069667,2875
0.9086334,3236
0.9103,3055
0.9119667,3307
0.9136333,3144
0.9153,2418
0.9169667,2921
0.9186333,3083
0.9203,2890
0.9219667,2956
0.9236333,3022
0.9253,3036
0.9269667,3005
0.9286333,2986
0.9303,2730
0.9319667,2840
0.9336333,2552
0.9353,2953
0.9369667,2779
0.9386333,2427
0.9403,2594
0.9419667,2900
0.9436333,2399
0.9453,2497
0.9469666,2299
0.9486333,2282
0.9503,2165
0.9519666,2078
0.9536333,2287
0.9553,1840
0.9569666,1886
0.9586333,1585
0.9603,1450
0.9619667,1421
0.9636334,1457
0.9653,1468
0.9669667,1333
0.9686334,1525
0.9703,1403
0.9719667,1281
0.9736333,1219
0.9753,1144
0.9769667,981
0.9786333,949
0.9803,652
0.9819667,806
0.9836333,894
0.9853,721
0.9869667,796
0.9886333,707
0.9903,743
0.9919667,650
0.9936333,705
0.9953,544
0.9969667,561
0.9986333,670
1.0003,633
1.001967,562
1.003633,557
1.0053,591
1.006967,545
1.008633,574
1.0103,602
1.011967,554
1.013633,532
1.0153,509
1.016967,495
1.018633,480
1.0203,758
1.021967,698
1.023633,555
1.0253,616
1.026967,602
1.028633,602
1.0303,603
1.031967,676
1.033633,708
1.0353,706
1.036967,557
1.038633,509
1.0403,699
1.041967,634
1.043633,620
1.0453,560
1.046967,592
1.048633,571
1.0503,550
1.051967,642
1.053633,679
1.0553,715
1.056967,594
1.058633,717
1.0603,616
1.061967,698
1.063633,713
1.0653,704
1.066967,694
1.068633,607
1.0703,624
1.071967,534
1.073633,722
1.0753,804
1.076967,686
1.078633,708
1.0803,602
1.081967,761
1.083633,654
1.0853,731
1.086967,364
1.088633,699
1.0903,557
1.091967,671
1.093633,674
1.0953,705
1.096967,731
1.098633,616
1.1003,779
1.101967,662
1.103633,501
1.1053,601
1.106967,558
1.108633,515
1.1103,746
1.111967,810
1.113633,550
1.1153,545
1.116967,684
1.118633,559
1.1203,609
1.121967,660
1.123633,644
1.1253,690
1.126967,570
1.128633,724
1.1303,755
1.131967,604
1.133633,558
1.1353,693
1.136967,692
1.138633,731
1.1403,597
1.141967,719
1.143633,681
1.1453,752
1.146967,786
1.148633,641
1.1503,785
1.151967,827
1.153633,851
1.1553,655
1.156967,564
1.158633,935
1.1603,653
1.161967,534
1.163633,669
1.1653,593
1.166967,781
1.168633,728
1.1703,778
1.171967,781
1.173633,748
1.1753,702
1.176967,684
1.178633,665
1.1803,718
1.181967,726
1.183633,733
1.1853,647
1.186967,805
1.188633,802
1.1903,816
1.191967,870
1.193633,872
1.1953,758
1.196967,711
1.198633,728
