"SampleName","A2Rd2_02-36"
"Target Mass 1",
"Column Name","IA-3 (3um, 4.6X100)"
"Channel","QDa 1: SIR Ch2"
0.00195,529
0.003616667,782
0.005283333,858
0.00695,802
0.008616666,811
0.01028333,830
0.01195,902
0.01361667,854
0.01528333,806
0.01695,905
0.01861667,846
0.02028333,787
0.02195,911
0.02361667,793
0.02528333,910
0.02695,891
0.02861667,871
0.03028333,893
0.03195,954
0.03361667,940
0.03528333,926
0.03695,946
0.03861667,990
0.04028333,1034
0.04195,849
0.04361667,865
0.04528333,889
0.04695,843
0.04861667,798
0.05028334,912
0.05195,1026
0.05361667,1053
0.05528333,1011
0.05695,969
0.05861667,949
0.06028333,827
0.06195,874
0.06361666,921
0.06528334,922
0.06695,922
0.06861667,913
0.07028333,904
0.07195,946
0.07361667,875
0.07528333,967
0.07695,899
0.07861666,832
0.08028334,813
0.08195,794
0.08361667,802
0.08528333,811
0.08695,809
0.08861667,936
0.09028333,899
0.09195,861
0.09361666,925
0.09528334,814
0.09695,829
0.09861667,954
0.1002833,732
0.10195,992
0.1036167,1017
0.1052833,752
0.10695,901
0.1086167,683
0.1102833,739
0.11195,795
0.1136167,854
0.1152833,913
0.11695,947
0.1186167,996
0.1202833,999
0.12195,891
0.1236167,922
0.1252833,772
0.12695,932
0.1286167,847
0.1302833,809
0.13195,825
0.1336167,876
0.1352833,928
0.13695,891
0.1386167,873
0.1402833,837
0.14195,827
0.1436167,862
0.1452833,865
0.14695,869
0.1486167,896
0.1502833,882
0.15195,869
0.1536167,871
0.1552833,874
0.15695,778
0.1586167,703
0.1602833,849
0.16195,888
0.1636167,728
0.1652833,819
0.16695,879
0.1686167,871
0.1702833,862
0.17195,853
0.1736167,904
0.1752833,938
0.17695,972
0.1786167,870
0.1802833,1018
0.18195,882
0.1836167,849
0.1852833,831
0.18695,1012
0.1886167,1044
0.1902833,772
0.19195,946
0.1936167,1034
0.1952833,637
0.19695,792
0.1986167,807
0.2002833,745
0.20195,683
0.2036167,766
0.2052833,849
0.20695,915
0.2086167,934
0.2102833,935
0.21195,938
0.2136167,877
0.2152833,865
0.21695,1035
0.2186167,1074
0.2202833,1183
0.22195,1077
0.2236167,1005
0.2252833,1233
0.22695,1121
0.2286167,859
0.2302833,1132
0.23195,1108
0.2336167,992
0.2352833,1140
0.23695,895
0.2386167,1020
0.2402833,937
0.24195,950
0.2436167,1045
0.2452833,1036
0.24695,1027
0.2486167,1179
0.2502833,1306
0.25195,1362
0.2536167,1093
0.2552833,1070
0.25695,1360
0.2586167,1433
0.2602833,1078
0.26195,1069
0.2636333,1186
0.2652833,1156
0.26695,924
0.2686167,1078
0.2702833,978
0.27195,1071
0.2736167,1057
0.2752833,1028
0.27695,1063
0.2786167,995
0.2803,929
0.28195,974
0.2836167,1005
0.2852833,926
0.28695,848
0.2886167,1028
0.2902833,1061
0.29195,1168
0.2936167,1074
0.2952833,979
0.29695,1126
0.2986333,1082
0.3002833,1100
0.30195,1110
0.3036167,1062
0.3052833,1022
0.30695,1212
0.3086167,1275
0.3102833,1153
0.31195,1198
0.3136167,1309
0.3153,1190
0.31695,1302
0.3186333,1387
0.3203,1442
0.3219667,1583
0.3236167,1165
0.3252833,1425
0.32695,1433
0.3286167,1459
0.3302833,1124
0.33195,967
0.3336333,1002
0.3353,1160
0.33695,1211
0.3386167,1152
0.3402833,1131
0.34195,1107
0.3436167,1227
0.3452833,1225
0.34695,1138
0.3486167,1170
0.3503,1353
0.3519667,1349
0.3536333,1517
0.3552833,1507
0.35695,1342
0.3586167,1503
0.3602833,1150
0.36195,1470
0.3636167,1278
0.3652833,1729
0.36695,2919
0.3686333,3011
0.3703,3393
0.3719667,3242
0.3736333,3284
0.3753,3004
0.37695,3386
0.3786333,3256
0.3802833,3250
0.3819667,2855
0.3836333,2961
0.3853,2422
0.3869667,1936
0.3886333,1694
0.3902833,1614
0.3919667,1232
0.3936167,892
0.3953,763
0.39695,656
0.3986333,619
0.4002833,649
0.4019667,523
0.4036333,599
0.4053,696
0.4069667,647
0.4086333,525
0.4103,582
0.4119667,607
0.4136333,589
0.4153,571
0.4169667,628
0.4186333,658
0.4203,657
0.4219667,648
0.4236333,638
0.4253,717
0.4269667,751
0.4286333,743
0.4303,858
0.4319667,881
0.4336333,887
0.4353,894
0.4369667,1024
0.4386333,1056
0.4403,1030
0.4419667,1004
0.4436333,1066
0.4453,955
0.4469667,1093
0.4486333,1178
0.4503,1207
0.4519667,1236
0.4536333,1367
0.4553,1534
0.4569667,1431
0.4586333,1329
0.4603,1323
0.4619667,1420
0.4636333,1561
0.4653,1618
0.4669667,1554
0.4686333,1631
0.4703,1713
0.4719667,1785
0.4736333,1899
0.4753,1404
0.4769667,1695
0.4786333,1736
0.4803,1908
0.4819667,1691
0.4836333,1661
0.4853,1590
0.4869667,1655
0.4886333,1260
0.4903,1423
0.4919667,1082
0.4936333,1375
0.4953,1296
0.4969667,1243
0.4986333,1084
0.5003,981
0.5019667,1140
0.5036333,1025
0.5053,1090
0.5069667,1003
0.5086333,949
0.5103,895
0.5119666,910
0.5136333,1005
0.5153,1100
0.5169666,1044
0.5186333,1064
0.5203,919
0.5219667,719
0.5236334,841
0.5253,978
0.5269667,1051
0.5286334,1049
0.5303,927
0.5319667,963
0.5336334,980
0.5353,1129
0.5369667,1081
0.5386333,986
0.5403,1116
0.5419667,898
0.5436333,788
0.5453,1129
0.5469667,829
0.5486333,1000
0.5503,879
0.5519667,975
0.5536333,815
0.5553,996
0.5569667,999
0.5586333,955
0.5603,1045
0.5619667,920
0.5636333,1087
0.5653,819
0.5669667,844
0.5686333,1070
0.5703,984
0.5719666,1012
0.5736333,807
0.5753,933
0.5769666,1060
0.5786333,1050
0.5803,1117
0.5819666,997
0.5836333,947
0.5853,722
0.5869667,1002
0.5886334,957
0.5903,1013
0.5919667,1034
0.5936334,1028
0.5953,1037
0.5969667,1007
0.5986333,1002
0.6003,997
0.6019667,1020
0.6036333,890
0.6053,992
0.6069667,1085
0.6086333,923
0.6103,975
0.6119667,914
0.6136333,977
0.6153,903
0.6169667,924
0.6186333,945
0.6203,944
0.6219667,942
0.6236333,897
0.6253,928
0.6269667,890
0.6286333,964
0.6303,955
0.6319667,1005
0.6336333,945
0.6353,937
0.6369666,844
0.6386333,799
0.6403,929
0.6419666,889
0.6436333,850
0.6453,827
0.6469667,871
0.6486334,961
0.6503,965
0.6519667,939
0.6536334,913
0.6553,873
0.6569667,901
0.6586334,823
0.6603,745
0.6619667,967
0.6636333,684
0.6653,855
0.6669667,913
0.6686333,774
0.6703,847
0.6719667,823
0.6736333,837
0.6753,850
0.6769667,625
0.6786333,777
0.6803,930
0.6819667,890
0.6836333,767
0.6853,905
0.6869667,1045
0.6886333,989
0.6903,859
0.6919667,544
0.6936333,876
0.6953,753
0.6969666,907
0.6986333,740
0.7003,794
0.7019666,881
0.7036333,968
0.7053,912
0.7069666,861
0.7086333,866
0.7103,820
0.7119667,774
0.7136334,802
0.7153,808
0.7169667,819
0.7186334,831
0.7203,986
0.7219667,947
0.7236333,736
0.7253,695
0.7269667,1022
0.7286333,915
0.7303,933
0.7319667,871
0.7336333,833
0.7353,916
0.7369667,866
0.7386333,718
0.7403,808
0.7419667,903
0.7436333,820
0.7453,904
0.7469667,747
0.7486333,918
0.7503,969
0.7519667,906
0.7536333,972
0.7553,1083
0.7569667,802
0.7586333,889
0.7603,859
0.7619666,821
0.7636333,793
0.7653,813
0.7669666,849
0.7686333,866
0.7703,882
0.7719667,856
0.7736334,830
0.7753,932
0.7769667,886
0.7786334,840
0.7803,847
0.7819667,854
0.7836334,778
0.7853,703
0.7869667,769
0.7886333,835
0.7903,801
0.7919667,766
0.7936333,954
0.7953,1017
0.7969667,729
0.7986333,1032
0.8003,887
0.8019667,782
0.8036333,892
0.8053,863
0.8069667,905
0.8086333,848
0.8103,791
0.8119667,921
0.8136333,955
0.8153,873
0.8169667,1004
0.8186333,792
0.8203,800
0.8219666,692
0.8236333,790
0.8253,914
0.8269666,904
0.8286333,966
0.8303,663
0.8319666,876
0.8336333,806
0.8353,844
0.8369667,891
0.8386334,889
0.8403,921
0.8419667,638
0.8436334,1015
0.8453,896
0.8469667,889
0.8486333,891
0.8503,797
0.8519667,841
0.8536333,853
0.8553,977
0.8569667,948
0.8586333,1072
0.8603,679
0.8619667,998
0.8636333,871
0.8653,821
0.8669667,749
0.8686333,879
0.8703,836
0.8719667,793
0.8736333,693
0.8753,879
0.8769667,930
0.8786333,960
0.8803,951
0.8819667,999
0.8836333,978
0.8853,958
0.8869666,1130
0.8886333,1174
0.8903,1211
0.8919666,1179
0.8936333,1147
0.8953,1155
0.8969667,1208
0.8986334,1077
0.9003,1102
0.9019667,1166
0.9036334,1230
0.9053,1189
0.9069667,1148
0.9086334,1133
0.9103,1118
0.9119667,1102
0.9136333,1199
0.9153,1191
0.9169667,1197
0.9186333,1204
0.9203,1042
0.9219667,1141
0.9236333,1393
0.9253,1292
0.9269667,1196
0.9286333,973
0.9303,944
0.9319667,1178
0.9336333,1177
0.9353,1287
0.9369667,1097
0.9386333,1301
0.9403,1285
0.9419667,1193
0.9436333,1224
0.9453,1158
0.9469666,1143
0.9486333,1138
0.9503,1132
0.9519666,1153
0.9536333,1037
0.9553,947
0.9569666,1090
0.9586333,913
0.9603,1052
0.9619667,943
0.9636334,935
0.9653,927
0.9669667,955
0.9686334,983
0.9703,971
0.9719667,959
0.9736333,911
0.9753,862
0.9769667,1017
0.9786333,824
0.9803,906
0.9819667,987
0.9836333,791
0.9853,869
0.9869667,885
0.9886333,826
0.9903,791
0.9919667,841
0.9936333,735
0.9953,588
0.9969667,817
0.9986333,775
1.0003,604
1.001967,647
1.003633,936
1.0053,831
1.006967,796
1.008633,1031
1.0103,984
1.011967,1133
1.013633,934
1.0153,1010
1.016967,941
1.018633,769
1.0203,662
1.021967,865
1.023633,756
1.0253,771
1.026967,786
1.028633,798
1.0303,811
1.031967,833
1.033633,762
1.0353,827
1.036967,891
1.038633,872
1.0403,743
1.041967,1082
1.043633,1191
1.0453,937
1.046967,898
1.048633,591
1.0503,801
1.051967,815
1.053633,842
1.0553,830
1.056967,818
1.058633,988
1.0603,1043
1.061967,975
1.063633,907
1.0653,1001
1.066967,1100
1.068633,817
1.0703,999
1.071967,835
1.073633,708
1.0753,772
1.076967,850
1.078633,899
1.0803,948
1.081967,877
1.083633,905
1.0853,895
1.086967,873
1.088633,852
1.0903,876
1.091967,769
1.093633,839
1.0953,947
1.096967,937
1.098633,971
1.1003,783
1.101967,930
1.103633,690
1.1053,817
1.106967,1013
1.108633,949
1.1103,834
1.111967,943
1.113633,699
1.1153,866
1.116967,749
1.118633,844
1.1203,800
1.121967,757
1.123633,735
1.1253,743
1.126967,752
1.128633,791
1.1303,831
1.131967,818
1.133633,805
1.1353,848
1.136967,785
1.138633,745
1.1403,890
1.141967,868
1.143633,895
1.1453,899
1.146967,917
1.148633,934
1.1503,868
1.151967,822
1.153633,777
1.1553,820
1.156967,840
1.158633,766
1.1603,722
1.161967,677
1.163633,757
1.1653,812
1.166967,864
1.168633,843
1.1703,822
1.171967,762
1.173633,901
1.1753,946
1.176967,831
1.178633,792
1.1803,786
1.181967,826
1.183633,777
1.1853,739
1.186967,700
1.188633,745
1.1903,776
1.191967,796
1.193633,578
1.1953,841
1.196967,764
1.198633,696
