"SampleName","A2Rd2_02-65"
"Target Mass 1",
"Column Name","IA-3 (3um, 4.6X100)"
"Channel","QDa 1: SIR Ch2"
0.00195,520
0.003616667,678
0.005283333,820
0.00695,785
0.008616666,937
0.01028333,942
0.01195,879
0.01361667,995
0.01528333,979
0.01695,1018
0.01861667,1015
0.02028333,980
0.02195,944
0.02361667,913
0.02528333,848
0.02695,904
0.02861667,827
0.03028333,1055
0.03195,1024
0.03361667,826
0.03528333,813
0.03695,975
0.03861667,1157
0.04028333,1366
0.04195,1166
0.04361667,1046
0.04528333,1060
0.04695,1073
0.04861667,1004
0.05028334,1014
0.05195,863
0.05361667,1070
0.05528333,1100
0.05695,1023
0.05861667,940
0.06028333,1056
0.06195,1060
0.06361666,1180
0.06528334,1214
0.06695,969
0.06861667,1237
0.07028333,1056
0.07195,1007
0.07361667,1095
0.07528333,946
0.07695,1002
0.07861666,1042
0.08028334,992
0.08195,1095
0.08361667,1121
0.08528333,980
0.08695,982
0.08861667,888
0.09028333,1019
0.09195,1080
0.09361666,893
0.09528334,1082
0.09695,1166
0.09861667,992
0.1002833,1047
0.10195,1056
0.1036167,1085
0.1052833,967
0.10695,1104
0.1086167,1120
0.1102833,1010
0.11195,788
0.1136167,1068
0.1152833,968
0.11695,974
0.1186167,1030
0.1202833,1005
0.12195,980
0.1236167,1064
0.1252833,1032
0.12695,1069
0.1286167,1088
0.1302833,1107
0.13195,934
0.1336167,1031
0.1352833,1116
0.13695,1071
0.1386167,833
0.1402833,941
0.14195,974
0.1436167,1083
0.1452833,1127
0.14695,921
0.1486167,904
0.1502833,990
0.15195,940
0.1536167,920
0.1552833,929
0.15695,912
0.1586167,912
0.1602833,911
0.16195,907
0.1636167,925
0.1652833,884
0.16695,850
0.1686167,1032
0.1702833,1036
0.17195,1041
0.1736167,958
0.1752833,1014
0.17695,752
0.1786167,845
0.1802833,866
0.18195,878
0.1836167,890
0.1852833,965
0.18695,948
0.1886167,930
0.1902833,996
0.19195,947
0.1936167,898
0.1952833,1001
0.19695,962
0.1986167,938
0.2002833,970
0.20195,1002
0.2036167,1026
0.2052833,1038
0.20695,1060
0.2086167,1037
0.2102833,1014
0.21195,1218
0.2136167,1287
0.2152833,1180
0.21695,1150
0.2186167,1159
0.2202833,1168
0.22195,1135
0.2236167,1136
0.2252833,1126
0.22695,1170
0.2286167,1208
0.2302833,1245
0.23195,1216
0.2336167,1363
0.2352833,1388
0.23695,1470
0.2386167,1435
0.2402833,1464
0.24195,1324
0.2436167,1154
0.2452833,1250
0.24695,1491
0.2486167,1406
0.2502833,1338
0.25195,1534
0.2536167,1351
0.2552833,1658
0.25695,1634
0.2586167,1311
0.2602833,1579
0.26195,1532
0.2636167,1401
0.2652833,1298
0.26695,1451
0.2686167,1334
0.2702833,1342
0.27195,1112
0.2736167,1167
0.2752833,1204
0.27695,1027
0.2786167,1388
0.2803,1456
0.28195,1241
0.2836167,1350
0.2852833,1264
0.28695,1173
0.2886167,1110
0.2902833,1181
0.29195,1234
0.2936167,946
0.2952833,1332
0.29695,1141
0.2986333,1450
0.3002833,1451
0.30195,1221
0.3036167,1018
0.3052833,1338
0.30695,1282
0.3086167,1331
0.3102833,1270
0.31195,1267
0.3136167,1245
0.3153,1420
0.31695,1394
0.3186167,1390
0.3202833,1386
0.32195,1591
0.3236167,1656
0.3252833,1606
0.32695,1510
0.3286167,1402
0.3302833,1576
0.33195,1345
0.3336333,1326
0.3352833,1155
0.33695,1232
0.3386167,1305
0.3402833,1243
0.3419667,1181
0.3436167,1217
0.3452833,1253
0.34695,1205
0.3486167,1267
0.3503,1297
0.35195,1350
0.3536167,1317
0.3553,1283
0.35695,1255
0.3586167,1385
0.3602833,1388
0.36195,1469
0.3636167,1414
0.3653,1568
0.36695,2175
0.3686333,2563
0.3703,2955
0.3719667,2832
0.3736167,2777
0.3753,2690
0.37695,2445
0.3786333,2686
0.3803,2689
0.3819667,2537
0.3836167,2256
0.3853,2213
0.38695,2015
0.3886333,1640
0.3902833,1469
0.3919667,1104
0.3936167,914
0.3953,723
0.3969667,579
0.3986333,540
0.4002833,538
0.4019667,580
0.4036333,531
0.4053,545
0.40695,416
0.4086333,515
0.4103,594
0.4119667,647
0.4136333,539
0.4153,672
0.41695,497
0.4186333,678
0.4203,868
0.4219667,778
0.4236333,664
0.4253,732
0.4269667,870
0.4286333,837
0.4303,704
0.4319667,775
0.4336333,782
0.4353,835
0.4369667,873
0.4386333,911
0.4403,902
0.4419667,1017
0.4436333,1239
0.4453,1268
0.4469667,1035
0.4486333,1241
0.4503,1180
0.4519667,1025
0.4536333,1273
0.4553,1307
0.4569667,1201
0.4586333,1296
0.4603,1158
0.4619667,1168
0.4636333,1419
0.4653,1324
0.4669667,1361
0.4686333,1410
0.4703,1219
0.4719667,1293
0.4736333,1366
0.4753,1531
0.4769667,1457
0.4786333,1368
0.4803,1340
0.4819667,1138
0.4836333,1424
0.4853,1482
0.4869667,1323
0.4886333,1410
0.4903,1206
0.4919667,1246
0.4936333,1092
0.4953,1354
0.4969667,1386
0.4986333,1401
0.5003,1038
0.5019667,1199
0.5036333,998
0.5053,1028
0.5069667,796
0.5086333,946
0.5103,923
0.5119666,885
0.5136333,1076
0.5153,1147
0.5169666,799
0.5186333,933
0.5203,957
0.5219667,876
0.5236334,1077
0.5253,1059
0.5269667,1050
0.5286334,1059
0.5303,885
0.5319667,1005
0.5336334,949
0.5353,893
0.5369667,981
0.5386333,976
0.5403,971
0.5419667,838
0.5436333,869
0.5453,959
0.5469667,1000
0.5486333,1052
0.5503,1101
0.5519667,1083
0.5536333,851
0.5553,1104
0.5569667,983
0.5586333,834
0.5603,1023
0.5619667,976
0.5636333,905
0.5653,839
0.5669667,895
0.5686333,952
0.5703,800
0.5719666,737
0.5736333,673
0.5753,967
0.5769666,906
0.5786333,1010
0.5803,1017
0.5819666,1024
0.5836333,1141
0.5853,818
0.5869667,940
0.5886334,1093
0.5903,960
0.5919667,972
0.5936334,983
0.5953,759
0.5969667,1083
0.5986333,1060
0.6003,865
0.6019667,930
0.6036333,913
0.6053,940
0.6069667,1009
0.6086333,1056
0.6103,1073
0.6119667,1054
0.6136333,1035
0.6153,1068
0.6169667,1101
0.6186333,1034
0.6203,968
0.6219667,1141
0.6236333,1166
0.6253,1054
0.6269667,905
0.6286333,1082
0.6303,1271
0.6319667,1172
0.6336333,1207
0.6353,1108
0.6369666,1171
0.6386333,1176
0.6403,1015
0.6419666,1261
0.6436333,1148
0.6453,1101
0.6469667,1000
0.6486334,1078
0.6503,744
0.6519667,1003
0.6536334,1234
0.6553,991
0.6569667,1224
0.6586334,1137
0.6603,1192
0.6619667,1144
0.6636333,1084
0.6653,976
0.6669667,1046
0.6686333,923
0.6703,1182
0.6719667,1609
0.6736333,1660
0.6753,2000
0.6769667,2406
0.6786333,3086
0.6803,3534
0.6819667,4812
0.6836333,5863
0.6853,7702
0.6869667,9520
0.6886333,11584
0.6903,14216
0.6919667,16200
0.6936333,19516
0.6953,19828
0.6969666,22996
0.6986333,23444
0.7003,24872
0.7019666,26564
0.7036333,25728
0.7053,26796
0.7069666,25500
0.7086333,25356
0.7103,24136
0.7119667,23772
0.7136334,24124
0.7153,22612
0.7169667,23192
0.7186334,22536
0.7203,21708
0.7219667,21432
0.7236333,21364
0.7253,21872
0.7269667,19668
0.7286333,19308
0.7303,17152
0.7319667,16012
0.7336333,14192
0.7353,12916
0.7369667,11304
0.7386333,11076
0.7403,9312
0.7419667,8119
0.7436333,7109
0.7453,6463
0.7469667,5475
0.7486333,4659
0.7503,4655
0.7519667,4183
0.7536333,3744
0.7553,2996
0.7569667,2975
0.7586333,2838
0.7603,2685
0.7619666,2620
0.7636333,1778
0.7653,1984
0.7669666,2078
0.7686333,1683
0.7703,1954
0.7719667,2154
0.7736334,2020
0.7753,2097
0.7769667,2285
0.7786334,2782
0.7803,3546
0.7819667,4735
0.7836334,5774
0.7853,6129
0.7869667,8472
0.7886333,9872
0.7903,12548
0.7919667,15836
0.7936333,18896
0.7953,20724
0.7969667,24068
0.7986333,27084
0.8003,31376
0.8019667,29888
0.8036333,32164
0.8053,33632
0.8069667,33376
0.8086333,31760
0.8103,32880
0.8119667,31228
0.8136333,30296
0.8153,28368
0.8169667,28452
0.8186333,27744
0.8203,26656
0.8219666,25508
0.8236333,27028
0.8253,26712
0.8269666,26628
0.8286333,26228
0.8303,26304
0.8319666,23832
0.8336333,24248
0.8353,23372
0.8369667,22048
0.8386334,20824
0.8403,19056
0.8419667,17396
0.8436334,15296
0.8453,13848
0.8469667,12992
0.8486333,11336
0.8503,9696
0.8519667,9364
0.8536333,8732
0.8553,7187
0.8569667,6138
0.8586333,5524
0.8603,5484
0.8619667,4856
0.8636333,4215
0.8653,3953
0.8669667,3815
0.8686333,3058
0.8703,2958
0.8719667,3146
0.8736333,2318
0.8753,2855
0.8769667,2105
0.8786333,2436
0.8803,2412
0.8819667,2375
0.8836333,2762
0.8853,2776
0.8869666,2769
0.8886333,2557
0.8903,2720
0.8919666,2842
0.8936333,2532
0.8953,2613
0.8969667,2511
0.8986334,2575
0.9003,2301
0.9019667,2486
0.9036334,2115
0.9053,2426
0.9069667,2446
0.9086334,2258
0.9103,2145
0.9119667,2208
0.9136333,2098
0.9153,2147
0.9169667,1999
0.9186333,2134
0.9203,1864
0.9219667,1900
0.9236333,2050
0.9253,1700
0.9269667,1787
0.9286333,1874
0.9303,1903
0.9319667,1932
0.9336333,1840
0.9353,1748
0.9369667,1565
0.9386333,2003
0.9403,1885
0.9419667,1766
0.9436333,1875
0.9453,1821
0.9469666,2223
0.9486333,2284
0.9503,2196
0.9519666,2751
0.9536333,2966
0.9553,3298
0.9569666,4074
0.9586333,4949
0.9603,6553
0.9619667,7459
0.9636334,8828
0.9653,11428
0.9669667,13392
0.9686334,16728
0.9703,20136
0.9719667,22100
0.9736333,27048
0.9753,30084
0.9769667,33920
0.9786333,38304
0.9803,43024
0.9819667,46160
0.9836333,47664
0.9853,52192
0.9869667,51792
0.9886333,54144
0.9903,56752
0.9919667,57200
0.9936333,59280
0.9953,58800
0.9969667,55584
0.9986333,57056
1.0003,55104
1.001967,52816
1.003633,53648
1.0053,51840
1.006967,51904
1.008633,51664
1.0103,51632
1.011967,51616
1.013633,50272
1.0153,51296
1.016967,51136
1.018633,50496
1.0203,49872
1.021967,51616
1.023633,49664
1.0253,50336
1.026967,49488
1.028633,47456
1.0303,46176
1.031967,44096
1.033633,39840
1.0353,38992
1.036967,37232
1.038633,35536
1.0403,31672
1.041967,29892
1.043633,28704
1.0453,26704
1.046967,24264
1.048633,21608
1.0503,20960
1.051967,19956
1.053633,20060
1.0553,18252
1.056967,18360
1.058633,18384
1.0603,17964
1.061967,18064
1.063633,18188
1.0653,18312
1.066967,17760
1.068633,19104
1.0703,18844
1.071967,20208
1.073633,19672
1.0753,21404
1.076967,20820
1.078633,21412
1.0803,22588
1.081967,22160
1.083633,22392
1.0853,20356
1.086967,21128
1.088633,20680
1.0903,19888
1.091967,20936
1.093633,19736
1.0953,18632
1.096967,20096
1.098633,18972
1.1003,18964
1.101967,19064
1.103633,17868
1.1053,19480
1.106967,18288
1.108633,17812
1.1103,18128
1.111967,16868
1.113633,17220
1.1153,17616
1.116967,17128
1.118633,16052
1.1203,16004
1.121967,14876
1.123633,15240
1.1253,14604
1.126967,13480
1.128633,12704
1.1303,12028
1.131967,11668
1.133633,10544
1.1353,10420
1.136967,9432
1.138633,8924
1.1403,8388
1.141967,7938
1.143633,7160
1.1453,6514
1.146967,6119
1.148633,6018
1.1503,5920
1.151967,5565
1.153633,5516
1.1553,4669
1.156967,4337
1.158633,4228
1.1603,4114
1.161967,3890
1.163633,3131
1.1653,3318
1.166967,3148
1.168633,3209
1.1703,2866
1.171967,2831
1.173633,3251
1.1753,2616
1.176967,2502
1.178633,2656
1.1803,2636
1.181967,2621
1.183633,2389
1.1853,2308
1.186967,2575
1.188633,2445
1.1903,2385
1.191967,2656
1.193633,2193
1.1953,2410
1.196967,2627
1.198633,3129
