"SampleName","A2Rd2_02-35"
"Target Mass 1",
"Column Name","IA-3 (3um, 4.6X100)"
"Channel","QDa 1: SIR Ch1"
0.00195,490
0.003616667,671
0.005283333,702
0.00695,628
0.008616666,525
0.01028333,586
0.01195,578
0.01361667,586
0.01528333,611
0.01695,636
0.01861667,548
0.02028333,588
0.02195,429
0.02361667,588
0.02528333,520
0.02695,660
0.02861667,682
0.03028333,493
0.03195,778
0.03361667,387
0.03528333,610
0.03695,517
0.03861667,650
0.04028333,498
0.04195,498
0.04361667,629
0.04528333,568
0.04695,506
0.04861667,581
0.05028334,491
0.05195,588
0.05361667,509
0.05528333,479
0.05695,566
0.05861667,415
0.06028333,522
0.06195,598
0.06361666,520
0.06528334,477
0.06695,524
0.06861667,571
0.07028333,566
0.07195,546
0.07361667,527
0.07528333,482
0.07695,499
0.07861666,517
0.08028334,485
0.08195,537
0.08361667,589
0.08528333,545
0.08695,502
0.08861667,586
0.09028333,592
0.09195,633
0.09361666,622
0.09528334,612
0.09695,555
0.09861667,577
0.1002833,512
0.10195,521
0.1036167,500
0.1052833,478
0.10695,545
0.1086167,654
0.1102833,676
0.11195,552
0.1136167,361
0.1152833,845
0.11695,687
0.1186167,545
0.1202833,603
0.12195,587
0.1236167,620
0.1252833,544
0.12695,549
0.1286167,563
0.1302833,454
0.13195,510
0.1336167,509
0.1352833,508
0.13695,524
0.1386167,540
0.1402833,507
0.14195,474
0.1436167,533
0.1452833,584
0.14695,612
0.1486167,593
0.1502833,501
0.15195,542
0.1536167,542
0.1552833,555
0.15695,491
0.1586167,567
0.1602833,475
0.16195,502
0.1636167,530
0.1652833,492
0.16695,533
0.1686167,500
0.1702833,466
0.17195,545
0.1736167,512
0.1752833,512
0.17695,597
0.1786167,532
0.1802833,467
0.18195,503
0.1836167,513
0.1852833,522
0.18695,529
0.1886167,535
0.1902833,504
0.19195,445
0.1936167,488
0.1952833,517
0.19695,420
0.1986167,447
0.2002833,484
0.20195,478
0.2036167,472
0.2052833,487
0.20695,484
0.2086167,481
0.2102833,450
0.21195,536
0.2136167,619
0.2152833,569
0.21695,501
0.2186167,534
0.2202833,493
0.22195,425
0.2236167,604
0.2252833,647
0.22695,588
0.2286333,638
0.2302833,487
0.23195,537
0.2336167,633
0.2352833,487
0.23695,524
0.2386167,632
0.2402833,505
0.24195,301
0.2436167,497
0.2452833,412
0.24695,528
0.2486167,590
0.2502833,498
0.25195,491
0.2536167,499
0.2552833,506
0.25695,512
0.2586167,471
0.2602833,429
0.26195,479
0.2636333,529
0.2652833,575
0.26695,565
0.2686167,467
0.2702833,467
0.27195,439
0.2736167,411
0.2752833,515
0.27695,637
0.2786333,609
0.2803,427
0.28195,524
0.2836167,444
0.2852833,427
0.28695,409
0.2886167,581
0.2902833,608
0.29195,574
0.2936167,571
0.2952833,555
0.29695,630
0.2986333,466
0.3002833,556
0.30195,663
0.3036167,702
0.3052833,512
0.30695,595
0.3086167,581
0.3102833,521
0.31195,559
0.3136167,543
0.3153,527
0.31695,569
0.3186167,532
0.3202833,496
0.32195,494
0.3236167,606
0.3252833,638
0.3269667,565
0.3286333,537
0.3302833,509
0.33195,516
0.3336333,510
0.3352833,578
0.33695,545
0.3386333,513
0.3403,518
0.3419667,508
0.3436333,537
0.3452833,462
0.3469667,565
0.3486167,558
0.3503,551
0.35195,472
0.3536333,569
0.3553,514
0.3569667,516
0.3586333,465
0.3603,644
0.36195,738
0.3636333,811
0.3652833,1317
0.3669667,1981
0.3686333,2735
0.3703,3472
0.3719667,3676
0.3736333,3745
0.3753,4009
0.3769667,4272
0.3786333,4548
0.3803,4997
0.38195,5143
0.3836333,5174
0.3853,4259
0.3869667,3879
0.3886333,3395
0.3903,2966
0.3919667,2279
0.3936333,2123
0.3952833,1785
0.3969667,1574
0.3986333,1298
0.4003,1242
0.4019667,1237
0.4036333,1096
0.4053,1041
0.4069667,966
0.4086333,891
0.4103,974
0.4119667,1057
0.4136333,1126
0.4153,1194
0.4169667,1107
0.4186333,1073
0.4203,1039
0.4219667,1026
0.4236333,1069
0.4253,1112
0.4269667,1074
0.4286333,1035
0.4303,1471
0.4319667,1506
0.4336333,1928
0.4353,3076
0.4369667,4346
0.4386333,6796
0.4403,11768
0.4419667,18012
0.4436333,27312
0.4453,38112
0.4469667,50928
0.4486333,69280
0.4503,83568
0.4519667,98928
0.4536333,119120
0.4553,129712
0.4569667,143168
0.4586333,151104
0.4603,158208
0.4619667,159616
0.4636333,166720
0.4653,173440
0.4669667,176320
0.4686333,187136
0.4703,192256
0.4719667,203008
0.4736333,211584
0.4753,222272
0.4769667,227328
0.4786333,229888
0.4803,223104
0.4819667,210880
0.4836333,196544
0.4853,175936
0.4869667,156224
0.4886333,136320
0.4903,119696
0.4919667,98752
0.4936333,82240
0.4953,68144
0.4969667,54848
0.4986333,45280
0.5003,34784
0.5019667,27352
0.5036333,22092
0.5053,18104
0.5069667,14252
0.5086333,12232
0.5103,9644
0.5119666,8056
0.5136333,7507
0.5153,6827
0.5169666,5711
0.5186333,5340
0.5203,5077
0.5219667,4727
0.5236334,4340
0.5253,3536
0.5269667,3711
0.5286334,3312
0.5303,2889
0.5319667,3021
0.5336334,2890
0.5353,3027
0.5369667,2684
0.5386333,2840
0.5403,2641
0.5419667,2394
0.5436333,2481
0.5453,2195
0.5469667,2438
0.5486333,2005
0.5503,2297
0.5519667,2052
0.5536333,1900
0.5553,1931
0.5569667,1695
0.5586333,1731
0.5603,1620
0.5619667,1659
0.5636333,1756
0.5653,1702
0.5669667,1700
0.5686333,1385
0.5703,1598
0.5719666,1243
0.5736333,1513
0.5753,1499
0.5769666,1312
0.5786333,1440
0.5803,1291
0.5819666,1279
0.5836333,1266
0.5853,1371
0.5869667,1423
0.5886334,1474
0.5903,1363
0.5919667,1302
0.5936334,1166
0.5953,1230
0.5969667,1350
0.5986333,1151
0.6003,1414
0.6019667,1196
0.6036333,1347
0.6053,1211
0.6069667,1216
0.6086333,1125
0.6103,1034
0.6119667,1192
0.6136333,1167
0.6153,1181
0.6169667,1039
0.6186333,1087
0.6203,1135
0.6219667,1131
0.6236333,1157
0.6253,1173
0.6269667,1189
0.6286333,1084
0.6303,1031
0.6319667,1035
0.6336333,922
0.6353,875
0.6369666,989
0.6386333,951
0.6403,914
0.6419666,972
0.6436333,711
0.6453,1084
0.6469667,792
0.6486334,856
0.6503,796
0.6519667,869
0.6536334,857
0.6553,844
0.6569667,871
0.6586334,868
0.6603,868
0.6619667,869
0.6636333,838
0.6653,853
0.6669667,730
0.6686333,911
0.6703,801
0.6719667,994
0.6736333,650
0.6753,854
0.6769667,934
0.6786333,988
0.6803,925
0.6819667,778
0.6836333,669
0.6853,892
0.6869667,785
0.6886333,779
0.6903,774
0.6919667,823
0.6936333,811
0.6953,805
0.6969666,719
0.6986333,699
0.7003,666
0.7019666,652
0.7036333,674
0.7053,669
0.7069666,664
0.7086333,661
0.7103,658
0.7119667,946
0.7136334,884
0.7153,860
0.7169667,856
0.7186334,852
0.7203,807
0.7219667,860
0.7236333,797
0.7253,823
0.7269667,902
0.7286333,755
0.7303,938
0.7319667,701
0.7336333,723
0.7353,599
0.7369667,648
0.7386333,617
0.7403,586
0.7419667,833
0.7436333,788
0.7453,863
0.7469667,779
0.7486333,823
0.7503,775
0.7519667,647
0.7536333,859
0.7553,640
0.7569667,952
0.7586333,805
0.7603,680
0.7619666,875
0.7636333,815
0.7653,755
0.7669666,776
0.7686333,886
0.7703,608
0.7719667,682
0.7736334,934
0.7753,704
0.7769667,815
0.7786334,751
0.7803,667
0.7819667,812
0.7836334,784
0.7853,711
0.7869667,529
0.7886333,758
0.7903,806
0.7919667,854
0.7936333,790
0.7953,623
0.7969667,495
0.7986333,773
0.8003,686
0.8019667,726
0.8036333,836
0.8053,872
0.8069667,605
0.8086333,714
0.8103,819
0.8119667,689
0.8136333,704
0.8153,813
0.8169667,848
0.8186333,779
0.8203,848
0.8219666,820
0.8236333,793
0.8253,924
0.8269666,709
0.8286333,837
0.8303,867
0.8319666,896
0.8336333,902
0.8353,883
0.8369667,864
0.8386334,865
0.8403,867
0.8419667,901
0.8436334,934
0.8453,661
0.8469667,912
0.8486333,854
0.8503,918
0.8519667,914
0.8536333,894
0.8553,874
0.8569667,864
0.8586333,853
0.8603,846
0.8619667,900
0.8636333,792
0.8653,727
0.8669667,657
0.8686333,780
0.8703,810
0.8719667,777
0.8736333,761
0.8753,747
0.8769667,722
0.8786333,1052
0.8803,1249
0.8819667,1511
0.8836333,1924
0.8853,2055
0.8869666,2366
0.8886333,2924
0.8903,3144
0.8919666,2963
0.8936333,3175
0.8953,3387
0.8969667,3316
0.8986334,3360
0.9003,3404
0.9019667,3352
0.9036334,3299
0.9053,3545
0.9069667,3591
0.9086334,3411
0.9103,3431
0.9119667,3672
0.9136333,3649
0.9153,3221
0.9169667,3513
0.9186333,3388
0.9203,3579
0.9219667,3250
0.9236333,3590
0.9253,3605
0.9269667,3610
0.9286333,3023
0.9303,3220
0.9319667,3745
0.9336333,3261
0.9353,3116
0.9369667,3450
0.9386333,3110
0.9403,2952
0.9419667,2593
0.9436333,2761
0.9453,2777
0.9469666,2919
0.9486333,2904
0.9503,2397
0.9519666,2217
0.9536333,2383
0.9553,2237
0.9569666,2229
0.9586333,2243
0.9603,1859
0.9619667,1715
0.9636334,1952
0.9653,1573
0.9669667,1581
0.9686334,1653
0.9703,1632
0.9719667,1316
0.9736333,1289
0.9753,977
0.9769667,1140
0.9786333,1170
0.9803,930
0.9819667,988
0.9836333,929
0.9853,943
0.9869667,890
0.9886333,858
0.9903,736
0.9919667,683
0.9936333,610
0.9953,646
0.9969667,593
0.9986333,609
1.0003,624
1.001967,534
1.003633,573
1.0053,682
1.006967,461
1.008633,529
1.0103,656
1.011967,696
1.013633,528
1.0153,595
1.016967,691
1.018633,659
1.0203,539
1.021967,669
1.023633,643
1.0253,562
1.026967,518
1.028633,770
1.0303,782
1.031967,635
1.033633,786
1.0353,747
1.036967,574
1.038633,650
1.0403,600
1.041967,585
1.043633,580
1.0453,581
1.046967,582
1.048633,729
1.0503,745
1.051967,600
1.053633,552
1.0553,638
1.056967,738
1.058633,768
1.0603,733
1.061967,634
1.063633,602
1.0653,757
1.066967,659
1.068633,499
1.0703,624
1.071967,585
1.073633,546
1.0753,605
1.076967,584
1.078633,564
1.0803,666
1.081967,651
1.083633,576
1.0853,658
1.086967,624
1.088633,698
1.0903,686
1.091967,614
1.093633,629
1.0953,643
1.096967,641
1.098633,658
1.1003,587
1.101967,688
1.103633,638
1.1053,652
1.106967,564
1.108633,612
1.1103,555
1.111967,582
1.113633,609
1.1153,675
1.116967,625
1.118633,574
1.1203,678
1.121967,648
1.123633,618
1.1253,632
1.126967,600
1.128633,577
1.1303,724
1.131967,815
1.133633,756
1.1353,735
1.136967,765
1.138633,621
1.1403,798
1.141967,670
1.143633,727
1.1453,693
1.146967,452
1.148633,696
1.1503,774
1.151967,720
1.153633,732
1.1553,717
1.156967,705
1.158633,688
1.1603,736
1.161967,752
1.163633,740
1.1653,718
1.166967,930
1.168633,908
1.1703,736
1.171967,639
1.173633,758
1.1753,725
1.176967,852
1.178633,834
1.1803,798
1.181967,762
1.183633,728
1.1853,709
1.186967,690
1.188633,827
1.1903,843
1.191967,825
1.193633,829
1.1953,697
1.196967,810
1.198633,846
