"SampleName","A2Rd2_02-44"
"Target Mass 1",
"Column Name","IA-3 (3um, 4.6X100)"
"Channel","QDa 1: SIR Ch1"
0.00195,402
0.003616667,468
0.005283333,504
0.00695,461
0.008616666,418
0.01028333,513
0.01195,653
0.01361667,678
0.01528333,481
0.01695,659
0.01861667,553
0.02028333,705
0.02195,601
0.02361667,740
0.02528333,502
0.02695,516
0.02861667,536
0.03028333,531
0.03195,526
0.03361667,544
0.03528333,535
0.03695,526
0.03861667,427
0.04028333,466
0.04195,538
0.04361667,596
0.04528333,601
0.04695,496
0.04861667,576
0.05028334,555
0.05195,557
0.05361667,559
0.05528333,577
0.05695,546
0.05861667,516
0.06028333,610
0.06195,594
0.06361666,527
0.06528334,593
0.06695,601
0.06861667,491
0.07028333,552
0.07195,579
0.07361667,539
0.07528333,459
0.07695,558
0.07861666,417
0.08028334,578
0.08195,423
0.08361667,478
0.08528333,555
0.08695,581
0.08861667,576
0.09028333,572
0.09195,500
0.09361666,563
0.09528334,514
0.09695,464
0.09861667,479
0.1002833,494
0.10195,532
0.1036167,626
0.1052833,591
0.10695,511
0.1086167,448
0.1102833,476
0.11195,504
0.1136167,447
0.1152833,457
0.11695,486
0.1186167,516
0.1202833,563
0.12195,509
0.1236167,454
0.1252833,654
0.12695,680
0.1286167,561
0.1302833,588
0.13195,495
0.1336167,414
0.1352833,544
0.13695,536
0.1386167,528
0.1402833,574
0.14195,591
0.1436167,608
0.1452833,390
0.14695,533
0.1486167,514
0.1502833,513
0.15195,344
0.1536167,470
0.1552833,587
0.15695,627
0.1586167,505
0.1602833,600
0.16195,716
0.1636167,427
0.1652833,524
0.16695,447
0.1686167,440
0.1702833,651
0.17195,641
0.1736167,598
0.1752833,567
0.17695,526
0.1786167,506
0.1802833,453
0.18195,399
0.1836167,429
0.1852833,458
0.18695,451
0.1886167,427
0.1902833,402
0.19195,482
0.1936167,562
0.1952833,590
0.19695,528
0.1986167,449
0.2002833,541
0.20195,465
0.2036167,494
0.2052833,525
0.20695,566
0.2086167,559
0.2102833,553
0.21195,450
0.2136167,487
0.2152833,587
0.21695,581
0.2186167,506
0.2202833,577
0.22195,463
0.2236167,579
0.2252833,508
0.22695,620
0.2286167,523
0.2302833,463
0.23195,573
0.2336167,465
0.2352833,512
0.23695,488
0.2386167,643
0.2402833,652
0.24195,449
0.2436167,531
0.2452833,608
0.24695,423
0.2486167,577
0.2502833,561
0.25195,605
0.2536167,579
0.2552833,639
0.25695,518
0.2586167,625
0.2602833,569
0.26195,455
0.2636333,509
0.2652833,543
0.26695,525
0.2686167,448
0.2702833,485
0.27195,599
0.2736167,595
0.2752833,547
0.27695,533
0.2786167,579
0.2803,403
0.28195,485
0.2836167,514
0.2852833,482
0.28695,451
0.2886167,437
0.2902833,553
0.29195,595
0.2936167,638
0.2952833,560
0.29695,583
0.2986333,562
0.3002833,533
0.30195,640
0.3036167,630
0.3052833,593
0.30695,631
0.3086167,658
0.3102833,639
0.31195,638
0.3136167,615
0.3153,602
0.31695,493
0.3186167,585
0.3202833,670
0.32195,392
0.3236167,505
0.3252833,500
0.32695,516
0.3286167,461
0.3302833,610
0.33195,582
0.3336333,666
0.3352833,572
0.33695,531
0.3386167,619
0.3402833,444
0.34195,355
0.3436167,506
0.3452833,439
0.34695,456
0.3486167,487
0.3503,492
0.35195,419
0.3536167,542
0.3552833,609
0.35695,626
0.3586333,493
0.3602833,608
0.36195,748
0.3636167,865
0.3652833,1215
0.36695,1484
0.3686333,2224
0.3702833,3231
0.3719667,3550
0.3736167,3484
0.3753,3490
0.37695,3495
0.3786167,4414
0.3802833,4557
0.38195,4591
0.3836167,4173
0.3853,4221
0.38695,3605
0.3886333,3147
0.3902833,2967
0.3919667,2227
0.3936167,2044
0.3953,1646
0.3969667,1340
0.3986167,1150
0.4002833,1230
0.40195,1158
0.4036333,974
0.4053,1140
0.4069667,1122
0.4086333,1129
0.4103,1135
0.4119667,1108
0.4136333,1081
0.4153,1240
0.41695,1272
0.4186167,1303
0.4203,1288
0.4219667,1225
0.4236333,1275
0.4253,1326
0.4269667,1623
0.4286333,1546
0.4303,1539
0.4319667,1904
0.4336333,2382
0.4353,3677
0.4369667,5239
0.4386333,9136
0.4403,13640
0.4419667,21572
0.4436333,32680
0.4453,43168
0.4469667,61168
0.4486333,78848
0.4503,94480
0.4519667,111312
0.4536333,122288
0.4553,138944
0.4569667,147968
0.4586333,156736
0.4603,163328
0.4619667,166656
0.4636333,167616
0.4653,175680
0.4669667,174912
0.4686333,185984
0.4703,192384
0.4719667,199168
0.4736333,211712
0.4753,221120
0.4769667,223936
0.4786333,219200
0.4803,214976
0.4819667,204992
0.4836333,192960
0.4853,171456
0.4869667,150144
0.4886333,128912
0.4903,112432
0.4919667,93504
0.4936333,77024
0.4953,64448
0.4969667,52064
0.4986333,42160
0.5003,32412
0.5019667,25592
0.5036333,21812
0.5053,17024
0.5069667,13264
0.5086333,12004
0.5103,9148
0.5119666,8181
0.5136333,6724
0.5153,6322
0.5169666,6063
0.5186333,5454
0.5203,4789
0.5219667,4724
0.5236334,4406
0.5253,3653
0.5269667,3847
0.5286334,3590
0.5303,3641
0.5319667,3269
0.5336334,2892
0.5353,2869
0.5369667,3080
0.5386333,2769
0.5403,2872
0.5419667,2393
0.5436333,2759
0.5453,2269
0.5469667,2243
0.5486333,2384
0.5503,2080
0.5519667,2228
0.5536333,1889
0.5553,2239
0.5569667,1916
0.5586333,1559
0.5603,1756
0.5619667,1509
0.5636333,1709
0.5653,1497
0.5669667,1528
0.5686333,1325
0.5703,1296
0.5719666,1440
0.5736333,1403
0.5753,1369
0.5769666,1335
0.5786333,1379
0.5803,1401
0.5819666,1293
0.5836333,1185
0.5853,1140
0.5869667,1192
0.5886334,1328
0.5903,1449
0.5919667,1467
0.5936334,1302
0.5953,1481
0.5969667,1307
0.5986333,1294
0.6003,1475
0.6019667,1271
0.6036333,1532
0.6053,1344
0.6069667,1174
0.6086333,1293
0.6103,1380
0.6119667,1277
0.6136333,1282
0.6153,1164
0.6169667,1235
0.6186333,1117
0.6203,1168
0.6219667,1204
0.6236333,1240
0.6253,1295
0.6269667,1115
0.6286333,1067
0.6303,1056
0.6319667,998
0.6336333,1047
0.6353,941
0.6369666,881
0.6386333,801
0.6403,879
0.6419666,924
0.6436333,918
0.6453,811
0.6469667,822
0.6486334,1013
0.6503,936
0.6519667,909
0.6536334,886
0.6553,930
0.6569667,922
0.6586334,914
0.6603,750
0.6619667,758
0.6636333,735
0.6653,712
0.6669667,752
0.6686333,791
0.6703,860
0.6719667,822
0.6736333,837
0.6753,768
0.6769667,744
0.6786333,721
0.6803,749
0.6819667,751
0.6836333,753
0.6853,772
0.6869667,768
0.6886333,763
0.6903,732
0.6919667,752
0.6936333,751
0.6953,635
0.6969666,747
0.6986333,754
0.7003,750
0.7019666,640
0.7036333,831
0.7053,771
0.7069666,718
0.7086333,697
0.7103,726
0.7119667,668
0.7136334,610
0.7153,670
0.7169667,843
0.7186334,837
0.7203,673
0.7219667,736
0.7236333,741
0.7253,636
0.7269667,597
0.7286333,609
0.7303,621
0.7319667,564
0.7336333,506
0.7353,747
0.7369667,706
0.7386333,668
0.7403,627
0.7419667,634
0.7436333,673
0.7453,712
0.7469667,718
0.7486333,725
0.7503,592
0.7519667,759
0.7536333,668
0.7553,784
0.7569667,782
0.7586333,652
0.7603,778
0.7619666,609
0.7636333,549
0.7653,751
0.7669666,785
0.7686333,827
0.7703,637
0.7719667,584
0.7736334,615
0.7753,689
0.7769667,764
0.7786334,761
0.7803,738
0.7819667,658
0.7836334,798
0.7853,625
0.7869667,572
0.7886333,797
0.7903,715
0.7919667,581
0.7936333,705
0.7953,575
0.7969667,545
0.7986333,500
0.8003,565
0.8019667,642
0.8036333,673
0.8053,568
0.8069667,648
0.8086333,574
0.8103,655
0.8119667,689
0.8136333,673
0.8153,632
0.8169667,530
0.8186333,451
0.8203,550
0.8219666,693
0.8236333,646
0.8253,543
0.8269666,623
0.8286333,534
0.8303,552
0.8319666,527
0.8336333,519
0.8353,510
0.8369667,575
0.8386334,615
0.8403,590
0.8419667,565
0.8436334,587
0.8453,653
0.8469667,486
0.8486333,593
0.8503,601
0.8519667,563
0.8536333,412
0.8553,535
0.8569667,682
0.8586333,571
0.8603,590
0.8619667,591
0.8636333,552
0.8653,609
0.8669667,562
0.8686333,464
0.8703,509
0.8719667,463
0.8736333,627
0.8753,659
0.8769667,706
0.8786333,583
0.8803,1075
0.8819667,1104
0.8836333,1120
0.8853,1213
0.8869666,1307
0.8886333,1454
0.8903,1681
0.8919666,1755
0.8936333,1755
0.8953,1566
0.8969667,1864
0.8986334,1576
0.9003,1623
0.9019667,1601
0.9036334,1612
0.9053,1624
0.9069667,1586
0.9086334,1548
0.9103,1548
0.9119667,1550
0.9136333,1816
0.9153,1844
0.9169667,1900
0.9186333,1711
0.9203,1662
0.9219667,1652
0.9236333,1656
0.9253,1660
0.9269667,1764
0.9286333,1723
0.9303,1682
0.9319667,1752
0.9336333,1839
0.9353,1560
0.9369667,1670
0.9386333,1520
0.9403,1442
0.9419667,1602
0.9436333,1580
0.9453,1682
0.9469666,1538
0.9486333,1507
0.9503,1671
0.9519666,1313
0.9536333,1424
0.9553,1100
0.9569666,1370
0.9586333,1435
0.9603,1242
0.9619667,1113
0.9636334,1088
0.9653,1042
0.9669667,1086
0.9686334,814
0.9703,1045
0.9719667,743
0.9736333,781
0.9753,688
0.9769667,716
0.9786333,668
0.9803,736
0.9819667,518
0.9836333,602
0.9853,575
0.9869667,676
0.9886333,629
0.9903,530
0.9919667,600
0.9936333,565
0.9953,439
0.9969667,527
0.9986333,492
1.0003,548
1.001967,478
1.003633,490
1.0053,502
1.006967,448
1.008633,519
1.0103,490
1.011967,480
1.013633,470
1.0153,501
1.016967,455
1.018633,473
1.0203,548
1.021967,524
1.023633,467
1.0253,533
1.026967,487
1.028633,441
1.0303,520
1.031967,504
1.033633,442
1.0353,380
1.036967,542
1.038633,360
1.0403,388
1.041967,541
1.043633,479
1.0453,562
1.046967,484
1.048633,533
1.0503,446
1.051967,469
1.053633,422
1.0553,474
1.056967,527
1.058633,490
1.0603,440
1.061967,458
1.063633,477
1.0653,480
1.066967,444
1.068633,408
1.0703,486
1.071967,389
1.073633,535
1.0753,470
1.076967,436
1.078633,452
1.0803,485
1.081967,519
1.083633,543
1.0853,531
1.086967,522
1.088633,453
1.0903,445
1.091967,501
1.093633,529
1.0953,557
1.096967,455
1.098633,533
1.1003,478
1.101967,555
1.103633,554
1.1053,553
1.106967,499
1.108633,586
1.1103,438
1.111967,516
1.113633,467
1.1153,511
1.116967,504
1.118633,497
1.1203,507
1.121967,516
1.123633,610
1.1253,583
1.126967,644
1.128633,534
1.1303,577
1.131967,401
1.133633,465
1.1353,509
1.136967,487
1.138633,679
1.1403,638
1.141967,470
1.143633,577
1.1453,516
1.146967,572
1.148633,507
1.1503,477
1.151967,472
1.153633,422
1.1553,372
1.156967,439
1.158633,506
1.1603,545
1.161967,505
1.163633,466
1.1653,483
1.166967,500
1.168633,500
1.1703,498
1.171967,497
1.173633,499
1.1753,501
1.176967,471
1.178633,655
1.1803,633
1.181967,616
1.183633,517
1.1853,464
1.186967,543
1.188633,571
1.1903,534
1.191967,513
1.193633,608
1.1953,609
1.196967,565
1.198633,512
