"SampleName","A2Rd2_02-46"
"Target Mass 1",
"Column Name","IA-3 (3um, 4.6X100)"
"Channel","QDa 1: SIR Ch2"
0.00195,609
0.003616667,691
0.005283333,510
0.00695,677
0.008616666,911
0.01028333,942
0.01195,829
0.01361667,817
0.01528333,805
0.01695,823
0.01861667,899
0.02028333,862
0.02195,825
0.02361667,840
0.02528333,793
0.02695,914
0.02861667,1036
0.03028333,1046
0.03195,856
0.03361667,1115
0.03528333,943
0.03695,863
0.03861667,1132
0.04028333,856
0.04195,982
0.04361667,955
0.04528333,998
0.04695,828
0.04861667,949
0.05028334,1068
0.05195,1050
0.05361667,1038
0.05528333,915
0.05695,879
0.05861667,958
0.06028333,964
0.06195,969
0.06361666,973
0.06528334,911
0.06695,960
0.06861667,975
0.07028333,847
0.07195,1118
0.07361667,1036
0.07528333,845
0.07695,1134
0.07861666,906
0.08028334,863
0.08195,860
0.08361667,850
0.08528333,1090
0.08695,1057
0.08861667,896
0.09028333,1014
0.09195,1081
0.09361666,956
0.09528334,873
0.09695,999
0.09861667,970
0.1002833,941
0.10195,770
0.1036167,816
0.1052833,962
0.10695,909
0.1086167,841
0.1102833,967
0.11195,879
0.1136167,886
0.1152833,898
0.11695,910
0.1186167,888
0.1202833,866
0.12195,871
0.1236167,875
0.1252833,838
0.12695,801
0.1286167,798
0.1302833,876
0.13195,881
0.1336167,871
0.1352833,885
0.13695,898
0.1386167,911
0.1402833,924
0.14195,839
0.1436167,806
0.1452833,920
0.14695,841
0.1486167,861
0.1502833,732
0.15195,818
0.1536167,945
0.1552833,906
0.15695,825
0.1586167,968
0.1602833,831
0.16195,846
0.1636167,984
0.1652833,954
0.16695,886
0.1686167,796
0.1702833,900
0.17195,943
0.1736167,603
0.1752833,965
0.17695,812
0.1786167,971
0.1802833,881
0.18195,1017
0.1836167,992
0.1852833,966
0.18695,900
0.1886167,848
0.1902833,904
0.19195,888
0.1936167,826
0.1952833,845
0.19695,858
0.1986167,871
0.2002833,928
0.20195,978
0.2036167,1023
0.2052833,956
0.20695,821
0.2086167,847
0.2102833,873
0.21195,979
0.2136167,945
0.2152833,912
0.21695,977
0.2186167,994
0.2202833,1113
0.22195,1094
0.2236167,1174
0.2252833,1171
0.22695,1222
0.2286167,1038
0.2302833,1012
0.23195,1216
0.2336167,1133
0.2352833,1120
0.23695,1296
0.2386167,1248
0.2402833,1230
0.24195,1222
0.2436167,1236
0.2452833,942
0.24695,1070
0.2486167,1210
0.2502833,1085
0.25195,1273
0.2536167,1201
0.2552833,1151
0.25695,1127
0.2586167,1104
0.2602833,1069
0.26195,1033
0.2636333,1130
0.2652833,1070
0.26695,1115
0.2686167,1167
0.2702833,1134
0.27195,1101
0.2736167,1019
0.2752833,1016
0.27695,914
0.2786167,1124
0.2803,1277
0.28195,1337
0.2836333,988
0.2852833,883
0.28695,994
0.2886167,927
0.2902833,860
0.29195,1129
0.2936167,1067
0.2952833,1002
0.29695,1082
0.2986333,936
0.3002833,1126
0.30195,1057
0.3036167,1179
0.3052833,1128
0.30695,1152
0.3086167,1176
0.3102833,1127
0.31195,1091
0.3136167,1301
0.3153,1253
0.31695,1434
0.3186333,1347
0.3202833,1317
0.32195,1260
0.3236167,1302
0.3252833,1344
0.3269667,1118
0.3286167,1217
0.3303,1551
0.33195,1413
0.3336333,1414
0.3353,1126
0.33695,1266
0.3386167,1145
0.3402833,1233
0.34195,1320
0.3436333,1182
0.3452833,1382
0.3469667,1330
0.3486167,1289
0.3503,1247
0.3519667,1288
0.3536167,1461
0.3552833,1485
0.35695,1292
0.3586167,1348
0.3603,1427
0.3619667,1288
0.3636333,1849
0.3653,1940
0.3669667,2973
0.3686333,3721
0.3703,3456
0.3719667,3210
0.3736333,3403
0.3752833,2759
0.3769667,3165
0.3786167,3343
0.3803,3109
0.3819667,2824
0.3836333,2402
0.3853,2265
0.3869667,1636
0.3886333,1665
0.3903,1281
0.3919667,1001
0.3936333,879
0.3953,687
0.3969667,522
0.3986333,558
0.4003,584
0.4019667,410
0.4036333,668
0.4053,365
0.4069667,540
0.4086333,474
0.4103,648
0.4119667,642
0.4136333,742
0.4153,624
0.4169667,691
0.4186333,758
0.4203,740
0.4219667,725
0.4236333,739
0.4253,742
0.4269667,938
0.4286333,802
0.4303,665
0.4319667,960
0.4336333,787
0.4353,1079
0.4369667,916
0.4386333,1199
0.4403,1102
0.4419667,1218
0.4436333,1039
0.4453,1092
0.4469667,1089
0.4486333,1099
0.4503,1109
0.4519667,1152
0.4536333,1195
0.4553,1309
0.4569667,1270
0.4586333,1346
0.4603,1321
0.4619667,1573
0.4636333,1557
0.4653,1409
0.4669667,1509
0.4686333,1271
0.4703,1653
0.4719667,1495
0.4736333,1497
0.4753,1669
0.4769667,1572
0.4786333,1544
0.4803,1295
0.4819667,1369
0.4836333,1342
0.4853,1141
0.4869667,1335
0.4886333,1161
0.4903,1100
0.4919667,1459
0.4936333,1365
0.4953,1321
0.4969667,1027
0.4986333,878
0.5003,1196
0.5019667,816
0.5036333,828
0.5053,1014
0.5069667,1002
0.5086333,1135
0.5103,1181
0.5119666,976
0.5136333,951
0.5153,934
0.5169666,894
0.5186333,855
0.5203,1019
0.5219667,929
0.5236334,839
0.5253,864
0.5269667,889
0.5286334,908
0.5303,1036
0.5319667,996
0.5336334,957
0.5353,956
0.5369667,951
0.5386333,977
0.5403,1014
0.5419667,998
0.5436333,982
0.5453,1086
0.5469667,1047
0.5486333,1008
0.5503,906
0.5519667,864
0.5536333,984
0.5553,960
0.5569667,935
0.5586333,1142
0.5603,1125
0.5619667,1030
0.5636333,938
0.5653,1128
0.5669667,936
0.5686333,992
0.5703,839
0.5719666,960
0.5736333,934
0.5753,996
0.5769666,1000
0.5786333,998
0.5803,887
0.5819666,964
0.5836333,1016
0.5853,957
0.5869667,899
0.5886334,967
0.5903,896
0.5919667,994
0.5936334,980
0.5953,1018
0.5969667,1112
0.5986333,785
0.6003,865
0.6019667,978
0.6036333,928
0.6053,943
0.6069667,885
0.6086333,1015
0.6103,968
0.6119667,922
0.6136333,1039
0.6153,977
0.6169667,1006
0.6186333,1035
0.6203,915
0.6219667,850
0.6236333,854
0.6253,929
0.6269667,957
0.6286333,797
0.6303,897
0.6319667,1043
0.6336333,1133
0.6353,1194
0.6369666,918
0.6386333,1009
0.6403,975
0.6419666,971
0.6436333,981
0.6453,917
0.6469667,878
0.6486334,918
0.6503,893
0.6519667,917
0.6536334,941
0.6553,844
0.6569667,952
0.6586334,825
0.6603,879
0.6619667,1028
0.6636333,1080
0.6653,1027
0.6669667,971
0.6686333,915
0.6703,1014
0.6719667,1109
0.6736333,1405
0.6753,1587
0.6769667,1649
0.6786333,1853
0.6803,2057
0.6819667,2618
0.6836333,3044
0.6853,3461
0.6869667,4155
0.6886333,4529
0.6903,5145
0.6919667,6444
0.6936333,7212
0.6953,7216
0.6969666,6983
0.6986333,6998
0.7003,7253
0.7019666,7507
0.7036333,7196
0.7053,6885
0.7069666,7533
0.7086333,7411
0.7103,7289
0.7119667,6811
0.7136334,7029
0.7153,6599
0.7169667,6443
0.7186334,6638
0.7203,6543
0.7219667,6817
0.7236333,5826
0.7253,5826
0.7269667,5392
0.7286333,5222
0.7303,4931
0.7319667,4846
0.7336333,4002
0.7353,3813
0.7369667,3383
0.7386333,3167
0.7403,2967
0.7419667,2625
0.7436333,2311
0.7453,2323
0.7469667,1887
0.7486333,1920
0.7503,1587
0.7519667,1654
0.7536333,1591
0.7553,1417
0.7569667,1324
0.7586333,1471
0.7603,1304
0.7619666,1139
0.7636333,1326
0.7653,1162
0.7669666,1163
0.7686333,1264
0.7703,1110
0.7719667,1204
0.7736334,1198
0.7753,1426
0.7769667,1453
0.7786334,1411
0.7803,1705
0.7819667,1894
0.7836334,2233
0.7853,2271
0.7869667,2786
0.7886333,2873
0.7903,3415
0.7919667,3886
0.7936333,4305
0.7953,4905
0.7969667,5142
0.7986333,5994
0.8003,5960
0.8019667,5765
0.8036333,5930
0.8053,5947
0.8069667,5904
0.8086333,5960
0.8103,6014
0.8119667,5785
0.8136333,5435
0.8153,6075
0.8169667,5832
0.8186333,5628
0.8203,5248
0.8219666,5601
0.8236333,5774
0.8253,5039
0.8269666,5562
0.8286333,5257
0.8303,4933
0.8319666,5319
0.8336333,4919
0.8353,4413
0.8369667,4419
0.8386334,3847
0.8403,3602
0.8419667,3347
0.8436334,3442
0.8453,2445
0.8469667,2675
0.8486333,2420
0.8503,2377
0.8519667,1972
0.8536333,1977
0.8553,1941
0.8569667,1749
0.8586333,1626
0.8603,1569
0.8619667,1563
0.8636333,1442
0.8653,1322
0.8669667,1101
0.8686333,1181
0.8703,1413
0.8719667,1497
0.8736333,1077
0.8753,1045
0.8769667,894
0.8786333,1070
0.8803,1188
0.8819667,1227
0.8836333,1576
0.8853,1782
0.8869666,1763
0.8886333,1751
0.8903,1666
0.8919666,1373
0.8936333,1569
0.8953,1602
0.8969667,1596
0.8986334,1451
0.9003,1660
0.9019667,1697
0.9036334,1734
0.9053,1572
0.9069667,1232
0.9086334,1637
0.9103,1490
0.9119667,1515
0.9136333,1573
0.9153,1519
0.9169667,1443
0.9186333,1488
0.9203,1432
0.9219667,1377
0.9236333,1304
0.9253,1412
0.9269667,1336
0.9286333,1260
0.9303,1467
0.9319667,1179
0.9336333,1396
0.9353,1276
0.9369667,1243
0.9386333,1424
0.9403,1478
0.9419667,1304
0.9436333,1301
0.9453,1298
0.9469666,1286
0.9486333,1273
0.9503,1327
0.9519666,1381
0.9536333,1704
0.9553,1985
0.9569666,2269
0.9586333,2224
0.9603,2459
0.9619667,2972
0.9636334,3383
0.9653,3306
0.9669667,4488
0.9686334,5335
0.9703,6101
0.9719667,6276
0.9736333,7420
0.9753,8012
0.9769667,8648
0.9786333,9740
0.9803,9848
0.9819667,10680
0.9836333,12104
0.9853,11980
0.9869667,12044
0.9886333,12460
0.9903,12988
0.9919667,12840
0.9936333,12908
0.9953,12976
0.9969667,12480
0.9986333,12688
1.0003,12788
1.001967,12884
1.003633,12340
1.0053,12836
1.006967,13088
1.008633,12632
1.0103,11740
1.011967,13016
1.013633,12964
1.0153,13140
1.016967,13432
1.018633,12492
1.0203,13108
1.021967,12756
1.023633,11936
1.0253,11664
1.026967,10260
1.028633,11628
1.0303,11280
1.031967,9980
1.033633,9664
1.0353,8712
1.036967,8061
1.038633,7465
1.0403,7369
1.041967,7072
1.043633,6290
1.0453,6243
1.046967,6259
1.048633,6087
1.0503,5252
1.051967,5118
1.053633,5889
1.0553,5041
1.056967,5302
1.058633,5429
1.0603,5557
1.061967,5882
1.063633,6077
1.0653,6444
1.066967,6872
1.068633,7445
1.0703,7432
1.071967,7550
1.073633,7981
1.0753,7740
1.076967,7499
1.078633,8021
1.0803,8053
1.081967,7955
1.083633,7857
1.0853,8480
1.086967,8472
1.088633,8240
1.0903,7877
1.091967,8212
1.093633,8308
1.0953,7773
1.096967,7454
1.098633,7534
1.1003,7824
1.101967,7715
1.103633,7600
1.1053,7868
1.106967,7891
1.108633,7710
1.1103,7529
1.111967,7709
1.113633,7556
1.1153,7228
1.116967,6316
1.118633,6537
1.1203,6703
1.121967,6110
1.123633,5254
1.1253,5745
1.126967,5378
1.128633,5536
1.1303,4548
1.131967,4730
1.133633,4159
1.1353,4529
1.136967,3875
1.138633,3123
1.1403,3615
1.141967,3403
1.143633,3080
1.1453,2781
1.146967,2894
1.148633,2419
1.1503,2663
1.151967,2384
1.153633,1989
1.1553,1895
1.156967,1985
1.158633,1928
1.1603,1871
1.161967,1711
1.163633,1543
1.1653,1824
1.166967,1798
1.168633,1522
1.1703,1648
1.171967,1387
1.173633,1533
1.1753,1270
1.176967,1373
1.178633,1279
1.1803,1285
1.181967,1292
1.183633,1356
1.1853,1327
1.186967,1298
1.188633,1462
1.1903,1150
1.191967,1249
1.193633,1531
1.1953,1542
1.196967,1505
1.198633,1465
