"SampleName","A2Rd2_02-9"
"Target Mass 1",
"Column Name","IA-3 (3um, 4.6X100)"
"Channel","QDa 1: SIR Ch2"
0.00195,520
0.003616667,606
0.005283333,640
0.00695,757
0.008616666,783
0.01028333,808
0.01195,825
0.01361667,841
0.01528333,875
0.01695,874
0.01861667,883
0.02028333,977
0.02195,1016
0.02361667,1072
0.02528333,978
0.02695,774
0.02861667,857
0.03028333,904
0.03195,892
0.03361667,880
0.03528333,963
0.03695,985
0.03861667,1007
0.04028333,1019
0.04195,1031
0.04361667,1001
0.04528333,1019
0.04695,1036
0.04861667,776
0.05028334,1051
0.05195,1036
0.05361667,997
0.05528333,865
0.05695,1084
0.05861667,1010
0.06028333,1017
0.06195,895
0.06361666,1106
0.06528334,1093
0.06695,880
0.06861667,957
0.07028333,970
0.07195,897
0.07361667,823
0.07528333,999
0.07695,869
0.07861666,785
0.08028334,906
0.08195,700
0.08361667,783
0.08528333,866
0.08695,871
0.08861667,932
0.09028333,794
0.09195,656
0.09361666,1079
0.09528334,939
0.09695,932
0.09861667,879
0.1002833,675
0.10195,942
0.1036167,967
0.1052833,827
0.10695,918
0.1086167,867
0.1102833,897
0.11195,774
0.1136167,876
0.1152833,917
0.11695,888
0.1186167,832
0.1202833,835
0.12195,838
0.1236167,717
0.1252833,885
0.12695,937
0.1286167,984
0.1302833,913
0.13195,999
0.1336167,765
0.1352833,700
0.13695,817
0.1386167,884
0.1402833,867
0.14195,771
0.1436167,902
0.1452833,955
0.14695,953
0.1486167,841
0.1502833,747
0.15195,821
0.1536167,824
0.1552833,828
0.15695,933
0.1586167,930
0.1602833,925
0.16195,828
0.1636167,844
0.1652833,861
0.16695,898
0.1686167,935
0.1702833,1010
0.17195,1037
0.1736167,940
0.1752833,769
0.17695,905
0.1786167,887
0.1802833,910
0.18195,815
0.1836167,799
0.1852833,750
0.18695,927
0.1886167,1004
0.1902833,932
0.19195,823
0.1936167,1041
0.1952833,908
0.19695,755
0.1986167,910
0.2002833,996
0.20195,1030
0.2036167,1112
0.2052833,1131
0.20695,1043
0.2086167,952
0.2102833,1019
0.21195,1148
0.2136167,771
0.2152833,1013
0.21695,1184
0.2186167,986
0.2202833,1076
0.22195,1058
0.2236167,1183
0.2252833,1146
0.22695,973
0.2286167,1100
0.2302833,1018
0.23195,930
0.2336167,1236
0.2352833,1128
0.23695,1020
0.2386167,1255
0.2402833,1214
0.24195,1211
0.2436167,1235
0.2453,1234
0.24695,1120
0.2486167,1303
0.2502833,1205
0.25195,1238
0.2536167,1122
0.2552833,1227
0.25695,1026
0.2586167,1184
0.2602833,1279
0.26195,1171
0.2636333,1350
0.2652833,1271
0.26695,1079
0.2686167,1348
0.2702833,1119
0.27195,1061
0.2736167,1279
0.2752833,1204
0.27695,1030
0.2786167,1185
0.2803,1266
0.28195,829
0.2836167,1004
0.2852833,910
0.28695,981
0.2886167,1051
0.2902833,1267
0.29195,1207
0.2936167,995
0.2952833,1146
0.29695,1250
0.2986333,1201
0.3002833,1201
0.30195,986
0.3036167,1020
0.3052833,1091
0.30695,1159
0.3086167,1193
0.3102833,1227
0.31195,1237
0.3136167,1193
0.3153,1148
0.31695,1255
0.3186167,1494
0.3202833,1417
0.32195,1180
0.3236167,1133
0.3252833,1233
0.32695,1068
0.3286333,1361
0.3302833,1427
0.3319667,1339
0.3336333,1369
0.3352833,1399
0.3369667,1332
0.3386167,1398
0.3402833,1354
0.3419667,1309
0.3436167,1630
0.3453,1574
0.34695,1439
0.3486333,1328
0.3503,1339
0.35195,1327
0.3536333,1395
0.3552833,1198
0.3569667,1415
0.3586167,1573
0.3602833,1403
0.36195,1487
0.3636167,1701
0.3653,2574
0.3669667,3939
0.3686333,3380
0.3703,4534
0.3719667,3878
0.3736333,4082
0.3753,4316
0.3769667,4314
0.3786333,3955
0.3803,3892
0.3819667,3462
0.3836333,2751
0.3853,2154
0.3869667,1769
0.3886333,1293
0.3903,1092
0.3919667,940
0.3936333,592
0.3953,542
0.3969667,599
0.3986333,422
0.4003,501
0.4019667,504
0.4036333,386
0.4053,516
0.4069667,565
0.4086333,612
0.4103,473
0.4119667,622
0.4136333,655
0.4153,681
0.4169667,607
0.4186333,652
0.4203,770
0.4219667,774
0.4236333,746
0.4253,734
0.4269667,804
0.4286333,577
0.4303,737
0.4319667,907
0.4336333,802
0.4353,869
0.4369667,726
0.4386333,844
0.4403,963
0.4419667,1257
0.4436333,1180
0.4453,796
0.4469667,1207
0.4486333,1260
0.4503,1056
0.4519667,1357
0.4536333,1185
0.4553,1188
0.4569667,1210
0.4586333,1290
0.4603,1176
0.4619667,1063
0.4636333,1474
0.4653,1373
0.4669667,1392
0.4686333,1407
0.4703,1242
0.4719667,1283
0.4736333,1316
0.4753,1349
0.4769667,1392
0.4786333,1365
0.4803,1162
0.4819667,1471
0.4836333,1336
0.4853,1237
0.4869667,1066
0.4886333,1271
0.4903,1020
0.4919667,1028
0.4936333,1172
0.4953,1173
0.4969667,1155
0.4986333,1042
0.5003,1008
0.5019667,1044
0.5036333,1073
0.5053,980
0.5069667,902
0.5086333,1033
0.5103,986
0.5119666,768
0.5136333,838
0.5153,905
0.5169666,718
0.5186333,948
0.5203,982
0.5219667,821
0.5236334,868
0.5253,935
0.5269667,751
0.5286334,962
0.5303,935
0.5319667,1126
0.5336334,972
0.5353,1067
0.5369667,1129
0.5386333,743
0.5403,745
0.5419667,1012
0.5436333,1074
0.5453,1011
0.5469667,924
0.5486333,894
0.5503,949
0.5519667,868
0.5536333,932
0.5553,976
0.5569667,850
0.5586333,924
0.5603,925
0.5619667,926
0.5636333,762
0.5653,797
0.5669667,833
0.5686333,794
0.5703,933
0.5719666,1072
0.5736333,1045
0.5753,891
0.5769666,1111
0.5786333,1129
0.5803,1130
0.5819666,1220
0.5836333,893
0.5853,987
0.5869667,919
0.5886334,963
0.5903,936
0.5919667,972
0.5936334,1008
0.5953,881
0.5969667,910
0.5986333,1066
0.6003,808
0.6019667,768
0.6036333,934
0.6053,1026
0.6069667,1120
0.6086333,981
0.6103,960
0.6119667,1097
0.6136333,856
0.6153,962
0.6169667,975
0.6186333,1024
0.6203,877
0.6219667,950
0.6236333,1024
0.6253,963
0.6269667,988
0.6286333,1012
0.6303,976
0.6319667,940
0.6336333,955
0.6353,971
0.6369666,1048
0.6386333,1056
0.6403,1064
0.6419666,1097
0.6436333,1090
0.6453,1083
0.6469667,1076
0.6486334,1069
0.6503,1085
0.6519667,942
0.6536334,1157
0.6553,884
0.6569667,930
0.6586334,892
0.6603,845
0.6619667,946
0.6636333,1047
0.6653,1023
0.6669667,947
0.6686333,868
0.6703,815
0.6719667,763
0.6736333,965
0.6753,921
0.6769667,877
0.6786333,883
0.6803,753
0.6819667,823
0.6836333,830
0.6853,965
0.6869667,911
0.6886333,973
0.6903,971
0.6919667,1039
0.6936333,832
0.6953,1083
0.6969666,949
0.6986333,855
0.7003,971
0.7019666,1072
0.7036333,1135
0.7053,820
0.7069666,993
0.7086333,1025
0.7103,1020
0.7119667,901
0.7136334,965
0.7153,957
0.7169667,950
0.7186334,1157
0.7203,1128
0.7219667,820
0.7236333,933
0.7253,914
0.7269667,1097
0.7286333,1077
0.7303,941
0.7319667,1092
0.7336333,712
0.7353,955
0.7369667,974
0.7386333,1000
0.7403,932
0.7419667,955
0.7436333,977
0.7453,1074
0.7469667,1101
0.7486333,902
0.7503,1108
0.7519667,921
0.7536333,880
0.7553,856
0.7569667,882
0.7586333,1121
0.7603,988
0.7619666,855
0.7636333,687
0.7653,1065
0.7669666,972
0.7686333,877
0.7703,898
0.7719667,969
0.7736334,886
0.7753,803
0.7769667,841
0.7786334,1155
0.7803,1079
0.7819667,1021
0.7836334,1036
0.7853,980
0.7869667,975
0.7886333,970
0.7903,819
0.7919667,932
0.7936333,1044
0.7953,942
0.7969667,977
0.7986333,860
0.8003,1017
0.8019667,1136
0.8036333,1030
0.8053,1192
0.8069667,1139
0.8086333,1086
0.8103,1102
0.8119667,938
0.8136333,1311
0.8153,1283
0.8169667,1081
0.8186333,1041
0.8203,1130
0.8219666,947
0.8236333,1053
0.8253,1133
0.8269666,977
0.8286333,971
0.8303,950
0.8319666,1018
0.8336333,1137
0.8353,1115
0.8369667,956
0.8386334,1030
0.8403,1194
0.8419667,1137
0.8436334,1032
0.8453,1045
0.8469667,963
0.8486333,816
0.8503,1146
0.8519667,864
0.8536333,647
0.8553,1225
0.8569667,1029
0.8586333,787
0.8603,902
0.8619667,713
0.8636333,915
0.8653,875
0.8669667,852
0.8686333,807
0.8703,1069
0.8719667,1074
0.8736333,907
0.8753,1053
0.8769667,1080
0.8786333,1183
0.8803,1169
0.8819667,1156
0.8836333,1630
0.8853,1768
0.8869666,1889
0.8886333,1582
0.8903,1523
0.8919666,1825
0.8936333,1723
0.8953,1651
0.8969667,1447
0.8986334,1741
0.9003,1230
0.9019667,1704
0.9036334,1597
0.9053,1508
0.9069667,1388
0.9086334,1641
0.9103,1690
0.9119667,1614
0.9136333,1492
0.9153,1701
0.9169667,1579
0.9186333,1341
0.9203,1472
0.9219667,1425
0.9236333,1455
0.9253,1485
0.9269667,1434
0.9286333,1416
0.9303,1491
0.9319667,1400
0.9336333,1557
0.9353,1521
0.9369667,1472
0.9386333,1422
0.9403,1403
0.9419667,1384
0.9436333,1373
0.9453,1363
0.9469666,1453
0.9486333,1490
0.9503,1131
0.9519666,1523
0.9536333,1398
0.9553,1370
0.9569666,1215
0.9586333,1299
0.9603,1246
0.9619667,1291
0.9636334,1458
0.9653,1050
0.9669667,994
0.9686334,942
0.9703,1003
0.9719667,968
0.9736333,933
0.9753,954
0.9769667,958
0.9786333,963
0.9803,982
0.9819667,986
0.9836333,997
0.9853,1009
0.9869667,1079
0.9886333,891
0.9903,1031
0.9919667,994
0.9936333,955
0.9953,933
0.9969667,912
0.9986333,922
1.0003,932
1.001967,996
1.003633,1047
1.0053,1037
1.006967,896
1.008633,1053
1.0103,1048
1.011967,966
1.013633,1012
1.0153,1088
1.016967,854
1.018633,984
1.0203,1063
1.021967,1140
1.023633,991
1.0253,1214
1.026967,1239
1.028633,923
1.0303,1040
1.031967,893
1.033633,1035
1.0353,945
1.036967,986
1.038633,1034
1.0403,883
1.041967,987
1.043633,836
1.0453,870
1.046967,904
1.048633,779
1.0503,949
1.051967,978
1.053633,1007
1.0553,688
1.056967,876
1.058633,929
1.0603,930
1.061967,863
1.063633,918
1.0653,847
1.066967,1019
1.068633,1051
1.0703,999
1.071967,1010
1.073633,893
1.0753,932
1.076967,994
1.078633,1033
1.0803,1006
1.081967,932
1.083633,998
1.0853,1050
1.086967,923
1.088633,994
1.0903,917
1.091967,900
1.093633,883
1.0953,875
1.096967,868
1.098633,872
1.1003,877
1.101967,821
1.103633,879
1.1053,895
1.106967,912
1.108633,793
1.1103,834
1.111967,875
1.113633,760
1.1153,841
1.116967,838
1.118633,835
1.1203,883
1.121967,931
1.123633,1064
1.1253,1008
1.126967,724
1.128633,892
1.1303,821
1.131967,750
1.133633,960
1.1353,960
1.136967,911
1.138633,984
1.1403,939
1.141967,705
1.143633,885
1.1453,1001
1.146967,887
1.148633,942
1.1503,901
1.151967,795
1.153633,853
1.1553,790
1.156967,744
1.158633,890
1.1603,799
1.161967,773
1.163633,784
1.1653,795
1.166967,1009
1.168633,969
1.1703,823
1.171967,831
1.173633,892
1.1753,701
1.176967,670
1.178633,748
1.1803,825
1.181967,809
1.183633,801
1.1853,793
1.186967,814
1.188633,813
1.1903,811
1.191967,807
1.193633,803
1.1953,816
1.196967,824
1.198633,832
