"SampleName","A2Rd2_02-11"
"Target Mass 1",
"Column Name","IA-3 (3um, 4.6X100)"
"Channel","QDa 1: SIR Ch1"
0.00195,308
0.003616667,433
0.005283333,575
0.00695,568
0.008616666,471
0.01028333,632
0.01195,611
0.01361667,604
0.01528333,514
0.01695,484
0.01861667,457
0.02028333,499
0.02195,540
0.02361667,536
0.02528333,568
0.02695,611
0.02861667,584
0.03028333,556
0.03195,618
0.03361667,466
0.03528333,660
0.03695,563
0.03861667,578
0.04028333,502
0.04195,491
0.04361667,577
0.04528333,551
0.04695,524
0.04861667,646
0.05028334,632
0.05195,560
0.05361667,512
0.05528333,634
0.05695,607
0.05861667,536
0.06028333,538
0.06195,462
0.06361666,482
0.06528334,469
0.06695,531
0.06861667,592
0.07028333,638
0.07195,587
0.07361667,516
0.07528333,548
0.07695,631
0.07861666,660
0.08028334,548
0.08195,695
0.08361667,511
0.08528333,579
0.08695,453
0.08861667,497
0.09028333,535
0.09195,533
0.09361666,531
0.09528334,519
0.09695,507
0.09861667,524
0.1002833,541
0.10195,570
0.1036167,561
0.1052833,553
0.10695,517
0.1086167,435
0.1102833,512
0.11195,531
0.1136167,523
0.1152833,560
0.11695,564
0.1186167,569
0.1202833,487
0.12195,507
0.1236167,527
0.1252833,543
0.12695,560
0.1286167,482
0.1302833,626
0.13195,370
0.1336167,615
0.1352833,492
0.13695,626
0.1386167,491
0.1402833,497
0.14195,503
0.1436167,491
0.1452833,496
0.14695,502
0.1486167,507
0.1502833,520
0.15195,534
0.1536167,578
0.1552833,552
0.15695,526
0.1586167,543
0.1602833,630
0.16195,394
0.1636167,464
0.1652833,565
0.16695,477
0.1686167,519
0.1702833,458
0.17195,535
0.1736167,480
0.1752833,466
0.17695,495
0.1786167,557
0.1802833,508
0.18195,460
0.1836167,491
0.1852833,523
0.18695,523
0.1886167,535
0.1902833,492
0.19195,511
0.1936167,507
0.1952833,503
0.19695,484
0.1986167,515
0.2002833,537
0.20195,559
0.2036167,485
0.2052833,438
0.20695,561
0.2086167,602
0.2102833,585
0.21195,614
0.2136167,537
0.2152833,638
0.21695,374
0.2186167,584
0.2202833,538
0.22195,364
0.2236167,510
0.2252833,520
0.22695,577
0.2286167,567
0.2302833,478
0.23195,492
0.2336167,582
0.2352833,578
0.23695,385
0.2386167,660
0.2402833,556
0.24195,471
0.2436167,518
0.2452833,503
0.24695,559
0.2486167,511
0.2502833,463
0.25195,499
0.2536167,520
0.2552833,486
0.25695,485
0.2586167,484
0.2602833,542
0.26195,404
0.2636333,519
0.2652833,626
0.26695,633
0.2686167,582
0.2702833,620
0.27195,618
0.2736167,487
0.2752833,546
0.27695,434
0.2786167,554
0.2803,585
0.28195,618
0.2836167,596
0.2852833,600
0.28695,605
0.2886167,576
0.2902833,446
0.29195,421
0.2936167,629
0.2952833,614
0.29695,614
0.2986333,602
0.3002833,528
0.30195,613
0.3036167,542
0.3052833,653
0.30695,461
0.3086333,503
0.3102833,532
0.31195,571
0.3136167,644
0.3153,667
0.3169667,633
0.3186333,581
0.3202833,615
0.3219667,602
0.3236167,658
0.3253,632
0.32695,605
0.3286167,577
0.3302833,515
0.33195,569
0.3336333,521
0.3352833,472
0.33695,541
0.3386333,523
0.3402833,505
0.3419667,546
0.3436167,542
0.3452833,539
0.34695,511
0.3486167,586
0.3503,543
0.3519667,500
0.3536167,279
0.3553,506
0.3569667,484
0.3586333,685
0.3602833,711
0.36195,794
0.3636167,860
0.3653,1221
0.3669667,1668
0.3686333,3044
0.3703,4236
0.3719667,4255
0.3736333,5029
0.3753,5445
0.3769667,6186
0.3786333,5760
0.3802833,6456
0.3819667,5303
0.3836333,4321
0.3853,4071
0.38695,4166
0.3886333,2823
0.3903,2898
0.3919667,2076
0.3936167,1961
0.3953,1513
0.39695,1218
0.3986333,1175
0.4003,1128
0.4019667,1093
0.4036333,1087
0.4053,1180
0.4069667,1337
0.4086333,1355
0.4103,1298
0.4119667,1411
0.4136333,1421
0.4153,1403
0.4169667,1521
0.4186333,1575
0.4203,1844
0.4219667,1766
0.4236333,1888
0.4253,1591
0.4269667,1611
0.4286333,1716
0.4303,1868
0.4319667,2049
0.4336333,1994
0.4353,2496
0.4369667,4607
0.4386333,5884
0.4403,9356
0.4419667,15024
0.4436333,22948
0.4453,33296
0.4469667,47008
0.4486333,61776
0.4503,79472
0.4519667,99424
0.4536333,112096
0.4553,134016
0.4569667,152832
0.4586333,168768
0.4603,184576
0.4619667,197568
0.4636333,205568
0.4653,218368
0.4669667,229248
0.4686333,242944
0.4703,260608
0.4719667,275328
0.4736333,291264
0.4753,301952
0.4769667,308480
0.4786333,306112
0.4803,303104
0.4819667,283776
0.4836333,270208
0.4853,242432
0.4869667,218176
0.4886333,193216
0.4903,159744
0.4919667,136768
0.4936333,111728
0.4953,93920
0.4969667,73904
0.4986333,59488
0.5003,46544
0.5019667,36800
0.5036333,28272
0.5053,23204
0.5069667,18904
0.5086333,14544
0.5103,12476
0.5119666,10920
0.5136333,8436
0.5153,8161
0.5169666,6466
0.5186333,5999
0.5203,5599
0.5219667,5467
0.5236334,5279
0.5253,4678
0.5269667,4723
0.5286334,4413
0.5303,4080
0.5319667,3846
0.5336334,3823
0.5353,3761
0.5369667,3463
0.5386333,3307
0.5403,3055
0.5419667,3288
0.5436333,2828
0.5453,2888
0.5469667,2545
0.5486333,2697
0.5503,2503
0.5519667,2465
0.5536333,2477
0.5553,2089
0.5569667,2324
0.5586333,1980
0.5603,1847
0.5619667,2025
0.5636333,1866
0.5653,1966
0.5669667,1809
0.5686333,1903
0.5703,1905
0.5719666,1782
0.5736333,1612
0.5753,1717
0.5769666,1692
0.5786333,1525
0.5803,1797
0.5819666,1582
0.5836333,1587
0.5853,1673
0.5869667,1485
0.5886334,1549
0.5903,1612
0.5919667,1396
0.5936334,1628
0.5953,1226
0.5969667,1347
0.5986333,1504
0.6003,1332
0.6019667,1641
0.6036333,1633
0.6053,1396
0.6069667,1636
0.6086333,1573
0.6103,1324
0.6119667,1434
0.6136333,1457
0.6153,1383
0.6169667,1309
0.6186333,1370
0.6203,1522
0.6219667,1496
0.6236333,1359
0.6253,1451
0.6269667,1347
0.6286333,1109
0.6303,1194
0.6319667,1353
0.6336333,1188
0.6353,1156
0.6369666,1200
0.6386333,902
0.6403,1140
0.6419666,992
0.6436333,862
0.6453,1101
0.6469667,1050
0.6486334,1011
0.6503,1113
0.6519667,1103
0.6536334,1093
0.6553,983
0.6569667,1068
0.6586334,975
0.6603,951
0.6619667,840
0.6636333,1052
0.6653,845
0.6669667,916
0.6686333,927
0.6703,1060
0.6719667,1014
0.6736333,847
0.6753,1175
0.6769667,1066
0.6786333,966
0.6803,711
0.6819667,920
0.6836333,767
0.6853,952
0.6869667,894
0.6886333,807
0.6903,702
0.6919667,876
0.6936333,850
0.6953,863
0.6969666,746
0.6986333,788
0.7003,1054
0.7019666,975
0.7036333,729
0.7053,775
0.7069666,815
0.7086333,782
0.7103,728
0.7119667,673
0.7136334,909
0.7153,904
0.7169667,899
0.7186334,710
0.7203,727
0.7219667,680
0.7236333,737
0.7253,741
0.7269667,744
0.7286333,761
0.7303,778
0.7319667,788
0.7336333,800
0.7353,703
0.7369667,772
0.7386333,663
0.7403,721
0.7419667,779
0.7436333,797
0.7453,868
0.7469667,865
0.7486333,883
0.7503,850
0.7519667,824
0.7536333,796
0.7553,708
0.7569667,826
0.7586333,822
0.7603,846
0.7619666,842
0.7636333,747
0.7653,789
0.7669666,830
0.7686333,800
0.7703,769
0.7719667,668
0.7736334,664
0.7753,660
0.7769667,679
0.7786334,698
0.7803,709
0.7819667,719
0.7836334,816
0.7853,771
0.7869667,725
0.7886333,709
0.7903,755
0.7919667,734
0.7936333,713
0.7953,732
0.7969667,730
0.7986333,728
0.8003,725
0.8019667,709
0.8036333,731
0.8053,662
0.8069667,694
0.8086333,918
0.8103,875
0.8119667,655
0.8136333,787
0.8153,816
0.8169667,830
0.8186333,828
0.8203,850
0.8219666,873
0.8236333,752
0.8253,794
0.8269666,598
0.8286333,775
0.8303,775
0.8319666,918
0.8336333,570
0.8353,787
0.8369667,792
0.8386334,863
0.8403,764
0.8419667,681
0.8436334,734
0.8453,689
0.8469667,645
0.8486333,805
0.8503,847
0.8519667,789
0.8536333,732
0.8553,665
0.8569667,657
0.8586333,695
0.8603,852
0.8619667,862
0.8636333,677
0.8653,782
0.8669667,799
0.8686333,756
0.8703,662
0.8719667,640
0.8736333,701
0.8753,680
0.8769667,703
0.8786333,804
0.8803,1204
0.8819667,1535
0.8836333,2020
0.8853,2048
0.8869666,2342
0.8886333,2783
0.8903,3170
0.8919666,3397
0.8936333,3367
0.8953,3322
0.8969667,3122
0.8986334,3348
0.9003,3668
0.9019667,3761
0.9036334,3385
0.9053,3606
0.9069667,3881
0.9086334,4002
0.9103,4064
0.9119667,4237
0.9136333,3669
0.9153,3846
0.9169667,4120
0.9186333,3710
0.9203,3946
0.9219667,3453
0.9236333,3439
0.9253,3606
0.9269667,3602
0.9286333,3689
0.9303,3556
0.9319667,3398
0.9336333,3374
0.9353,3026
0.9369667,3173
0.9386333,3428
0.9403,3260
0.9419667,3405
0.9436333,3124
0.9453,2874
0.9469666,3219
0.9486333,2592
0.9503,2517
0.9519666,2375
0.9536333,2397
0.9553,2397
0.9569666,1958
0.9586333,2144
0.9603,2038
0.9619667,1728
0.9636334,1756
0.9653,1627
0.9669667,1555
0.9686334,1618
0.9703,1254
0.9719667,1412
0.9736333,1343
0.9753,1065
0.9769667,840
0.9786333,883
0.9803,1125
0.9819667,1041
0.9836333,954
0.9853,778
0.9869667,768
0.9886333,871
0.9903,850
0.9919667,605
0.9936333,699
0.9953,653
0.9969667,702
0.9986333,685
1.0003,667
1.001967,641
1.003633,614
1.0053,572
1.006967,612
1.008633,660
1.0103,648
1.011967,609
1.013633,562
1.0153,599
1.016967,548
1.018633,525
1.0203,531
1.021967,579
1.023633,557
1.0253,534
1.026967,615
1.028633,418
1.0303,668
1.031967,680
1.033633,511
1.0353,537
1.036967,576
1.038633,588
1.0403,697
1.041967,686
1.043633,614
1.0453,676
1.046967,664
1.048633,656
1.0503,673
1.051967,689
1.053633,584
1.0553,574
1.056967,598
1.058633,510
1.0603,543
1.061967,563
1.063633,567
1.0653,630
1.066967,625
1.068633,621
1.0703,765
1.071967,819
1.073633,554
1.0753,677
1.076967,598
1.078633,644
1.0803,532
1.081967,585
1.083633,637
1.0853,707
1.086967,777
1.088633,810
1.0903,721
1.091967,545
1.093633,715
1.0953,639
1.096967,681
1.098633,696
1.1003,711
1.101967,765
1.103633,595
1.1053,571
1.106967,620
1.108633,609
1.1103,597
1.111967,594
1.113633,604
1.1153,613
1.116967,686
1.118633,664
1.1203,643
1.121967,644
1.123633,547
1.1253,644
1.126967,655
1.128633,648
1.1303,641
1.131967,657
1.133633,651
1.1353,644
1.136967,602
1.138633,761
1.1403,804
1.141967,702
1.143633,577
1.1453,656
1.146967,770
1.148633,690
1.1503,725
1.151967,701
1.153633,678
1.1553,604
1.156967,637
1.158633,681
1.1603,672
1.161967,603
1.163633,534
1.1653,696
1.166967,731
1.168633,784
1.1703,778
1.171967,653
1.173633,731
1.1753,781
1.176967,833
1.178633,851
1.1803,737
1.181967,716
1.183633,715
1.1853,688
1.186967,654
1.188633,689
1.1903,719
1.191967,711
1.193633,702
1.1953,744
1.196967,786
1.198633,831
