"SampleName","A2Rd2_02-94"
"Target Mass 1",
"Column Name","IA-3 (3um, 4.6X100)"
"Channel","QDa 1: SIR Ch2"
0.00195,710
0.003616667,803
0.005283333,673
0.00695,760
0.008616666,811
0.01028333,771
0.01195,875
0.01361667,826
0.01528333,778
0.01695,819
0.01861667,860
0.02028333,730
0.02195,984
0.02361667,1206
0.02528333,1180
0.02695,822
0.02861667,935
0.03028333,916
0.03195,849
0.03361667,710
0.03528333,884
0.03695,891
0.03861667,898
0.04028333,971
0.04195,1043
0.04361667,1002
0.04528333,960
0.04695,979
0.04861667,1008
0.05028334,980
0.05195,1063
0.05361667,1179
0.05528333,1249
0.05695,857
0.05861667,1037
0.06028333,892
0.06195,977
0.06361666,956
0.06528334,936
0.06695,881
0.06861667,849
0.07028333,977
0.07195,789
0.07361667,1044
0.07528333,1007
0.07695,970
0.07861666,947
0.08028334,1151
0.08195,705
0.08361667,1108
0.08528333,1151
0.08695,1042
0.08861667,914
0.09028333,807
0.09195,970
0.09361666,1014
0.09528334,912
0.09695,706
0.09861667,923
0.1002833,948
0.10195,957
0.1036167,1013
0.1052833,981
0.10695,949
0.1086167,999
0.1102833,972
0.11195,946
0.1136167,982
0.1152833,998
0.11695,999
0.1186167,1000
0.1202833,785
0.12195,995
0.1236167,905
0.1252833,740
0.12695,813
0.1286167,839
0.1302833,838
0.13195,836
0.1336167,949
0.1352833,951
0.13695,954
0.1386167,785
0.1402833,1059
0.14195,849
0.1436167,949
0.1452833,854
0.14695,880
0.1486167,1010
0.1502833,950
0.15195,881
0.1536167,1097
0.1552833,1018
0.15695,722
0.1586167,814
0.1602833,1080
0.16195,1083
0.1636167,885
0.1652833,1069
0.16695,1015
0.1686167,854
0.1702833,1134
0.17195,966
0.1736167,951
0.1752833,860
0.17695,728
0.1786167,961
0.1802833,984
0.18195,844
0.1836167,931
0.1852833,854
0.18695,992
0.1886167,971
0.1902833,846
0.19195,860
0.1936167,828
0.1952833,796
0.19695,857
0.1986167,787
0.2002833,718
0.20195,867
0.2036167,1003
0.2052833,1011
0.20695,1134
0.2086167,1079
0.2102833,788
0.21195,946
0.2136167,964
0.2152833,1048
0.21695,1006
0.2186167,920
0.2202833,1118
0.22195,1183
0.2236167,989
0.2252833,889
0.22695,1022
0.2286167,1174
0.2302833,1190
0.23195,1043
0.2336167,1106
0.2352833,1169
0.23695,1157
0.2386167,1003
0.2402833,1232
0.24195,1198
0.2436167,1104
0.2452833,1259
0.24695,1303
0.2486167,1296
0.2502833,1303
0.25195,1102
0.2536167,1274
0.2552833,1112
0.25695,980
0.2586167,967
0.2602833,1054
0.26195,1119
0.2636167,1176
0.2652833,1014
0.26695,1024
0.2686167,1093
0.2702833,1145
0.27195,1163
0.2736167,1234
0.2752833,1258
0.27695,783
0.2786167,1053
0.2803,1034
0.28195,922
0.2836167,874
0.2852833,1007
0.28695,1099
0.2886167,1077
0.2902833,846
0.29195,1108
0.2936333,1011
0.2952833,1059
0.29695,1107
0.2986333,872
0.3002833,1199
0.30195,1006
0.3036167,1145
0.3053,1120
0.30695,1067
0.3086167,1119
0.3102833,1171
0.31195,1200
0.3136167,1229
0.3153,1180
0.31695,1349
0.3186333,1444
0.3202833,1401
0.32195,1331
0.3236167,1224
0.3252833,1359
0.3269667,1272
0.3286167,1359
0.3302833,1011
0.33195,1151
0.3336333,1351
0.3353,976
0.33695,1133
0.3386333,1249
0.3402833,1188
0.34195,1213
0.3436333,1199
0.3452833,1251
0.34695,1304
0.3486167,1377
0.3503,1344
0.3519667,1348
0.3536167,1442
0.3552833,1405
0.3569667,1368
0.3586167,1319
0.3603,1242
0.36195,1232
0.3636167,1222
0.3653,1705
0.36695,2853
0.3686333,3440
0.3702833,3441
0.3719667,3192
0.3736167,3223
0.3753,2595
0.3769667,2725
0.3786333,2662
0.3802833,2740
0.3819667,2882
0.3836167,2290
0.3853,2425
0.38695,1801
0.3886333,1679
0.3903,1361
0.3919667,957
0.3936333,781
0.3953,714
0.39695,529
0.3986333,582
0.4002833,577
0.4019667,479
0.4036333,550
0.4053,536
0.4069667,472
0.4086333,512
0.4103,551
0.4119667,592
0.4136333,633
0.4153,717
0.41695,724
0.4186333,650
0.4203,660
0.4219667,669
0.4236333,828
0.4253,991
0.4269667,924
0.4286333,854
0.4303,860
0.4319667,840
0.4336333,829
0.4353,818
0.4369667,852
0.4386333,886
0.4403,1120
0.4419667,1033
0.4436333,946
0.4453,1169
0.4469667,1266
0.4486333,1270
0.4503,1201
0.4519667,1131
0.4536333,1486
0.4553,1498
0.4569667,1411
0.4586333,1563
0.4603,1681
0.4619667,1748
0.4636333,1558
0.4653,1450
0.4669667,1623
0.4686333,1456
0.4703,1488
0.4719667,1561
0.4736333,1533
0.4753,1504
0.4769667,1180
0.4786333,1404
0.4803,1578
0.4819667,1452
0.4836333,1203
0.4853,1278
0.4869667,1421
0.4886333,1503
0.4903,1453
0.4919667,1022
0.4936333,1387
0.4953,1392
0.4969667,1146
0.4986333,1130
0.5003,992
0.5019667,1131
0.5036333,1100
0.5053,1149
0.5069667,1107
0.5086333,796
0.5103,1110
0.5119666,1033
0.5136333,838
0.5153,856
0.5169666,1111
0.5186333,1184
0.5203,1209
0.5219667,1003
0.5236334,930
0.5253,1132
0.5269667,1152
0.5286334,1081
0.5303,1053
0.5319667,945
0.5336334,994
0.5353,1033
0.5369667,1032
0.5386333,1012
0.5403,992
0.5419667,1069
0.5436333,1079
0.5453,933
0.5469667,832
0.5486333,890
0.5503,835
0.5519667,744
0.5536333,652
0.5553,960
0.5569667,890
0.5586333,863
0.5603,900
0.5619667,936
0.5636333,1032
0.5653,1028
0.5669667,1024
0.5686333,1052
0.5703,1080
0.5719666,953
0.5736333,1146
0.5753,864
0.5769666,1136
0.5786333,1094
0.5803,1061
0.5819666,1101
0.5836333,1075
0.5853,1049
0.5869667,1025
0.5886334,1068
0.5903,1112
0.5919667,900
0.5936334,1084
0.5953,1076
0.5969667,1049
0.5986333,1022
0.6003,1164
0.6019667,1204
0.6036333,1194
0.6053,1255
0.6069667,1014
0.6086333,990
0.6103,1090
0.6119667,1096
0.6136333,1110
0.6153,1158
0.6169667,929
0.6186333,1317
0.6203,1152
0.6219667,1061
0.6236333,922
0.6253,978
0.6269667,957
0.6286333,924
0.6303,1106
0.6319667,1159
0.6336333,1070
0.6353,1046
0.6369666,1071
0.6386333,962
0.6403,1050
0.6419666,1014
0.6436333,1024
0.6453,1035
0.6469667,1044
0.6486334,1052
0.6503,821
0.6519667,1031
0.6536334,1014
0.6553,805
0.6569667,865
0.6586334,824
0.6603,841
0.6619667,857
0.6636333,941
0.6653,899
0.6669667,856
0.6686333,919
0.6703,893
0.6719667,852
0.6736333,812
0.6753,792
0.6769667,773
0.6786333,856
0.6803,867
0.6819667,885
0.6836333,889
0.6853,894
0.6869667,910
0.6886333,853
0.6903,939
0.6919667,950
0.6936333,969
0.6953,960
0.6969666,952
0.6986333,943
0.7003,935
0.7019666,781
0.7036333,974
0.7053,940
0.7069666,809
0.7086333,983
0.7103,991
0.7119667,960
0.7136334,863
0.7153,1048
0.7169667,919
0.7186334,1004
0.7203,895
0.7219667,892
0.7236333,944
0.7253,776
0.7269667,809
0.7286333,842
0.7303,866
0.7319667,889
0.7336333,903
0.7353,786
0.7369667,868
0.7386333,955
0.7403,948
0.7419667,847
0.7436333,841
0.7453,967
0.7469667,818
0.7486333,908
0.7503,1022
0.7519667,997
0.7536333,802
0.7553,778
0.7569667,943
0.7586333,894
0.7603,891
0.7619666,817
0.7636333,808
0.7653,799
0.7669666,824
0.7686333,849
0.7703,798
0.7719667,747
0.7736334,948
0.7753,897
0.7769667,835
0.7786334,899
0.7803,847
0.7819667,775
0.7836334,723
0.7853,970
0.7869667,1050
0.7886333,831
0.7903,916
0.7919667,893
0.7936333,893
0.7953,894
0.7969667,919
0.7986333,886
0.8003,854
0.8019667,814
0.8036333,904
0.8053,762
0.8069667,1105
0.8086333,1114
0.8103,1039
0.8119667,918
0.8136333,1012
0.8153,1088
0.8169667,976
0.8186333,1119
0.8203,953
0.8219666,928
0.8236333,1039
0.8253,974
0.8269666,1076
0.8286333,901
0.8303,1032
0.8319666,893
0.8336333,847
0.8353,884
0.8369667,920
0.8386334,940
0.8403,856
0.8419667,898
0.8436334,787
0.8453,894
0.8469667,886
0.8486333,879
0.8503,896
0.8519667,790
0.8536333,793
0.8553,796
0.8569667,838
0.8586333,880
0.8603,921
0.8619667,896
0.8636333,871
0.8653,860
0.8669667,849
0.8686333,788
0.8703,727
0.8719667,965
0.8736333,979
0.8753,807
0.8769667,1001
0.8786333,1053
0.8803,1230
0.8819667,1321
0.8836333,1239
0.8853,1168
0.8869666,1411
0.8886333,1294
0.8903,1177
0.8919666,1285
0.8936333,1254
0.8953,1222
0.8969667,1551
0.8986334,1487
0.9003,1545
0.9019667,1538
0.9036334,1285
0.9053,1277
0.9069667,1413
0.9086334,1400
0.9103,1477
0.9119667,1339
0.9136333,1389
0.9153,1430
0.9169667,1380
0.9186333,1447
0.9203,1424
0.9219667,1500
0.9236333,1281
0.9253,1174
0.9269667,1313
0.9286333,1427
0.9303,1350
0.9319667,1255
0.9336333,1256
0.9353,1304
0.9369667,1367
0.9386333,1333
0.9403,1298
0.9419667,1266
0.9436333,1334
0.9453,1332
0.9469666,1245
0.9486333,1193
0.9503,1126
0.9519666,1253
0.9536333,1132
0.9553,1011
0.9569666,1098
0.9586333,1116
0.9603,946
0.9619667,1004
0.9636334,1170
0.9653,1335
0.9669667,1280
0.9686334,911
0.9703,924
0.9719667,1049
0.9736333,1247
0.9753,1143
0.9769667,1112
0.9786333,1198
0.9803,747
0.9819667,798
0.9836333,963
0.9853,1031
0.9869667,809
0.9886333,1004
0.9903,885
0.9919667,956
0.9936333,900
0.9953,872
0.9969667,955
0.9986333,898
1.0003,812
1.001967,927
1.003633,981
1.0053,906
1.006967,798
1.008633,926
1.0103,837
1.011967,697
1.013633,933
1.0153,819
1.016967,996
1.018633,730
1.0203,830
1.021967,896
1.023633,956
1.0253,787
1.026967,780
1.028633,967
1.0303,896
1.031967,826
1.033633,893
1.0353,723
1.036967,887
1.038633,814
1.0403,924
1.041967,978
1.043633,923
1.0453,961
1.046967,939
1.048633,795
1.0503,943
1.051967,938
1.053633,878
1.0553,945
1.056967,968
1.058633,942
1.0603,860
1.061967,1010
1.063633,876
1.0653,887
1.066967,990
1.068633,775
1.0703,819
1.071967,862
1.073633,859
1.0753,856
1.076967,979
1.078633,1032
1.0803,1040
1.081967,971
1.083633,949
1.0853,878
1.086967,785
1.088633,826
1.0903,911
1.091967,892
1.093633,873
1.0953,779
1.096967,926
1.098633,980
1.1003,843
1.101967,730
1.103633,757
1.1053,930
1.106967,951
1.108633,893
1.1103,931
1.111967,760
1.113633,1006
1.1153,925
1.116967,947
1.118633,914
1.1203,915
1.121967,929
1.123633,943
1.1253,857
1.126967,960
1.128633,1014
1.1303,1017
1.131967,1004
1.133633,747
1.1353,956
1.136967,746
1.138633,935
1.1403,1016
1.141967,990
1.143633,894
1.1453,815
1.146967,926
1.148633,956
1.1503,788
1.151967,894
1.153633,763
1.1553,795
1.156967,827
1.158633,908
1.1603,871
1.161967,857
1.163633,869
1.1653,738
1.166967,927
1.168633,911
1.1703,788
1.171967,664
1.173633,788
1.1753,844
1.176967,914
1.178633,850
1.1803,1075
1.181967,1041
1.183633,886
1.1853,954
1.186967,842
1.188633,754
1.1903,982
1.191967,744
1.193633,979
1.1953,896
1.196967,843
1.198633,887
