"SampleName","A2Rd2_02-12"
"Target Mass 1",
"Column Name","IA-3 (3um, 4.6X100)"
"Channel","QDa 1: SIR Ch1"
0.00195,373
0.003616667,685
0.005283333,451
0.00695,494
0.008616666,527
0.01028333,564
0.01195,536
0.01361667,507
0.01528333,507
0.01695,507
0.01861667,467
0.02028333,426
0.02195,553
0.02361667,577
0.02528333,576
0.02695,565
0.02861667,547
0.03028333,457
0.03195,699
0.03361667,750
0.03528333,620
0.03695,629
0.03861667,695
0.04028333,618
0.04195,515
0.04361667,399
0.04528333,552
0.04695,545
0.04861667,538
0.05028334,537
0.05195,536
0.05361667,578
0.05528333,620
0.05695,575
0.05861667,530
0.06028333,383
0.06195,542
0.06361666,544
0.06528334,649
0.06695,658
0.06861667,534
0.07028333,494
0.07195,454
0.07361667,506
0.07528333,518
0.07695,562
0.07861666,436
0.08028334,479
0.08195,523
0.08361667,558
0.08528333,634
0.08695,595
0.08861667,452
0.09028333,518
0.09195,584
0.09361666,599
0.09528334,611
0.09695,582
0.09861667,505
0.1002833,595
0.10195,545
0.1036167,549
0.1052833,553
0.10695,581
0.1086167,574
0.1102833,566
0.11195,646
0.1136167,668
0.1152833,540
0.11695,469
0.1186167,577
0.1202833,616
0.12195,491
0.1236167,615
0.1252833,579
0.12695,540
0.1286167,612
0.1302833,684
0.13195,643
0.1336167,615
0.1352833,489
0.13695,470
0.1386167,520
0.1402833,636
0.14195,610
0.1436167,573
0.1452833,483
0.14695,650
0.1486167,673
0.1502833,730
0.15195,467
0.1536167,540
0.1552833,590
0.15695,612
0.1586167,465
0.1602833,633
0.16195,471
0.1636167,685
0.1652833,531
0.16695,762
0.1686167,589
0.1702833,459
0.17195,639
0.1736167,619
0.1752833,504
0.17695,515
0.1786167,513
0.1802833,466
0.18195,479
0.1836167,493
0.1852833,466
0.18695,533
0.1886167,615
0.1902833,607
0.19195,458
0.1936167,537
0.1952833,513
0.19695,545
0.1986167,578
0.2002833,567
0.20195,390
0.2036167,482
0.2052833,458
0.20695,540
0.2086167,517
0.2102833,493
0.21195,521
0.2136167,548
0.2152833,538
0.21695,528
0.2186167,654
0.2202833,630
0.22195,582
0.2236167,509
0.2252833,524
0.22695,430
0.2286167,506
0.2302833,507
0.23195,496
0.2336167,473
0.2352833,450
0.23695,480
0.2386167,506
0.2402833,489
0.24195,499
0.2436167,485
0.2452833,470
0.24695,481
0.2486167,590
0.2502833,566
0.25195,497
0.2536167,503
0.2552833,509
0.25695,564
0.2586167,408
0.2602833,516
0.26195,517
0.2636333,692
0.2652833,636
0.26695,578
0.2686167,605
0.2702833,610
0.27195,427
0.2736167,593
0.2752833,496
0.27695,538
0.2786167,589
0.2803,574
0.28195,475
0.2836333,643
0.2852833,601
0.28695,522
0.2886167,512
0.2902833,630
0.29195,460
0.2936167,553
0.2952833,537
0.29695,499
0.2986333,721
0.3002833,667
0.30195,600
0.3036167,508
0.3052833,636
0.30695,576
0.3086167,688
0.3102833,602
0.31195,497
0.3136167,549
0.3153,600
0.31695,614
0.3186167,627
0.3202833,579
0.3219667,531
0.3236167,537
0.3252833,531
0.32695,526
0.3286167,571
0.3302833,562
0.33195,553
0.3336333,418
0.3352833,557
0.33695,547
0.3386333,579
0.3402833,621
0.34195,554
0.3436167,488
0.3452833,502
0.34695,461
0.3486167,542
0.3503,624
0.35195,628
0.3536333,645
0.3553,615
0.35695,586
0.3586167,526
0.3602833,629
0.36195,707
0.3636167,730
0.3652833,1242
0.36695,1694
0.3686333,2159
0.3703,2519
0.3719667,3366
0.3736333,4153
0.3753,3607
0.37695,4117
0.3786167,4856
0.3802833,5047
0.38195,5110
0.3836333,4167
0.3853,3804
0.3869667,3769
0.3886333,3099
0.3903,2462
0.3919667,2581
0.3936333,1939
0.3953,1696
0.3969667,1633
0.3986333,1233
0.4003,1256
0.4019667,1058
0.4036333,1145
0.4053,1232
0.4069667,1350
0.4086333,1267
0.4103,1255
0.4119667,1244
0.4136333,1346
0.4153,1346
0.4169667,1579
0.4186333,1639
0.4203,1651
0.4219667,1467
0.4236333,1694
0.4253,1903
0.4269667,1744
0.4286333,1683
0.4303,1733
0.4319667,1876
0.4336333,2209
0.4353,3120
0.4369667,4248
0.4386333,6848
0.4403,10976
0.4419667,16348
0.4436333,26112
0.4453,37392
0.4469667,54496
0.4486333,74704
0.4503,98480
0.4519667,123568
0.4536333,153600
0.4553,182144
0.4569667,207616
0.4586333,232256
0.4603,255296
0.4619667,277632
0.4636333,296704
0.4653,318400
0.4669667,334080
0.4686333,352128
0.4703,377728
0.4719667,395904
0.4736333,417856
0.4753,434880
0.4769667,444160
0.4786333,443328
0.4803,442752
0.4819667,425152
0.4836333,404224
0.4853,365952
0.4869667,331968
0.4886333,297088
0.4903,252544
0.4919667,213376
0.4936333,179776
0.4953,147904
0.4969667,120512
0.4986333,98080
0.5003,77040
0.5019667,62576
0.5036333,48464
0.5053,39552
0.5069667,31272
0.5086333,25720
0.5103,20980
0.5119666,18316
0.5136333,15296
0.5153,12304
0.5169666,11412
0.5186333,10356
0.5203,8524
0.5219667,7853
0.5236334,7238
0.5253,7150
0.5269667,7169
0.5286334,5834
0.5303,6070
0.5319667,5060
0.5336334,5782
0.5353,5304
0.5369667,5403
0.5386333,4734
0.5403,4348
0.5419667,4225
0.5436333,4073
0.5453,4088
0.5469667,3736
0.5486333,3855
0.5503,3304
0.5519667,3369
0.5536333,3219
0.5553,3255
0.5569667,2880
0.5586333,2793
0.5603,2493
0.5619667,2738
0.5636333,2096
0.5653,2465
0.5669667,2279
0.5686333,2211
0.5703,2270
0.5719666,1969
0.5736333,2120
0.5753,2035
0.5769666,1803
0.5786333,1962
0.5803,2065
0.5819666,1864
0.5836333,1524
0.5853,1813
0.5869667,1788
0.5886334,1740
0.5903,1731
0.5919667,1722
0.5936334,1767
0.5953,1765
0.5969667,1763
0.5986333,1571
0.6003,1563
0.6019667,1582
0.6036333,1525
0.6053,1467
0.6069667,1511
0.6086333,1485
0.6103,1579
0.6119667,1596
0.6136333,1563
0.6153,1390
0.6169667,1495
0.6186333,1585
0.6203,1374
0.6219667,1251
0.6236333,1382
0.6253,1362
0.6269667,1206
0.6286333,1443
0.6303,1386
0.6319667,1276
0.6336333,1266
0.6353,1046
0.6369666,1182
0.6386333,1294
0.6403,1210
0.6419666,1098
0.6436333,1247
0.6453,1243
0.6469667,1234
0.6486334,1126
0.6503,1114
0.6519667,948
0.6536334,952
0.6553,986
0.6569667,947
0.6586334,909
0.6603,1029
0.6619667,1074
0.6636333,1023
0.6653,996
0.6669667,989
0.6686333,983
0.6703,977
0.6719667,1008
0.6736333,1038
0.6753,1019
0.6769667,872
0.6786333,905
0.6803,1016
0.6819667,1091
0.6836333,769
0.6853,752
0.6869667,972
0.6886333,1149
0.6903,994
0.6919667,866
0.6936333,976
0.6953,944
0.6969666,940
0.6986333,781
0.7003,874
0.7019666,913
0.7036333,775
0.7053,795
0.7069666,805
0.7086333,757
0.7103,843
0.7119667,912
0.7136334,969
0.7153,630
0.7169667,786
0.7186334,650
0.7203,694
0.7219667,739
0.7236333,682
0.7253,735
0.7269667,699
0.7286333,664
0.7303,666
0.7319667,667
0.7336333,714
0.7353,760
0.7369667,735
0.7386333,738
0.7403,761
0.7419667,728
0.7436333,776
0.7453,731
0.7469667,686
0.7486333,482
0.7503,665
0.7519667,808
0.7536333,707
0.7553,705
0.7569667,704
0.7586333,698
0.7603,692
0.7619666,685
0.7636333,677
0.7653,676
0.7669666,675
0.7686333,656
0.7703,636
0.7719667,653
0.7736334,642
0.7753,631
0.7769667,898
0.7786334,955
0.7803,570
0.7819667,757
0.7836334,655
0.7853,718
0.7869667,638
0.7886333,768
0.7903,547
0.7919667,607
0.7936333,681
0.7953,655
0.7969667,628
0.7986333,627
0.8003,740
0.8019667,748
0.8036333,795
0.8053,697
0.8069667,569
0.8086333,746
0.8103,554
0.8119667,502
0.8136333,785
0.8153,652
0.8169667,717
0.8186333,635
0.8203,724
0.8219666,659
0.8236333,588
0.8253,581
0.8269666,670
0.8286333,577
0.8303,605
0.8319666,632
0.8336333,623
0.8353,614
0.8369667,625
0.8386334,636
0.8403,600
0.8419667,541
0.8436334,611
0.8453,579
0.8469667,605
0.8486333,587
0.8503,709
0.8519667,704
0.8536333,568
0.8553,551
0.8569667,623
0.8586333,641
0.8603,581
0.8619667,608
0.8636333,636
0.8653,649
0.8669667,662
0.8686333,669
0.8703,644
0.8719667,519
0.8736333,515
0.8753,683
0.8769667,720
0.8786333,626
0.8803,650
0.8819667,741
0.8836333,762
0.8853,915
0.8869666,1302
0.8886333,1198
0.8903,1705
0.8919666,1790
0.8936333,1538
0.8953,1522
0.8969667,1647
0.8986334,1773
0.9003,1864
0.9019667,1887
0.9036334,1820
0.9053,1754
0.9069667,1863
0.9086334,1937
0.9103,2010
0.9119667,2212
0.9136333,2339
0.9153,2409
0.9169667,1969
0.9186333,2011
0.9203,2091
0.9219667,1958
0.9236333,2019
0.9253,2142
0.9269667,1969
0.9286333,2036
0.9303,2020
0.9319667,2020
0.9336333,1825
0.9353,1908
0.9369667,1866
0.9386333,1740
0.9403,1912
0.9419667,1474
0.9436333,1917
0.9453,1371
0.9469666,1638
0.9486333,1820
0.9503,1768
0.9519666,1534
0.9536333,1620
0.9553,1478
0.9569666,1386
0.9586333,1187
0.9603,1307
0.9619667,1017
0.9636334,1186
0.9653,1100
0.9669667,1020
0.9686334,897
0.9703,1018
0.9719667,1009
0.9736333,851
0.9753,680
0.9769667,973
0.9786333,906
0.9803,765
0.9819667,848
0.9836333,762
0.9853,703
0.9869667,639
0.9886333,646
0.9903,551
0.9919667,656
0.9936333,565
0.9953,626
0.9969667,529
0.9986333,610
1.0003,564
1.001967,466
1.003633,670
1.0053,613
1.006967,612
1.008633,655
1.0103,408
1.011967,474
1.013633,529
1.0153,622
1.016967,579
1.018633,536
1.0203,525
1.021967,515
1.023633,451
1.0253,515
1.026967,500
1.028633,485
1.0303,502
1.031967,519
1.033633,594
1.0353,624
1.036967,567
1.038633,511
1.0403,461
1.041967,511
1.043633,541
1.0453,570
1.046967,465
1.048633,494
1.0503,435
1.051967,425
1.053633,462
1.0553,583
1.056967,636
1.058633,618
1.0603,568
1.061967,517
1.063633,485
1.0653,594
1.066967,486
1.068633,452
1.0703,627
1.071967,596
1.073633,723
1.0753,746
1.076967,617
1.078633,518
1.0803,548
1.081967,436
1.083633,557
1.0853,438
1.086967,456
1.088633,520
1.0903,543
1.091967,555
1.093633,567
1.0953,600
1.096967,504
1.098633,545
1.1003,561
1.101967,576
1.103633,561
1.1053,419
1.106967,568
1.108633,522
1.1103,476
1.111967,467
1.113633,470
1.1153,486
1.116967,503
1.118633,580
1.1203,574
1.121967,557
1.123633,578
1.1253,599
1.126967,530
1.128633,623
1.1303,557
1.131967,531
1.133633,456
1.1353,499
1.136967,543
1.138633,436
1.1403,540
1.141967,576
1.143633,590
1.1453,526
1.146967,489
1.148633,612
1.1503,569
1.151967,543
1.153633,582
1.1553,620
1.156967,498
1.158633,599
1.1603,607
1.161967,350
1.163633,475
1.1653,393
1.166967,445
1.168633,451
1.1703,482
1.171967,513
1.173633,517
1.1753,521
1.176967,555
1.178633,567
1.1803,578
1.181967,565
1.183633,525
1.1853,484
1.186967,452
1.188633,610
1.1903,658
1.191967,528
1.193633,568
1.1953,599
1.196967,488
1.198633,610
