"SampleName","A2Rd2_02-17"
"Target Mass 1",
"Column Name","IA-3 (3um, 4.6X100)"
"Channel","QDa 1: SIR Ch1"
0.00195,452
0.003616667,456
0.005283333,603
0.00695,640
0.008616666,413
0.01028333,472
0.01195,598
0.01361667,479
0.01528333,456
0.01695,399
0.01861667,452
0.02028333,441
0.02195,431
0.02361667,417
0.02528333,442
0.02695,452
0.02861667,462
0.03028333,424
0.03195,594
0.03361667,600
0.03528333,365
0.03695,528
0.03861667,523
0.04028333,476
0.04195,536
0.04361667,476
0.04528333,448
0.04695,599
0.04861667,369
0.05028334,494
0.05195,535
0.05361667,406
0.05528333,496
0.05695,454
0.05861667,438
0.06028333,423
0.06195,408
0.06361666,421
0.06528334,435
0.06695,431
0.06861667,428
0.07028333,423
0.07195,418
0.07361667,570
0.07528333,573
0.07695,563
0.07861666,404
0.08028334,393
0.08195,558
0.08361667,539
0.08528333,555
0.08695,598
0.08861667,356
0.09028333,476
0.09195,495
0.09361666,517
0.09528334,474
0.09695,452
0.09861667,431
0.1002833,466
0.10195,384
0.1036167,463
0.1052833,464
0.10695,513
0.1086167,524
0.1102833,449
0.11195,455
0.1136167,462
0.1152833,347
0.11695,492
0.1186167,487
0.1202833,461
0.12195,444
0.1236167,427
0.1252833,460
0.12695,433
0.1286167,458
0.1302833,483
0.13195,506
0.1336167,563
0.1352833,553
0.13695,328
0.1386167,379
0.1402833,606
0.14195,450
0.1436167,499
0.1452833,524
0.14695,530
0.1486167,455
0.1502833,514
0.15195,554
0.1536167,464
0.1552833,492
0.15695,495
0.1586167,454
0.1602833,414
0.16195,536
0.1636167,477
0.1652833,552
0.16695,494
0.1686167,472
0.1702833,463
0.17195,457
0.1736167,452
0.1752833,526
0.17695,516
0.1786167,419
0.1802833,525
0.18195,515
0.1836167,483
0.1852833,318
0.18695,366
0.1886167,401
0.1902833,523
0.19195,495
0.1936167,447
0.1952833,439
0.19695,390
0.1986167,508
0.2002833,467
0.20195,418
0.2036167,373
0.2052833,385
0.20695,398
0.2086167,427
0.2102833,456
0.21195,354
0.2136167,504
0.2152833,350
0.21695,520
0.2186167,499
0.2202833,548
0.22195,410
0.2236167,596
0.2252833,355
0.22695,414
0.2286167,419
0.2302833,537
0.23195,488
0.2336167,489
0.2352833,458
0.23695,428
0.2386167,537
0.2402833,604
0.24195,343
0.2436167,555
0.2452833,387
0.24695,414
0.2486167,413
0.2502833,378
0.25195,343
0.2536167,391
0.2552833,440
0.25695,439
0.2586167,409
0.2602833,451
0.26195,298
0.2636333,513
0.2652833,338
0.26695,522
0.2686167,403
0.2702833,462
0.27195,441
0.2736167,450
0.2753,488
0.27695,510
0.2786167,517
0.2803,433
0.28195,399
0.2836167,479
0.2852833,472
0.28695,465
0.2886167,457
0.2902833,462
0.29195,464
0.2936167,467
0.2952833,425
0.29695,573
0.2986333,563
0.3002833,512
0.30195,461
0.3036167,576
0.3053,393
0.30695,615
0.3086167,537
0.3102833,513
0.31195,506
0.3136167,401
0.3153,652
0.31695,681
0.3186333,550
0.3202833,586
0.3219667,550
0.3236167,516
0.3253,529
0.32695,524
0.3286167,518
0.3302833,495
0.33195,420
0.3336333,345
0.3352833,421
0.3369667,406
0.3386333,375
0.3403,377
0.34195,522
0.3436167,503
0.3452833,433
0.34695,541
0.3486333,382
0.3503,521
0.35195,509
0.3536333,495
0.3553,454
0.3569667,414
0.3586167,616
0.3602833,681
0.36195,676
0.3636167,834
0.3653,1374
0.36695,2262
0.3686333,3121
0.3702833,3901
0.3719667,3896
0.3736333,4282
0.3753,4769
0.3769667,4678
0.3786167,5871
0.3803,6000
0.3819667,5454
0.3836333,5350
0.3853,4518
0.3869667,3718
0.3886333,3478
0.3903,2237
0.3919667,2102
0.3936333,1668
0.3953,1389
0.3969667,1074
0.3986333,978
0.4003,1226
0.4019667,1249
0.4036333,947
0.4053,1049
0.4069667,1083
0.4086333,1090
0.4103,1160
0.4119667,1167
0.4136333,1106
0.4153,1116
0.4169667,1126
0.4186333,1257
0.4203,1259
0.4219667,1261
0.4236333,1321
0.4253,1287
0.4269667,1253
0.4286333,1286
0.4303,1320
0.4319667,1593
0.4336333,1998
0.4353,2832
0.4369667,4883
0.4386333,7015
0.4403,11760
0.4419667,17972
0.4436333,26616
0.4453,36944
0.4469667,49328
0.4486333,63648
0.4503,77936
0.4519667,93888
0.4536333,110000
0.4553,120640
0.4569667,132608
0.4586333,143424
0.4603,147776
0.4619667,153728
0.4636333,160896
0.4653,169536
0.4669667,172288
0.4686333,187648
0.4703,195648
0.4719667,210880
0.4736333,216128
0.4753,227008
0.4769667,233792
0.4786333,231424
0.4803,220352
0.4819667,202048
0.4836333,186880
0.4853,166400
0.4869667,148608
0.4886333,129664
0.4903,103936
0.4919667,89840
0.4936333,69872
0.4953,58256
0.4969667,46560
0.4986333,36608
0.5003,28500
0.5019667,21856
0.5036333,18240
0.5053,14928
0.5069667,12384
0.5086333,10624
0.5103,8360
0.5119666,6588
0.5136333,5965
0.5153,5974
0.5169666,5414
0.5186333,4637
0.5203,4044
0.5219667,3602
0.5236334,3565
0.5253,3858
0.5269667,3567
0.5286334,3045
0.5303,3393
0.5319667,3071
0.5336334,2761
0.5353,2662
0.5369667,2539
0.5386333,2464
0.5403,2389
0.5419667,2516
0.5436333,2440
0.5453,2306
0.5469667,2242
0.5486333,2056
0.5503,2064
0.5519667,2092
0.5536333,1817
0.5553,1891
0.5569667,1788
0.5586333,1680
0.5603,1556
0.5619667,1644
0.5636333,1732
0.5653,1694
0.5669667,1220
0.5686333,1294
0.5703,1257
0.5719666,1255
0.5736333,1158
0.5753,1061
0.5769666,1368
0.5786333,1422
0.5803,1376
0.5819666,1079
0.5836333,1245
0.5853,1349
0.5869667,1149
0.5886334,1231
0.5903,1155
0.5919667,1160
0.5936334,1164
0.5953,1277
0.5969667,1251
0.5986333,1227
0.6003,1184
0.6019667,1285
0.6036333,1301
0.6053,1307
0.6069667,1313
0.6086333,1288
0.6103,1262
0.6119667,1181
0.6136333,1150
0.6153,1220
0.6169667,1047
0.6186333,1181
0.6203,1120
0.6219667,1169
0.6236333,1150
0.6253,1130
0.6269667,1176
0.6286333,1129
0.6303,892
0.6319667,1026
0.6336333,1196
0.6353,917
0.6369666,827
0.6386333,1025
0.6403,1013
0.6419666,1000
0.6436333,944
0.6453,887
0.6469667,862
0.6486334,858
0.6503,783
0.6519667,836
0.6536334,858
0.6553,701
0.6569667,797
0.6586334,721
0.6603,796
0.6619667,871
0.6636333,648
0.6653,834
0.6669667,652
0.6686333,878
0.6703,802
0.6719667,908
0.6736333,866
0.6753,776
0.6769667,839
0.6786333,886
0.6803,855
0.6819667,742
0.6836333,666
0.6853,862
0.6869667,736
0.6886333,741
0.6903,755
0.6919667,745
0.6936333,734
0.6953,788
0.6969666,789
0.6986333,789
0.7003,790
0.7019666,790
0.7036333,745
0.7053,912
0.7069666,899
0.7086333,896
0.7103,691
0.7119667,754
0.7136334,689
0.7153,737
0.7169667,666
0.7186334,692
0.7203,718
0.7219667,679
0.7236333,639
0.7253,679
0.7269667,718
0.7286333,904
0.7303,931
0.7319667,747
0.7336333,877
0.7353,681
0.7369667,702
0.7386333,713
0.7403,689
0.7419667,665
0.7436333,784
0.7453,834
0.7469667,866
0.7486333,853
0.7503,647
0.7519667,713
0.7536333,616
0.7553,736
0.7569667,769
0.7586333,596
0.7603,799
0.7619666,874
0.7636333,713
0.7653,662
0.7669666,869
0.7686333,614
0.7703,974
0.7719667,842
0.7736334,851
0.7753,588
0.7769667,745
0.7786334,822
0.7803,740
0.7819667,622
0.7836334,741
0.7853,907
0.7869667,865
0.7886333,702
0.7903,730
0.7919667,858
0.7936333,737
0.7953,772
0.7969667,847
0.7986333,819
0.8003,792
0.8019667,778
0.8036333,815
0.8053,745
0.8069667,752
0.8086333,758
0.8103,885
0.8119667,929
0.8136333,873
0.8153,896
0.8169667,919
0.8186333,935
0.8203,923
0.8219666,804
0.8236333,820
0.8253,969
0.8269666,896
0.8286333,858
0.8303,905
0.8319666,834
0.8336333,881
0.8353,928
0.8369667,900
0.8386334,872
0.8403,828
0.8419667,788
0.8436334,849
0.8453,911
0.8469667,895
0.8486333,880
0.8503,1030
0.8519667,1026
0.8536333,1066
0.8553,941
0.8569667,979
0.8586333,943
0.8603,820
0.8619667,780
0.8636333,725
0.8653,763
0.8669667,780
0.8686333,798
0.8703,792
0.8719667,785
0.8736333,815
0.8753,846
0.8769667,742
0.8786333,893
0.8803,1051
0.8819667,1426
0.8836333,1978
0.8853,2201
0.8869666,2633
0.8886333,2999
0.8903,3142
0.8919666,3548
0.8936333,3344
0.8953,3211
0.8969667,3237
0.8986334,3263
0.9003,3276
0.9019667,3288
0.9036334,3088
0.9053,3218
0.9069667,3347
0.9086334,3462
0.9103,3279
0.9119667,3529
0.9136333,3250
0.9153,3611
0.9169667,3245
0.9186333,3421
0.9203,3290
0.9219667,3272
0.9236333,3253
0.9253,3215
0.9269667,3142
0.9286333,3108
0.9303,3118
0.9319667,3128
0.9336333,3146
0.9353,3165
0.9369667,3198
0.9386333,2819
0.9403,2722
0.9419667,2889
0.9436333,2646
0.9453,2692
0.9469666,2915
0.9486333,2849
0.9503,2521
0.9519666,2366
0.9536333,2034
0.9553,1943
0.9569666,2289
0.9586333,2084
0.9603,1805
0.9619667,1812
0.9636334,1595
0.9653,1795
0.9669667,1535
0.9686334,1469
0.9703,1283
0.9719667,1328
0.9736333,1489
0.9753,1299
0.9769667,1170
0.9786333,1270
0.9803,1206
0.9819667,1046
0.9836333,905
0.9853,897
0.9869667,834
0.9886333,715
0.9903,725
0.9919667,567
0.9936333,759
0.9953,722
0.9969667,587
0.9986333,651
1.0003,624
1.001967,745
1.003633,755
1.0053,678
1.006967,682
1.008633,673
1.0103,512
1.011967,677
1.013633,580
1.0153,624
1.016967,667
1.018633,677
1.0203,686
1.021967,561
1.023633,651
1.0253,629
1.026967,650
1.028633,637
1.0303,621
1.031967,637
1.033633,621
1.0353,634
1.036967,648
1.038633,672
1.0403,659
1.041967,646
1.043633,755
1.0453,730
1.046967,701
1.048633,663
1.0503,599
1.051967,721
1.053633,667
1.0553,644
1.056967,654
1.058633,760
1.0603,500
1.061967,735
1.063633,515
1.0653,738
1.066967,682
1.068633,590
1.0703,641
1.071967,691
1.073633,649
1.0753,631
1.076967,612
1.078633,628
1.0803,624
1.081967,619
1.083633,655
1.0853,658
1.086967,662
1.088633,617
1.0903,660
1.091967,599
1.093633,701
1.0953,718
1.096967,769
1.098633,760
1.1003,726
1.101967,666
1.103633,721
1.1053,519
1.106967,548
1.108633,687
1.1103,755
1.111967,614
1.113633,757
1.1153,762
1.116967,581
1.118633,480
1.1203,710
1.121967,643
1.123633,547
1.1253,588
1.126967,630
1.128633,714
1.1303,713
1.131967,712
1.133633,594
1.1353,770
1.136967,717
1.138633,664
1.1403,711
1.141967,620
1.143633,678
1.1453,706
1.146967,735
1.148633,831
1.1503,854
1.151967,869
1.153633,895
1.1553,657
1.156967,606
1.158633,723
1.1603,677
1.161967,793
1.163633,778
1.1653,729
1.166967,761
1.168633,794
1.1703,785
1.171967,776
1.173633,783
1.1753,871
1.176967,962
1.178633,1013
1.1803,867
1.181967,904
1.183633,777
1.1853,951
1.186967,998
1.188633,879
1.1903,954
1.191967,843
1.193633,858
1.1953,975
1.196967,825
1.198633,1023
