"SampleName","A2Rd2_02-93"
"Target Mass 1",
"Column Name","IA-3 (3um, 4.6X100)"
"Channel","QDa 1: SIR Ch1"
0.00195,388
0.003616667,475
0.005283333,468
0.00695,465
0.008616666,477
0.01028333,455
0.01195,525
0.01361667,525
0.01528333,438
0.01695,580
0.01861667,555
0.02028333,531
0.02195,567
0.02361667,604
0.02528333,427
0.02695,482
0.02861667,613
0.03028333,489
0.03195,577
0.03361667,480
0.03528333,489
0.03695,450
0.03861667,412
0.04028333,462
0.04195,552
0.04361667,558
0.04528333,608
0.04695,594
0.04861667,539
0.05028334,493
0.05195,491
0.05361667,466
0.05528333,441
0.05695,492
0.05861667,543
0.06028333,513
0.06195,508
0.06361666,504
0.06528334,553
0.06695,451
0.06861667,643
0.07028333,598
0.07195,605
0.07361667,576
0.07528333,556
0.07695,552
0.07861666,499
0.08028334,538
0.08195,504
0.08361667,470
0.08528333,477
0.08695,485
0.08861667,408
0.09028333,535
0.09195,555
0.09361666,573
0.09528334,585
0.09695,483
0.09861667,514
0.1002833,615
0.10195,522
0.1036167,559
0.1052833,525
0.10695,530
0.1086167,490
0.1102833,526
0.11195,626
0.1136167,599
0.1152833,565
0.11695,500
0.1186167,379
0.1202833,652
0.12195,334
0.1236167,460
0.1252833,513
0.12695,518
0.1286167,523
0.1302833,486
0.13195,471
0.1336167,523
0.1352833,464
0.13695,625
0.1386167,582
0.1402833,470
0.14195,660
0.1436167,555
0.1452833,652
0.14695,426
0.1486167,471
0.1502833,608
0.15195,474
0.1536167,495
0.1552833,561
0.15695,530
0.1586167,498
0.1602833,546
0.16195,563
0.1636167,466
0.1652833,514
0.16695,515
0.1686167,515
0.1702833,601
0.17195,640
0.1736167,473
0.1753,420
0.17695,527
0.1786167,391
0.1802833,484
0.18195,486
0.1836167,457
0.1852833,451
0.18695,445
0.1886167,395
0.1902833,530
0.19195,573
0.1936333,519
0.1952833,476
0.19695,501
0.1986167,527
0.2002833,498
0.20195,469
0.2036167,551
0.2052833,460
0.20695,569
0.2086167,544
0.2103,478
0.2119667,531
0.2136167,510
0.2152833,489
0.21695,511
0.2186167,534
0.2203,490
0.22195,445
0.2236167,531
0.2252833,421
0.22695,549
0.2286333,490
0.2302833,522
0.2319667,544
0.2336167,606
0.2352833,578
0.2369667,458
0.2386167,621
0.2402833,469
0.24195,575
0.2436167,612
0.2453,522
0.24695,597
0.2486333,593
0.2502833,650
0.2519667,498
0.2536333,581
0.2552833,503
0.25695,576
0.2586167,568
0.2603,559
0.2619667,592
0.2636333,577
0.2653,562
0.2669667,444
0.2686333,498
0.2703,432
0.2719667,484
0.2736333,535
0.2753,421
0.27695,483
0.2786333,514
0.2803,491
0.2819667,556
0.2836333,408
0.2853,467
0.2869667,552
0.2886333,525
0.2903,565
0.2919667,399
0.2936333,453
0.2953,535
0.2969667,572
0.2986333,609
0.3003,505
0.3019667,616
0.3036333,377
0.3053,623
0.3069667,642
0.3086333,570
0.3103,654
0.3119667,535
0.3136333,478
0.3153,562
0.3169667,574
0.3186333,546
0.3203,518
0.3219667,538
0.3236333,589
0.3253,572
0.3269667,555
0.3286333,524
0.3303,530
0.3319667,535
0.3336333,503
0.3353,471
0.3369667,486
0.3386333,533
0.3403,534
0.3419667,534
0.3436333,490
0.3453,445
0.3469667,583
0.3486333,566
0.3503,605
0.3519667,624
0.3536333,604
0.3553,455
0.3569667,636
0.3586333,615
0.3603,618
0.3619667,684
0.3636333,876
0.3653,1144
0.3669667,1651
0.3686333,2624
0.3703,3805
0.3719667,4263
0.3736333,4147
0.3753,3881
0.3769667,4358
0.3786333,3528
0.3803,4069
0.3819667,4760
0.3836333,4076
0.3853,4429
0.3869667,3788
0.3886333,3262
0.3903,3070
0.3919667,2568
0.3936333,2018
0.3953,1690
0.3969667,1586
0.3986333,1362
0.4003,1219
0.4019667,1274
0.4036333,1032
0.4053,1401
0.4069667,1372
0.4086333,1177
0.4103,1066
0.4119667,1153
0.4136333,1213
0.4153,1272
0.4169667,1434
0.4186333,1458
0.4203,1425
0.4219667,1600
0.4236333,1471
0.4253,1342
0.4269667,1388
0.4286333,1513
0.4303,2029
0.4319667,1875
0.4336333,2049
0.4353,2899
0.4369667,4067
0.4386333,6279
0.4403,10164
0.4419667,16372
0.4436333,26976
0.4453,37136
0.4469667,51984
0.4486333,70160
0.4503,87840
0.4519667,106992
0.4536333,122576
0.4553,137856
0.4569667,153536
0.4586333,162176
0.4603,169088
0.4619667,174848
0.4636333,177600
0.4653,180032
0.4669667,180416
0.4686333,177664
0.4703,179648
0.4719667,177984
0.4736333,181760
0.4753,183680
0.4769667,190848
0.4786333,194944
0.4803,200576
0.4819667,195712
0.4836333,198912
0.4853,190848
0.4869667,182080
0.4886333,168960
0.4903,158912
0.4919667,142272
0.4936333,124640
0.4953,110448
0.4969667,96688
0.4986333,79744
0.5003,66816
0.5019667,54896
0.5036333,46624
0.5053,38432
0.5069667,31880
0.5086333,26184
0.5103,21340
0.5119666,17584
0.5136333,14472
0.5153,12732
0.5169666,10432
0.5186333,9124
0.5203,7875
0.5219667,6886
0.5236334,6656
0.5253,5695
0.5269667,5512
0.5286334,4651
0.5303,4373
0.5319667,4187
0.5336334,4305
0.5353,3606
0.5369667,3354
0.5386333,3181
0.5403,3040
0.5419667,2660
0.5436333,2768
0.5453,2361
0.5469667,2654
0.5486333,2406
0.5503,2232
0.5519667,2432
0.5536333,2327
0.5553,2451
0.5569667,2181
0.5586333,2272
0.5603,2093
0.5619667,1686
0.5636333,1869
0.5653,1976
0.5669667,1541
0.5686333,1905
0.5703,1862
0.5719666,1773
0.5736333,1513
0.5753,1488
0.5769666,1487
0.5786333,1577
0.5803,1572
0.5819666,1568
0.5836333,1491
0.5853,1523
0.5869667,1555
0.5886334,1529
0.5903,1504
0.5919667,1639
0.5936334,1726
0.5953,1759
0.5969667,1443
0.5986333,1598
0.6003,1506
0.6019667,1519
0.6036333,1532
0.6053,1407
0.6069667,1411
0.6086333,1415
0.6103,1362
0.6119667,1660
0.6136333,1760
0.6153,1511
0.6169667,1270
0.6186333,1608
0.6203,1351
0.6219667,1359
0.6236333,1491
0.6253,1194
0.6269667,1373
0.6286333,1172
0.6303,1140
0.6319667,1258
0.6336333,1262
0.6353,1241
0.6369666,1268
0.6386333,1158
0.6403,1002
0.6419666,1114
0.6436333,1030
0.6453,1096
0.6469667,1074
0.6486334,1052
0.6503,1076
0.6519667,1059
0.6536334,1042
0.6553,1076
0.6569667,1165
0.6586334,1166
0.6603,1088
0.6619667,985
0.6636333,1061
0.6653,960
0.6669667,939
0.6686333,1042
0.6703,968
0.6719667,956
0.6736333,1064
0.6753,987
0.6769667,910
0.6786333,956
0.6803,896
0.6819667,989
0.6836333,862
0.6853,868
0.6869667,874
0.6886333,950
0.6903,1001
0.6919667,1032
0.6936333,845
0.6953,958
0.6969666,867
0.6986333,833
0.7003,922
0.7019666,922
0.7036333,805
0.7053,903
0.7069666,906
0.7086333,965
0.7103,784
0.7119667,795
0.7136334,950
0.7153,1065
0.7169667,1044
0.7186334,875
0.7203,894
0.7219667,823
0.7236333,899
0.7253,865
0.7269667,894
0.7286333,922
0.7303,946
0.7319667,859
0.7336333,902
0.7353,845
0.7369667,692
0.7386333,873
0.7403,852
0.7419667,831
0.7436333,851
0.7453,835
0.7469667,819
0.7486333,835
0.7503,851
0.7519667,773
0.7536333,861
0.7553,840
0.7569667,819
0.7586333,824
0.7603,829
0.7619666,856
0.7636333,938
0.7653,1005
0.7669666,950
0.7686333,718
0.7703,852
0.7719667,794
0.7736334,897
0.7753,853
0.7769667,880
0.7786334,758
0.7803,820
0.7819667,827
0.7836334,769
0.7853,750
0.7869667,798
0.7886333,791
0.7903,783
0.7919667,895
0.7936333,940
0.7953,900
0.7969667,854
0.7986333,1002
0.8003,689
0.8019667,704
0.8036333,946
0.8053,929
0.8069667,870
0.8086333,780
0.8103,888
0.8119667,884
0.8136333,963
0.8153,874
0.8169667,903
0.8186333,862
0.8203,912
0.8219666,749
0.8236333,719
0.8253,852
0.8269666,842
0.8286333,780
0.8303,795
0.8319666,810
0.8336333,782
0.8353,786
0.8369667,796
0.8386334,806
0.8403,838
0.8419667,805
0.8436334,773
0.8453,844
0.8469667,870
0.8486333,896
0.8503,817
0.8519667,822
0.8536333,835
0.8553,858
0.8569667,880
0.8586333,795
0.8603,818
0.8619667,715
0.8636333,766
0.8653,760
0.8669667,738
0.8686333,717
0.8703,855
0.8719667,831
0.8736333,776
0.8753,861
0.8769667,1191
0.8786333,1637
0.8803,1954
0.8819667,2545
0.8836333,2516
0.8853,3296
0.8869666,3132
0.8886333,3285
0.8903,3672
0.8919666,3889
0.8936333,3533
0.8953,3515
0.8969667,3908
0.8986334,3861
0.9003,3815
0.9019667,3714
0.9036334,3605
0.9053,3496
0.9069667,3602
0.9086334,3603
0.9103,3605
0.9119667,3764
0.9136333,3720
0.9153,3677
0.9169667,3513
0.9186333,3626
0.9203,3739
0.9219667,3673
0.9236333,3606
0.9253,3945
0.9269667,3976
0.9286333,3964
0.9303,3712
0.9319667,3947
0.9336333,3737
0.9353,3799
0.9369667,3591
0.9386333,3511
0.9403,3284
0.9419667,2933
0.9436333,3213
0.9453,2857
0.9469666,3032
0.9486333,2484
0.9503,2698
0.9519666,2550
0.9536333,2533
0.9553,2600
0.9569666,2320
0.9586333,1960
0.9603,1860
0.9619667,1839
0.9636334,1818
0.9653,1824
0.9669667,1754
0.9686334,1697
0.9703,1822
0.9719667,1541
0.9736333,1479
0.9753,1367
0.9769667,1380
0.9786333,1220
0.9803,1067
0.9819667,1113
0.9836333,1168
0.9853,1154
0.9869667,804
0.9886333,866
0.9903,932
0.9919667,890
0.9936333,846
0.9953,874
0.9969667,728
0.9986333,748
1.0003,707
1.001967,644
1.003633,679
1.0053,716
1.006967,754
1.008633,703
1.0103,653
1.011967,712
1.013633,542
1.0153,587
1.016967,650
1.018633,638
1.0203,625
1.021967,666
1.023633,708
1.0253,561
1.026967,762
1.028633,655
1.0303,623
1.031967,555
1.033633,668
1.0353,697
1.036967,638
1.038633,578
1.0403,574
1.041967,634
1.043633,646
1.0453,608
1.046967,571
1.048633,661
1.0503,600
1.051967,610
1.053633,615
1.0553,603
1.056967,616
1.058633,594
1.0603,571
1.061967,559
1.063633,548
1.0653,770
1.066967,829
1.068633,768
1.0703,712
1.071967,713
1.073633,607
1.0753,750
1.076967,719
1.078633,705
1.0803,544
1.081967,628
1.083633,743
1.0853,686
1.086967,703
1.088633,668
1.0903,674
1.091967,664
1.093633,655
1.0953,674
1.096967,694
1.098633,606
1.1003,638
1.101967,670
1.103633,738
1.1053,804
1.106967,499
1.108633,664
1.1103,784
1.111967,674
1.113633,565
1.1153,743
1.116967,710
1.118633,776
1.1203,712
1.121967,647
1.123633,675
1.1253,623
1.126967,690
1.128633,659
1.1303,623
1.131967,677
1.133633,731
1.1353,647
1.136967,562
1.138633,728
1.1403,689
1.141967,683
1.143633,709
1.1453,738
1.146967,544
1.148633,789
1.1503,526
1.151967,491
1.153633,715
1.1553,581
1.156967,608
1.158633,634
1.1603,861
1.161967,873
1.163633,745
1.1653,680
1.166967,881
1.168633,750
1.1703,620
1.171967,661
1.173633,700
1.1753,734
1.176967,720
1.178633,823
1.1803,800
1.181967,777
1.183633,592
1.1853,604
1.186967,831
1.188633,742
1.1903,747
1.191967,747
1.193633,747
1.1953,658
1.196967,712
1.198633,793
