"SampleName","A2Rd2_02-19"
"Target Mass 1",
"Column Name","IA-3 (3um, 4.6X100)"
"Channel","QDa 1: SIR Ch2"
0.00195,534
0.003616667,591
0.005283333,736
0.00695,782
0.008616666,936
0.01028333,923
0.01195,1033
0.01361667,1063
0.01528333,988
0.01695,819
0.01861667,1127
0.02028333,744
0.02195,870
0.02361667,1013
0.02528333,984
0.02695,907
0.02861667,924
0.03028333,1024
0.03195,1050
0.03361667,1080
0.03528333,1085
0.03695,986
0.03861667,1017
0.04028333,1089
0.04195,922
0.04361667,1019
0.04528333,942
0.04695,1100
0.04861667,1130
0.05028334,806
0.05195,768
0.05361667,885
0.05528333,864
0.05695,885
0.05861667,905
0.06028333,817
0.06195,840
0.06361666,863
0.06528334,908
0.06695,744
0.06861667,997
0.07028333,1107
0.07195,685
0.07361667,905
0.07528333,673
0.07695,785
0.07861666,946
0.08028334,795
0.08195,814
0.08361667,836
0.08528333,858
0.08695,834
0.08861667,874
0.09028333,655
0.09195,780
0.09361666,906
0.09528334,935
0.09695,792
0.09861667,987
0.1002833,892
0.10195,1070
0.1036167,945
0.1052833,956
0.10695,871
0.1086167,930
0.1102833,869
0.11195,789
0.1136167,825
0.1152833,1020
0.11695,999
0.1186167,781
0.1202833,974
0.12195,861
0.1236167,912
0.1252833,807
0.12695,883
0.1286167,764
0.1302833,849
0.13195,846
0.1336167,638
0.1352833,977
0.13695,866
0.1386167,789
0.1402833,870
0.14195,923
0.1436167,595
0.1452833,785
0.14695,965
0.1486167,695
0.1502833,864
0.15195,605
0.1536167,774
0.1552833,822
0.15695,958
0.1586167,953
0.1602833,852
0.16195,882
0.1636167,883
0.1652833,972
0.16695,978
0.1686167,791
0.1702833,736
0.17195,933
0.1736167,833
0.1752833,926
0.17695,702
0.1786167,785
0.1802833,773
0.18195,895
0.1836167,893
0.1852833,988
0.18695,594
0.1886167,814
0.1902833,802
0.19195,945
0.1936167,840
0.1952833,862
0.19695,884
0.1986167,904
0.2002833,818
0.20195,943
0.2036167,989
0.2052833,935
0.20695,849
0.2086167,937
0.2102833,966
0.21195,1103
0.2136167,1024
0.2152833,854
0.21695,1048
0.2186167,963
0.2202833,913
0.22195,1128
0.2236167,1085
0.2252833,1225
0.22695,1136
0.2286167,1095
0.2302833,914
0.23195,1244
0.2336167,1133
0.2352833,1149
0.23695,1070
0.2386167,1072
0.2402833,969
0.24195,1107
0.2436167,1056
0.2453,1011
0.24695,1211
0.2486167,1155
0.2502833,1128
0.25195,1014
0.2536167,1053
0.2552833,1065
0.25695,966
0.2586167,1020
0.2602833,1071
0.26195,1170
0.2636333,1135
0.2652833,986
0.26695,1243
0.2686167,1061
0.2702833,1026
0.27195,1243
0.2736167,1026
0.2753,985
0.2769667,1150
0.2786167,964
0.2803,947
0.28195,1093
0.2836167,1016
0.2852833,998
0.28695,1102
0.2886167,821
0.2902833,782
0.29195,1080
0.2936167,1084
0.2952833,908
0.29695,1044
0.2986333,1144
0.3002833,1113
0.30195,1038
0.3036167,1121
0.3052833,1157
0.30695,1108
0.3086167,1183
0.3102833,1161
0.31195,1139
0.3136167,1227
0.3153,1145
0.31695,1063
0.3186167,1292
0.3203,1253
0.32195,1215
0.3236167,1318
0.3252833,1353
0.3269667,1081
0.3286167,1281
0.3302833,994
0.33195,1024
0.3336333,1055
0.3352833,1156
0.3369667,1231
0.3386167,1332
0.3402833,1238
0.34195,1330
0.3436333,1351
0.3453,1371
0.34695,1350
0.3486167,1330
0.3503,1236
0.35195,1399
0.3536333,1374
0.3552833,1348
0.3569667,1298
0.3586333,1305
0.3603,1312
0.3619667,1538
0.3636167,1611
0.3652833,2455
0.36695,3040
0.3686333,3380
0.3703,3349
0.3719667,3448
0.3736333,3547
0.3753,3583
0.3769667,3502
0.3786333,3421
0.3802833,3346
0.3819667,2577
0.3836167,2581
0.3853,2358
0.3869667,1752
0.3886333,1297
0.3903,1100
0.3919667,1040
0.3936333,709
0.3953,570
0.3969667,650
0.3986333,580
0.4003,433
0.4019667,462
0.4036333,445
0.4053,495
0.4069667,518
0.4086333,594
0.4103,681
0.4119667,648
0.4136333,639
0.4153,694
0.4169667,642
0.4186333,649
0.4203,656
0.4219667,613
0.4236333,590
0.4253,567
0.4269667,608
0.4286333,619
0.4303,593
0.4319667,760
0.4336333,817
0.4353,826
0.4369667,1026
0.4386333,1147
0.4403,1033
0.4419667,828
0.4436333,990
0.4453,891
0.4469667,984
0.4486333,1076
0.4503,1070
0.4519667,1093
0.4536333,938
0.4553,1068
0.4569667,1199
0.4586333,1248
0.4603,1180
0.4619667,1124
0.4636333,1186
0.4653,1248
0.4669667,1413
0.4686333,1332
0.4703,1385
0.4719667,1432
0.4736333,1481
0.4753,1419
0.4769667,1366
0.4786333,1307
0.4803,1214
0.4819667,1266
0.4836333,1369
0.4853,1168
0.4869667,1254
0.4886333,1191
0.4903,1148
0.4919667,1040
0.4936333,1154
0.4953,946
0.4969667,1077
0.4986333,952
0.5003,1022
0.5019667,968
0.5036333,915
0.5053,1070
0.5069667,1084
0.5086333,1017
0.5103,866
0.5119666,942
0.5136333,926
0.5153,878
0.5169666,747
0.5186333,1046
0.5203,987
0.5219667,755
0.5236334,817
0.5253,711
0.5269667,858
0.5286334,825
0.5303,891
0.5319667,895
0.5336334,869
0.5353,855
0.5369667,841
0.5386333,1022
0.5403,998
0.5419667,841
0.5436333,1035
0.5453,857
0.5469667,929
0.5486333,1051
0.5503,983
0.5519667,915
0.5536333,1077
0.5553,831
0.5569667,923
0.5586333,930
0.5603,1080
0.5619667,1026
0.5636333,789
0.5653,810
0.5669667,858
0.5686333,932
0.5703,1007
0.5719666,960
0.5736333,942
0.5753,1044
0.5769666,1035
0.5786333,1026
0.5803,1087
0.5819666,943
0.5836333,1000
0.5853,1067
0.5869667,877
0.5886334,1024
0.5903,1033
0.5919667,872
0.5936334,867
0.5953,931
0.5969667,994
0.5986333,760
0.6003,1023
0.6019667,912
0.6036333,966
0.6053,1016
0.6069667,925
0.6086333,782
0.6103,841
0.6119667,996
0.6136333,915
0.6153,979
0.6169667,977
0.6186333,975
0.6203,1025
0.6219667,1042
0.6236333,1023
0.6253,884
0.6269667,918
0.6286333,952
0.6303,934
0.6319667,836
0.6336333,885
0.6353,828
0.6369666,982
0.6386333,1063
0.6403,765
0.6419666,837
0.6436333,951
0.6453,923
0.6469667,941
0.6486334,989
0.6503,962
0.6519667,934
0.6536334,790
0.6553,1052
0.6569667,956
0.6586334,916
0.6603,1086
0.6619667,891
0.6636333,1072
0.6653,777
0.6669667,930
0.6686333,843
0.6703,782
0.6719667,721
0.6736333,789
0.6753,800
0.6769667,998
0.6786333,950
0.6803,858
0.6819667,926
0.6836333,725
0.6853,1007
0.6869667,929
0.6886333,848
0.6903,980
0.6919667,901
0.6936333,907
0.6953,913
0.6969666,926
0.6986333,940
0.7003,932
0.7019666,924
0.7036333,870
0.7053,940
0.7069666,911
0.7086333,883
0.7103,918
0.7119667,847
0.7136334,872
0.7153,896
0.7169667,897
0.7186334,897
0.7203,1058
0.7219667,1066
0.7236333,1080
0.7253,1103
0.7269667,980
0.7286333,877
0.7303,981
0.7319667,837
0.7336333,770
0.7353,1039
0.7369667,974
0.7386333,997
0.7403,824
0.7419667,766
0.7436333,848
0.7453,839
0.7469667,831
0.7486333,862
0.7503,893
0.7519667,770
0.7536333,812
0.7553,854
0.7569667,789
0.7586333,794
0.7603,836
0.7619666,845
0.7636333,841
0.7653,837
0.7669666,884
0.7686333,869
0.7703,854
0.7719667,860
0.7736334,925
0.7753,774
0.7769667,900
0.7786334,885
0.7803,896
0.7819667,906
0.7836334,860
0.7853,776
0.7869667,840
0.7886333,941
0.7903,895
0.7919667,849
0.7936333,901
0.7953,953
0.7969667,1038
0.7986333,1123
0.8003,1114
0.8019667,1106
0.8036333,1168
0.8053,1250
0.8069667,981
0.8086333,1277
0.8103,1050
0.8119667,1084
0.8136333,1259
0.8153,1235
0.8169667,1160
0.8186333,1273
0.8203,899
0.8219666,1255
0.8236333,1261
0.8253,1246
0.8269666,1161
0.8286333,1145
0.8303,954
0.8319666,1062
0.8336333,1169
0.8353,972
0.8369667,987
0.8386334,1088
0.8403,1098
0.8419667,993
0.8436334,1017
0.8453,889
0.8469667,839
0.8486333,788
0.8503,921
0.8519667,809
0.8536333,1042
0.8553,1058
0.8569667,1063
0.8586333,1008
0.8603,854
0.8619667,897
0.8636333,862
0.8653,880
0.8669667,897
0.8686333,937
0.8703,958
0.8719667,1000
0.8736333,854
0.8753,891
0.8769667,971
0.8786333,956
0.8803,942
0.8819667,1190
0.8836333,1411
0.8853,1404
0.8869666,1532
0.8886333,1501
0.8903,1402
0.8919666,1194
0.8936333,1400
0.8953,1396
0.8969667,1321
0.8986334,1416
0.9003,1352
0.9019667,1355
0.9036334,1357
0.9053,1100
0.9069667,1428
0.9086334,1379
0.9103,1231
0.9119667,1336
0.9136333,1480
0.9153,1513
0.9169667,1199
0.9186333,1242
0.9203,1336
0.9219667,1524
0.9236333,1435
0.9253,1269
0.9269667,1122
0.9286333,1168
0.9303,1193
0.9319667,1173
0.9336333,1153
0.9353,1295
0.9369667,1147
0.9386333,999
0.9403,1384
0.9419667,1004
0.9436333,1236
0.9453,997
0.9469666,943
0.9486333,1163
0.9503,1003
0.9519666,1041
0.9536333,1080
0.9553,1094
0.9569666,1119
0.9586333,1013
0.9603,1058
0.9619667,902
0.9636334,900
0.9653,898
0.9669667,1113
0.9686334,1068
0.9703,913
0.9719667,924
0.9736333,899
0.9753,907
0.9769667,915
0.9786333,874
0.9803,832
0.9819667,1112
0.9836333,1096
0.9853,1077
0.9869667,1084
0.9886333,1001
0.9903,880
0.9919667,1066
0.9936333,1044
0.9953,1022
0.9969667,964
0.9986333,982
1.0003,1096
1.001967,1070
1.003633,930
1.0053,1056
1.006967,1037
1.008633,900
1.0103,1141
1.011967,1015
1.013633,894
1.0153,968
1.016967,1013
1.018633,1012
1.0203,1011
1.021967,967
1.023633,923
1.0253,989
1.026967,976
1.028633,964
1.0303,974
1.031967,875
1.033633,917
1.0353,827
1.036967,871
1.038633,916
1.0403,935
1.041967,975
1.043633,1015
1.0453,706
1.046967,965
1.048633,997
1.0503,986
1.051967,807
1.053633,816
1.0553,942
1.056967,877
1.058633,909
1.0603,805
1.061967,881
1.063633,822
1.0653,1061
1.066967,927
1.068633,793
1.0703,946
1.071967,871
1.073633,968
1.0753,950
1.076967,967
1.078633,967
1.0803,967
1.081967,921
1.083633,984
1.0853,672
1.086967,973
1.088633,939
1.0903,1016
1.091967,1006
1.093633,1163
1.0953,1062
1.096967,961
1.098633,1087
1.1003,973
1.101967,947
1.103633,1114
1.1053,899
1.106967,988
1.108633,962
1.1103,1022
1.111967,695
1.113633,1024
1.1153,1060
1.116967,933
1.118633,915
1.1203,888
1.121967,887
1.123633,886
1.1253,806
1.126967,867
1.128633,929
1.1303,895
1.131967,934
1.133633,874
1.1353,889
1.136967,903
1.138633,808
1.1403,979
1.141967,935
1.143633,947
1.1453,849
1.146967,775
1.148633,723
1.1503,1017
1.151967,1028
1.153633,744
1.1553,827
1.156967,786
1.158633,857
1.1603,927
1.161967,897
1.163633,879
1.1653,920
1.166967,872
1.168633,824
1.1703,806
1.171967,675
1.173633,810
1.1753,946
1.176967,944
1.178633,873
1.1803,848
1.181967,847
1.183633,826
1.1853,725
1.186967,751
1.188633,777
1.1903,827
1.191967,828
1.193633,860
1.1953,913
1.196967,652
1.198633,916
