"SampleName","A2Rd2_02-65"
"Target Mass 1",
"Column Name","IA-3 (3um, 4.6X100)"
"Channel","QDa 1: SIR Ch1"
0.00195,330
0.003616667,551
0.005283333,629
0.00695,444
0.008616666,544
0.01028333,496
0.01195,414
0.01361667,363
0.01528333,450
0.01695,388
0.01861667,390
0.02028333,392
0.02195,551
0.02361667,533
0.02528333,458
0.02695,485
0.02861667,439
0.03028333,425
0.03195,458
0.03361667,463
0.03528333,467
0.03695,474
0.03861667,471
0.04028333,469
0.04195,473
0.04361667,477
0.04528333,474
0.04695,492
0.04861667,483
0.05028334,474
0.05195,459
0.05361667,420
0.05528333,544
0.05695,594
0.05861667,520
0.06028333,538
0.06195,369
0.06361666,531
0.06528334,646
0.06695,475
0.06861667,453
0.07028333,473
0.07195,330
0.07361667,381
0.07528333,471
0.07695,565
0.07861666,482
0.08028334,569
0.08195,553
0.08361667,485
0.08528333,521
0.08695,556
0.08861667,565
0.09028333,430
0.09195,472
0.09361666,384
0.09528334,383
0.09695,403
0.09861667,422
0.1002833,476
0.10195,509
0.1036167,542
0.1052833,508
0.10695,526
0.1086167,557
0.1102833,498
0.11195,481
0.1136167,574
0.1152833,562
0.11695,551
0.1186167,472
0.1202833,387
0.12195,529
0.1236167,516
0.1252833,503
0.12695,397
0.1286167,537
0.1302833,487
0.13195,418
0.1336167,467
0.1352833,366
0.13695,477
0.1386167,436
0.1402833,475
0.14195,420
0.1436167,381
0.1452833,512
0.14695,556
0.1486167,467
0.1502833,528
0.15195,547
0.1536167,615
0.1552833,590
0.15695,462
0.1586167,352
0.1602833,460
0.16195,310
0.1636167,518
0.1652833,478
0.16695,507
0.1686167,546
0.1702833,392
0.17195,534
0.1736167,535
0.1752833,451
0.17695,367
0.1786167,434
0.1802833,426
0.18195,366
0.1836167,380
0.1852833,393
0.18695,397
0.1886167,448
0.1902833,499
0.19195,537
0.1936167,480
0.1952833,498
0.19695,450
0.1986167,372
0.2002833,435
0.20195,371
0.2036167,345
0.2052833,346
0.20695,347
0.2086167,384
0.2102833,422
0.21195,461
0.2136167,397
0.2152833,332
0.21695,425
0.2186167,444
0.2202833,446
0.22195,449
0.2236167,473
0.2252833,498
0.22695,483
0.2286167,539
0.2302833,522
0.23195,439
0.2336167,495
0.2352833,371
0.23695,436
0.2386167,460
0.2402833,393
0.24195,495
0.2436167,603
0.2452833,294
0.24695,505
0.2486167,647
0.2502833,544
0.25195,597
0.2536167,482
0.2552833,632
0.25695,407
0.2586167,406
0.2602833,430
0.26195,459
0.2636167,487
0.2652833,563
0.26695,331
0.2686167,630
0.2702833,522
0.27195,475
0.2736167,412
0.2752833,427
0.27695,439
0.2786167,452
0.2803,451
0.28195,450
0.2836167,448
0.2852833,446
0.28695,447
0.2886167,447
0.2902833,532
0.29195,569
0.2936167,645
0.2952833,553
0.29695,555
0.2986333,499
0.3002833,584
0.30195,540
0.3036167,538
0.3052833,458
0.30695,545
0.3086167,458
0.3102833,532
0.31195,504
0.3136167,491
0.3153,475
0.31695,459
0.3186167,482
0.3202833,485
0.32195,502
0.3236167,496
0.3252833,495
0.32695,466
0.3286167,490
0.3302833,514
0.33195,514
0.3336333,513
0.3352833,477
0.33695,442
0.3386167,469
0.3402833,432
0.3419667,463
0.3436167,540
0.3452833,527
0.34695,447
0.3486167,443
0.3503,487
0.35195,460
0.3536167,432
0.3553,440
0.35695,448
0.3586167,429
0.3602833,585
0.36195,591
0.3636167,818
0.3653,1173
0.36695,1640
0.3686333,1973
0.3703,2130
0.3719667,2669
0.3736167,3425
0.3753,3140
0.37695,3358
0.3786333,3770
0.3803,3690
0.3819667,4492
0.3836167,4212
0.3853,4823
0.38695,4204
0.3886333,3803
0.3902833,3355
0.3919667,2437
0.3936167,1976
0.3953,1748
0.3969667,1641
0.3986333,1672
0.4002833,1050
0.4019667,1282
0.4036333,1464
0.4053,1399
0.40695,1072
0.4086333,1242
0.4103,1544
0.4119667,1444
0.4136333,1514
0.4153,1572
0.41695,1329
0.4186333,1473
0.4203,1481
0.4219667,1663
0.4236333,1584
0.4253,1506
0.4269667,1596
0.4286333,1582
0.4303,1771
0.4319667,1650
0.4336333,1529
0.4353,2544
0.4369667,2875
0.4386333,4582
0.4403,6975
0.4419667,11248
0.4436333,18724
0.4453,28664
0.4469667,39504
0.4486333,54864
0.4503,71920
0.4519667,90320
0.4536333,105888
0.4553,123024
0.4569667,134464
0.4586333,144512
0.4603,152512
0.4619667,156352
0.4636333,160192
0.4653,160448
0.4669667,166656
0.4686333,164224
0.4703,170112
0.4719667,178560
0.4736333,183936
0.4753,188032
0.4769667,199040
0.4786333,198528
0.4803,201088
0.4819667,190080
0.4836333,178304
0.4853,167616
0.4869667,149056
0.4886333,131072
0.4903,114112
0.4919667,96704
0.4936333,80624
0.4953,66784
0.4969667,54528
0.4986333,43776
0.5003,35952
0.5019667,28724
0.5036333,23292
0.5053,18508
0.5069667,16052
0.5086333,12156
0.5103,10816
0.5119666,8784
0.5136333,7240
0.5153,6219
0.5169666,5941
0.5186333,5496
0.5203,4768
0.5219667,4641
0.5236334,4107
0.5253,3892
0.5269667,4070
0.5286334,3604
0.5303,3283
0.5319667,3435
0.5336334,2839
0.5353,2866
0.5369667,3137
0.5386333,2965
0.5403,2405
0.5419667,2545
0.5436333,2219
0.5453,2211
0.5469667,2068
0.5486333,2090
0.5503,2103
0.5519667,2054
0.5536333,2206
0.5553,1695
0.5569667,1801
0.5586333,2029
0.5603,1644
0.5619667,1496
0.5636333,1597
0.5653,1638
0.5669667,1634
0.5686333,1501
0.5703,1574
0.5719666,1388
0.5736333,1493
0.5753,1408
0.5769666,1473
0.5786333,1208
0.5803,1287
0.5819666,1083
0.5836333,1427
0.5853,1394
0.5869667,1610
0.5886334,1180
0.5903,1309
0.5919667,1441
0.5936334,1389
0.5953,1261
0.5969667,1205
0.5986333,1320
0.6003,1399
0.6019667,1412
0.6036333,1147
0.6053,1154
0.6069667,1160
0.6086333,1168
0.6103,1175
0.6119667,1186
0.6136333,1197
0.6153,1315
0.6169667,1394
0.6186333,1355
0.6203,1135
0.6219667,971
0.6236333,1203
0.6253,1285
0.6269667,1180
0.6286333,1123
0.6303,1275
0.6319667,1239
0.6336333,1163
0.6353,1123
0.6369666,1250
0.6386333,876
0.6403,985
0.6419666,853
0.6436333,906
0.6453,960
0.6469667,835
0.6486334,966
0.6503,963
0.6519667,977
0.6536334,1041
0.6553,825
0.6569667,692
0.6586334,974
0.6603,933
0.6619667,772
0.6636333,722
0.6653,782
0.6669667,841
0.6686333,819
0.6703,797
0.6719667,763
0.6736333,684
0.6753,746
0.6769667,766
0.6786333,642
0.6803,741
0.6819667,737
0.6836333,791
0.6853,732
0.6869667,806
0.6886333,603
0.6903,556
0.6919667,707
0.6936333,766
0.6953,833
0.6969666,749
0.6986333,725
0.7003,766
0.7019666,780
0.7036333,733
0.7053,663
0.7069666,714
0.7086333,547
0.7103,757
0.7119667,771
0.7136334,784
0.7153,704
0.7169667,756
0.7186334,596
0.7203,807
0.7219667,558
0.7236333,704
0.7253,741
0.7269667,538
0.7286333,636
0.7303,723
0.7319667,758
0.7336333,651
0.7353,803
0.7369667,877
0.7386333,617
0.7403,626
0.7419667,664
0.7436333,637
0.7453,653
0.7469667,667
0.7486333,676
0.7503,705
0.7519667,670
0.7536333,634
0.7553,632
0.7569667,686
0.7586333,650
0.7603,615
0.7619666,490
0.7636333,664
0.7653,604
0.7669666,627
0.7686333,629
0.7703,630
0.7719667,643
0.7736334,639
0.7753,635
0.7769667,513
0.7786334,664
0.7803,685
0.7819667,706
0.7836334,612
0.7853,749
0.7869667,594
0.7886333,639
0.7903,659
0.7919667,679
0.7936333,547
0.7953,746
0.7969667,705
0.7986333,698
0.8003,574
0.8019667,603
0.8036333,760
0.8053,710
0.8069667,535
0.8086333,499
0.8103,631
0.8119667,581
0.8136333,662
0.8153,602
0.8169667,631
0.8186333,672
0.8203,683
0.8219666,671
0.8236333,659
0.8253,678
0.8269666,661
0.8286333,534
0.8303,715
0.8319666,640
0.8336333,565
0.8353,616
0.8369667,654
0.8386334,617
0.8403,579
0.8419667,475
0.8436334,564
0.8453,555
0.8469667,547
0.8486333,595
0.8503,599
0.8519667,602
0.8536333,676
0.8553,477
0.8569667,503
0.8586333,521
0.8603,508
0.8619667,494
0.8636333,440
0.8653,474
0.8669667,507
0.8686333,402
0.8703,659
0.8719667,592
0.8736333,469
0.8753,610
0.8769667,587
0.8786333,542
0.8803,669
0.8819667,864
0.8836333,1165
0.8853,1244
0.8869666,1595
0.8886333,1485
0.8903,1357
0.8919666,1748
0.8936333,1710
0.8953,1857
0.8969667,1792
0.8986334,1763
0.9003,1819
0.9019667,1853
0.9036334,1669
0.9053,1676
0.9069667,1683
0.9086334,1757
0.9103,1830
0.9119667,1826
0.9136333,1821
0.9153,1822
0.9169667,1822
0.9186333,1797
0.9203,1772
0.9219667,1595
0.9236333,2084
0.9253,2098
0.9269667,1988
0.9286333,1837
0.9303,1799
0.9319667,1850
0.9336333,1883
0.9353,1735
0.9369667,1751
0.9386333,1575
0.9403,1628
0.9419667,1538
0.9436333,1560
0.9453,1702
0.9469666,1856
0.9486333,1772
0.9503,1610
0.9519666,1526
0.9536333,1404
0.9553,1379
0.9569666,1518
0.9586333,1364
0.9603,1291
0.9619667,1217
0.9636334,1177
0.9653,1240
0.9669667,1088
0.9686334,963
0.9703,967
0.9719667,1069
0.9736333,726
0.9753,990
0.9769667,826
0.9786333,819
0.9803,726
0.9819667,728
0.9836333,745
0.9853,577
0.9869667,611
0.9886333,645
0.9903,613
0.9919667,581
0.9936333,702
0.9953,461
0.9969667,621
0.9986333,476
1.0003,582
1.001967,508
1.003633,554
1.0053,438
1.006967,482
1.008633,526
1.0103,500
1.011967,424
1.013633,480
1.0153,527
1.016967,503
1.018633,473
1.0203,446
1.021967,503
1.023633,533
1.0253,504
1.026967,531
1.028633,590
1.0303,568
1.031967,448
1.033633,562
1.0353,667
1.036967,571
1.038633,591
1.0403,648
1.041967,480
1.043633,577
1.0453,552
1.046967,665
1.048633,386
1.0503,433
1.051967,550
1.053633,451
1.0553,356
1.056967,496
1.058633,412
1.0603,482
1.061967,522
1.063633,409
1.0653,412
1.066967,456
1.068633,486
1.0703,463
1.071967,483
1.073633,578
1.0753,537
1.076967,496
1.078633,408
1.0803,455
1.081967,524
1.083633,423
1.0853,520
1.086967,403
1.088633,431
1.0903,405
1.091967,459
1.093633,514
1.0953,595
1.096967,558
1.098633,522
1.1003,520
1.101967,435
1.103633,482
1.1053,528
1.106967,615
1.108633,644
1.1103,437
1.111967,469
1.113633,582
1.1153,568
1.116967,391
1.118633,533
1.1203,489
1.121967,514
1.123633,480
1.1253,446
1.126967,460
1.128633,573
1.1303,539
1.131967,505
1.133633,517
1.1353,365
1.136967,331
1.138633,540
1.1403,566
1.141967,591
1.143633,539
1.1453,503
1.146967,543
1.148633,582
1.1503,583
1.151967,473
1.153633,581
1.1553,592
1.156967,645
1.158633,375
1.1603,524
1.161967,672
1.163633,563
1.1653,635
1.166967,631
1.168633,497
1.1703,584
1.171967,616
1.173633,515
1.1753,564
1.176967,548
1.178633,530
1.1803,511
1.181967,521
1.183633,529
1.1853,440
1.186967,635
1.188633,573
1.1903,535
1.191967,584
1.193633,553
1.1953,521
1.196967,552
1.198633,579
