"SampleName","A2Rd2_02-29"
"Target Mass 1",
"Column Name","IA-3 (3um, 4.6X100)"
"Channel","QDa 1: SIR Ch2"
0.00195,568
0.003616667,742
0.005283333,954
0.00695,769
0.008616666,876
0.01028333,968
0.01195,938
0.01361667,760
0.01528333,900
0.01695,902
0.01861667,910
0.02028333,839
0.02195,846
0.02361667,854
0.02528333,839
0.02695,824
0.02861667,853
0.03028333,881
0.03195,906
0.03361667,931
0.03528333,913
0.03695,901
0.03861667,888
0.04028333,899
0.04195,910
0.04361667,1064
0.04528333,1093
0.04695,798
0.04861667,927
0.05028334,933
0.05195,952
0.05361667,889
0.05528333,860
0.05695,831
0.05861667,1000
0.06028333,1059
0.06195,958
0.06361666,1003
0.06528334,966
0.06695,953
0.06861667,939
0.07028333,914
0.07195,889
0.07361667,909
0.07528333,690
0.07695,970
0.07861666,997
0.08028334,977
0.08195,879
0.08361667,961
0.08528333,777
0.08695,747
0.08861667,942
0.09028333,995
0.09195,806
0.09361666,882
0.09528334,881
0.09695,880
0.09861667,836
0.1002833,788
0.10195,792
0.1036167,796
0.1052833,985
0.10695,845
0.1086167,705
0.1102833,1002
0.11195,990
0.1136167,969
0.1152833,912
0.11695,972
0.1186167,968
0.1202833,964
0.12195,770
0.1236167,1062
0.1252833,808
0.12695,794
0.1286167,976
0.1302833,855
0.13195,929
0.1336167,917
0.1352833,848
0.13695,778
0.1386167,815
0.1402833,831
0.14195,833
0.1436167,837
0.1452833,841
0.14695,770
0.1486167,699
0.1502833,775
0.15195,851
0.1536167,849
0.1552833,810
0.15695,771
0.1586167,778
0.1602833,786
0.16195,839
0.1636167,826
0.1652833,771
0.16695,1046
0.1686167,1143
0.1702833,901
0.17195,924
0.1736167,982
0.1752833,750
0.17695,691
0.1786167,771
0.1802833,930
0.18195,903
0.1836167,876
0.1852833,799
0.18695,963
0.1886167,787
0.1902833,987
0.19195,846
0.1936167,990
0.1952833,908
0.19695,905
0.1986167,843
0.2002833,882
0.20195,869
0.2036167,938
0.2052833,980
0.20695,1064
0.2086167,1047
0.2103,1027
0.21195,1060
0.2136167,999
0.2152833,969
0.21695,984
0.2186167,998
0.2202833,929
0.22195,1018
0.2236167,1104
0.2252833,1090
0.22695,1058
0.2286167,1121
0.2302833,1120
0.23195,837
0.2336167,1108
0.2352833,1120
0.23695,1021
0.2386167,1194
0.2402833,1273
0.24195,1215
0.2436167,1098
0.2452833,1098
0.24695,1109
0.2486167,1134
0.2502833,1083
0.25195,1032
0.2536167,1023
0.2552833,1010
0.25695,996
0.2586167,1028
0.2603,1060
0.26195,1143
0.2636333,1204
0.2652833,923
0.26695,1107
0.2686167,1119
0.2702833,1091
0.27195,1005
0.2736167,934
0.2752833,1055
0.27695,1024
0.2786167,1005
0.2803,986
0.28195,1029
0.2836167,1021
0.2852833,1014
0.28695,1048
0.2886167,990
0.2902833,903
0.29195,1058
0.2936167,1019
0.2952833,950
0.29695,997
0.2986333,1038
0.3002833,1068
0.30195,1097
0.3036167,1069
0.3052833,1041
0.30695,1056
0.3086167,1201
0.3103,1220
0.31195,1341
0.3136167,1216
0.3153,1298
0.31695,1423
0.3186167,1144
0.3202833,1221
0.32195,1217
0.3236167,1231
0.3252833,1244
0.32695,1356
0.3286167,1062
0.3302833,1419
0.33195,1111
0.3336333,1469
0.3352833,1296
0.33695,1357
0.3386167,1362
0.3403,1144
0.34195,1391
0.3436167,1102
0.3452833,1146
0.34695,1441
0.3486167,1366
0.3503,1182
0.35195,1108
0.3536167,1285
0.3552833,1255
0.3569667,1301
0.3586167,1268
0.3603,1311
0.36195,1353
0.3636167,1520
0.3652833,2233
0.36695,3070
0.3686333,3576
0.3703,3611
0.3719667,3604
0.3736333,3482
0.3753,3334
0.37695,3347
0.3786167,3382
0.3802833,3414
0.38195,3446
0.3836167,2833
0.3853,2115
0.38695,1792
0.3886333,1752
0.3903,1408
0.3919667,840
0.3936167,650
0.3952833,586
0.39695,739
0.3986333,575
0.4002833,430
0.40195,410
0.4036333,453
0.4053,473
0.4069667,493
0.4086333,518
0.4103,537
0.4119667,526
0.4136333,516
0.4153,544
0.4169667,572
0.4186333,617
0.4203,612
0.4219667,607
0.4236333,614
0.4253,680
0.4269667,810
0.4286333,721
0.4303,633
0.4319667,598
0.4336333,944
0.4353,853
0.4369667,760
0.4386333,928
0.4403,1111
0.4419667,1050
0.4436333,1168
0.4453,1072
0.4469667,1089
0.4486333,1106
0.4503,1183
0.4519667,1181
0.4536333,1179
0.4553,1214
0.4569667,1246
0.4586333,1277
0.4603,1429
0.4619667,1391
0.4636333,1352
0.4653,1146
0.4669667,1435
0.4686333,1430
0.4703,1361
0.4719667,1443
0.4736333,1438
0.4753,1433
0.4769667,1432
0.4786333,1261
0.4803,1438
0.4819667,1340
0.4836333,1196
0.4853,1111
0.4869667,1287
0.4886333,1297
0.4903,1368
0.4919667,1088
0.4936333,1306
0.4953,1032
0.4969667,981
0.4986333,943
0.5003,1009
0.5019667,1021
0.5036333,1034
0.5053,949
0.5069667,876
0.5086333,986
0.5103,1018
0.5119666,996
0.5136333,972
0.5153,970
0.5169666,915
0.5186333,1023
0.5203,983
0.5219667,892
0.5236334,1010
0.5253,1052
0.5269667,1010
0.5286334,968
0.5303,985
0.5319667,870
0.5336334,922
0.5353,999
0.5369667,919
0.5386333,751
0.5403,897
0.5419667,935
0.5436333,973
0.5453,993
0.5469667,985
0.5486333,976
0.5503,954
0.5519667,956
0.5536333,993
0.5553,1030
0.5569667,901
0.5586333,781
0.5603,866
0.5619667,819
0.5636333,773
0.5653,1023
0.5669667,1147
0.5686333,1065
0.5703,940
0.5719666,1100
0.5736333,892
0.5753,817
0.5769666,1044
0.5786333,1026
0.5803,1188
0.5819666,995
0.5836333,1048
0.5853,1163
0.5869667,1033
0.5886334,817
0.5903,1012
0.5919667,1012
0.5936334,870
0.5953,1128
0.5969667,1015
0.5986333,1029
0.6003,899
0.6019667,978
0.6036333,957
0.6053,936
0.6069667,1011
0.6086333,1031
0.6103,1100
0.6119667,1085
0.6136333,922
0.6153,866
0.6169667,930
0.6186333,1178
0.6203,1120
0.6219667,1001
0.6236333,964
0.6253,1316
0.6269667,1286
0.6286333,1082
0.6303,1019
0.6319667,1047
0.6336333,777
0.6353,1000
0.6369666,1000
0.6386333,793
0.6403,1029
0.6419666,826
0.6436333,939
0.6453,1066
0.6469667,976
0.6486334,994
0.6503,983
0.6519667,1012
0.6536334,993
0.6553,975
0.6569667,979
0.6586334,984
0.6603,1057
0.6619667,835
0.6636333,903
0.6653,972
0.6669667,779
0.6686333,1001
0.6703,817
0.6719667,925
0.6736333,882
0.6753,842
0.6769667,891
0.6786333,858
0.6803,824
0.6819667,909
0.6836333,783
0.6853,770
0.6869667,797
0.6886333,831
0.6903,838
0.6919667,844
0.6936333,920
0.6953,997
0.6969666,956
0.6986333,988
0.7003,895
0.7019666,872
0.7036333,974
0.7053,817
0.7069666,835
0.7086333,919
0.7103,895
0.7119667,871
0.7136334,920
0.7153,1010
0.7169667,985
0.7186334,715
0.7203,946
0.7219667,871
0.7236333,855
0.7253,868
0.7269667,808
0.7286333,899
0.7303,845
0.7319667,960
0.7336333,942
0.7353,814
0.7369667,905
0.7386333,668
0.7403,640
0.7419667,1036
0.7436333,966
0.7453,926
0.7469667,1127
0.7486333,697
0.7503,853
0.7519667,675
0.7536333,897
0.7553,825
0.7569667,811
0.7586333,848
0.7603,751
0.7619666,1007
0.7636333,1077
0.7653,879
0.7669666,1033
0.7686333,903
0.7703,695
0.7719667,912
0.7736334,923
0.7753,760
0.7769667,778
0.7786334,841
0.7803,846
0.7819667,851
0.7836334,780
0.7853,708
0.7869667,796
0.7886333,755
0.7903,713
0.7919667,1083
0.7936333,1006
0.7953,935
0.7969667,978
0.7986333,886
0.8003,794
0.8019667,941
0.8036333,823
0.8053,820
0.8069667,899
0.8086333,977
0.8103,1003
0.8119667,1009
0.8136333,1001
0.8153,1081
0.8169667,819
0.8186333,807
0.8203,938
0.8219666,872
0.8236333,1011
0.8253,1048
0.8269666,1007
0.8286333,1008
0.8303,1010
0.8319666,863
0.8336333,1016
0.8353,768
0.8369667,951
0.8386334,946
0.8403,1019
0.8419667,978
0.8436334,937
0.8453,858
0.8469667,920
0.8486333,1066
0.8503,1018
0.8519667,917
0.8536333,1070
0.8553,959
0.8569667,1004
0.8586333,875
0.8603,731
0.8619667,762
0.8636333,906
0.8653,915
0.8669667,975
0.8686333,980
0.8703,987
0.8719667,993
0.8736333,993
0.8753,992
0.8769667,926
0.8786333,1187
0.8803,1225
0.8819667,1374
0.8836333,1360
0.8853,1358
0.8869666,1348
0.8886333,1339
0.8903,1393
0.8919666,1448
0.8936333,1680
0.8953,1702
0.8969667,1522
0.8986334,1358
0.9003,1288
0.9019667,1485
0.9036334,1436
0.9053,1386
0.9069667,1500
0.9086334,1271
0.9103,1467
0.9119667,1357
0.9136333,1411
0.9153,1445
0.9169667,1479
0.9186333,1284
0.9203,1300
0.9219667,1396
0.9236333,1302
0.9253,1180
0.9269667,1424
0.9286333,1440
0.9303,1101
0.9319667,1253
0.9336333,1323
0.9353,1234
0.9369667,1350
0.9386333,1345
0.9403,1295
0.9419667,1319
0.9436333,909
0.9453,1193
0.9469666,1137
0.9486333,977
0.9503,1104
0.9519666,1184
0.9536333,1213
0.9553,1125
0.9569666,1369
0.9586333,862
0.9603,910
0.9619667,1108
0.9636334,966
0.9653,1033
0.9669667,1039
0.9686334,1040
0.9703,1042
0.9719667,817
0.9736333,986
0.9753,754
0.9769667,917
0.9786333,755
0.9803,846
0.9819667,938
0.9836333,772
0.9853,1034
0.9869667,1018
0.9886333,859
0.9903,980
0.9919667,864
0.9936333,878
0.9953,945
0.9969667,921
0.9986333,897
1.0003,957
1.001967,868
1.003633,903
1.0053,894
1.006967,1051
1.008633,1063
1.0103,782
1.011967,995
1.013633,937
1.0153,1043
1.016967,1016
1.018633,988
1.0203,965
1.021967,916
1.023633,997
1.0253,948
1.026967,984
1.028633,1010
1.0303,985
1.031967,909
1.033633,872
1.0353,905
1.036967,807
1.038633,824
1.0403,802
1.041967,875
1.043633,949
1.0453,938
1.046967,927
1.048633,956
1.0503,985
1.051967,870
1.053633,972
1.0553,745
1.056967,925
1.058633,830
1.0603,719
1.061967,842
1.063633,957
1.0653,1006
1.066967,754
1.068633,816
1.0703,799
1.071967,850
1.073633,902
1.0753,736
1.076967,894
1.078633,814
1.0803,890
1.081967,877
1.083633,891
1.0853,905
1.086967,927
1.088633,1026
1.0903,1000
1.091967,905
1.093633,723
1.0953,960
1.096967,966
1.098633,857
1.1003,851
1.101967,880
1.103633,909
1.1053,849
1.106967,789
1.108633,862
1.1103,834
1.111967,777
1.113633,891
1.1153,626
1.116967,913
1.118633,1007
1.1203,883
1.121967,835
1.123633,825
1.1253,829
1.126967,790
1.128633,751
1.1303,747
1.131967,742
1.133633,806
1.1353,788
1.136967,770
1.138633,915
1.1403,944
1.141967,978
1.143633,668
1.1453,741
1.146967,877
1.148633,761
1.1503,821
1.151967,955
1.153633,1007
1.1553,858
1.156967,793
1.158633,850
1.1603,806
1.161967,761
1.163633,776
1.1653,793
1.166967,809
1.168633,799
1.1703,788
1.171967,719
1.173633,905
1.1753,853
1.176967,942
1.178633,810
1.1803,823
1.181967,871
1.183633,868
1.1853,865
1.186967,854
1.188633,843
1.1903,804
1.191967,764
1.193633,754
1.1953,719
1.196967,683
1.198633,762
