"SampleName","A2Rd2_02-13"
"Target Mass 1",
"Column Name","IA-3 (3um, 4.6X100)"
"Channel","QDa 1: SIR Ch1"
0.00195,343
0.003616667,537
0.005283333,494
0.00695,559
0.008616666,467
0.01028333,475
0.01195,483
0.01361667,463
0.01528333,443
0.01695,585
0.01861667,623
0.02028333,484
0.02195,358
0.02361667,578
0.02528333,516
0.02695,664
0.02861667,586
0.03028333,448
0.03195,585
0.03361667,440
0.03528333,531
0.03695,623
0.03861667,629
0.04028333,384
0.04195,441
0.04361667,427
0.04528333,437
0.04695,447
0.04861667,498
0.05028334,494
0.05195,489
0.05361667,381
0.05528333,548
0.05695,556
0.05861667,538
0.06028333,371
0.06195,583
0.06361666,471
0.06528334,358
0.06695,579
0.06861667,473
0.07028333,426
0.07195,504
0.07361667,548
0.07528333,461
0.07695,374
0.07861666,490
0.08028334,368
0.08195,478
0.08361667,519
0.08528333,560
0.08695,568
0.08861667,467
0.09028333,559
0.09195,505
0.09361666,482
0.09528334,510
0.09695,479
0.09861667,447
0.1002833,534
0.10195,407
0.1036167,530
0.1052833,428
0.10695,445
0.1086167,554
0.1102833,462
0.11195,522
0.1136167,545
0.1152833,500
0.11695,454
0.1186167,478
0.1202833,501
0.12195,532
0.1236167,540
0.1252833,506
0.12695,528
0.1286167,535
0.1302833,542
0.13195,547
0.1336167,551
0.1352833,430
0.13695,606
0.1386167,555
0.1402833,421
0.14195,483
0.1436167,526
0.1452833,533
0.14695,530
0.1486167,548
0.1502833,441
0.15195,534
0.1536167,510
0.1552833,395
0.15695,466
0.1586167,409
0.1602833,460
0.16195,461
0.1636167,461
0.1652833,476
0.16695,501
0.1686167,410
0.1702833,511
0.17195,499
0.1736167,514
0.1752833,515
0.17695,429
0.1786167,484
0.1802833,350
0.18195,474
0.1836167,563
0.1852833,435
0.18695,482
0.1886167,410
0.1902833,454
0.19195,505
0.1936167,432
0.1952833,519
0.19695,466
0.1986167,405
0.2002833,335
0.20195,434
0.2036167,411
0.2052833,444
0.20695,478
0.2086167,489
0.2102833,467
0.21195,460
0.2136167,453
0.2152833,481
0.21695,482
0.2186167,483
0.2202833,481
0.22195,484
0.2236167,420
0.2252833,517
0.22695,584
0.2286167,562
0.2302833,580
0.23195,547
0.2336167,392
0.2352833,503
0.23695,497
0.2386167,463
0.2402833,513
0.24195,484
0.2436167,503
0.2452833,523
0.24695,563
0.2486167,584
0.2502833,576
0.25195,480
0.2536167,502
0.2552833,464
0.25695,430
0.2586167,524
0.2602833,420
0.26195,537
0.2636333,608
0.2652833,394
0.26695,521
0.2686167,331
0.2702833,431
0.27195,400
0.2736167,528
0.2752833,612
0.27695,573
0.2786167,360
0.2802833,484
0.28195,433
0.2836167,428
0.2852833,422
0.28695,429
0.2886167,557
0.2902833,526
0.29195,427
0.2936167,408
0.2952833,483
0.29695,402
0.2986333,544
0.3002833,523
0.30195,502
0.3036333,536
0.3052833,437
0.30695,553
0.3086333,483
0.3102833,517
0.31195,551
0.3136333,548
0.3153,545
0.31695,490
0.3186167,575
0.3202833,540
0.32195,587
0.3236167,570
0.3252833,404
0.32695,670
0.3286167,516
0.3302833,725
0.33195,560
0.3336333,511
0.3352833,581
0.33695,554
0.3386167,486
0.3402833,456
0.34195,427
0.3436167,480
0.3452833,468
0.34695,455
0.3486167,498
0.3503,488
0.35195,479
0.3536167,501
0.3552833,449
0.35695,566
0.3586167,357
0.3602833,539
0.36195,648
0.3636333,757
0.3652833,1465
0.36695,2369
0.3686333,3656
0.3703,4510
0.3719667,5713
0.3736167,5895
0.3753,6379
0.3769667,6792
0.3786167,7282
0.3802833,7608
0.38195,6276
0.3836167,5944
0.3853,5136
0.3869667,4512
0.3886167,2861
0.3903,2977
0.39195,2254
0.3936333,1657
0.3952833,1690
0.39695,1433
0.3986167,870
0.4002833,921
0.40195,989
0.4036333,1003
0.4052833,852
0.4069667,1064
0.4086333,877
0.4102833,931
0.4119667,994
0.4136333,981
0.4153,1026
0.41695,1072
0.4186333,1151
0.4203,1196
0.4219667,1096
0.4236333,955
0.4253,1026
0.4269667,1012
0.4286333,1082
0.4302833,1188
0.4319667,1487
0.4336167,1684
0.4353,2703
0.4369667,4039
0.4386333,6321
0.4403,10996
0.4419667,16808
0.4436333,24176
0.4453,34048
0.4469667,46992
0.4486333,61088
0.4503,75024
0.4519667,92432
0.4536333,105088
0.4553,114736
0.4569667,125344
0.4586333,137152
0.4603,142272
0.4619667,144512
0.4636333,154240
0.4653,159936
0.4669667,169920
0.4686333,182720
0.4703,195072
0.4719667,204288
0.4736333,212864
0.4753,220544
0.4769667,216704
0.4786333,209280
0.4803,196416
0.4819667,180352
0.4836333,159360
0.4853,140032
0.4869667,120240
0.4886333,102544
0.4903,83936
0.4919667,68720
0.4936333,55936
0.4953,44048
0.4969667,34352
0.4986333,28916
0.5003,22036
0.5019667,18204
0.5036333,13484
0.5053,11560
0.5069667,9636
0.5086333,8182
0.5103,7054
0.5119666,5894
0.5136333,5680
0.5153,5156
0.5169666,4574
0.5186333,4156
0.5203,4201
0.5219667,3732
0.5236334,3498
0.5253,3255
0.5269667,2999
0.5286334,2688
0.5303,2720
0.5319667,3052
0.5336334,2526
0.5353,2696
0.5369667,2523
0.5386333,2213
0.5403,2298
0.5419667,2277
0.5436333,2082
0.5453,2133
0.5469667,2204
0.5486333,1905
0.5503,1721
0.5519667,1591
0.5536333,1668
0.5553,1891
0.5569667,1813
0.5586333,1649
0.5603,1421
0.5619667,1277
0.5636333,1579
0.5653,1473
0.5669667,1669
0.5686333,1472
0.5703,1430
0.5719666,1216
0.5736333,933
0.5753,1192
0.5769666,1096
0.5786333,1171
0.5803,1374
0.5819666,1536
0.5836333,1442
0.5853,1267
0.5869667,1350
0.5886334,1348
0.5903,1311
0.5919667,1274
0.5936334,1326
0.5953,1270
0.5969667,1327
0.5986333,1227
0.6003,1437
0.6019667,1463
0.6036333,1069
0.6053,1284
0.6069667,1151
0.6086333,1264
0.6103,1340
0.6119667,1199
0.6136333,1190
0.6153,898
0.6169667,1031
0.6186333,1098
0.6203,1193
0.6219667,1153
0.6236333,1037
0.6253,1007
0.6269667,1022
0.6286333,1014
0.6303,921
0.6319667,819
0.6336333,884
0.6353,866
0.6369666,847
0.6386333,830
0.6403,813
0.6419666,797
0.6436333,782
0.6453,790
0.6469667,799
0.6486334,672
0.6503,892
0.6519667,1010
0.6536334,999
0.6553,749
0.6569667,831
0.6586334,827
0.6603,789
0.6619667,838
0.6636333,823
0.6653,838
0.6669667,853
0.6686333,689
0.6703,741
0.6719667,932
0.6736333,980
0.6753,892
0.6769667,797
0.6786333,836
0.6803,757
0.6819667,844
0.6836333,809
0.6853,731
0.6869667,845
0.6886333,862
0.6903,853
0.6919667,717
0.6936333,764
0.6953,693
0.6969666,708
0.6986333,782
0.7003,695
0.7019666,745
0.7036333,668
0.7053,685
0.7069666,686
0.7086333,688
0.7103,715
0.7119667,742
0.7136334,762
0.7153,781
0.7169667,692
0.7186334,701
0.7203,710
0.7219667,730
0.7236333,767
0.7253,752
0.7269667,915
0.7286333,916
0.7303,734
0.7319667,813
0.7336333,836
0.7353,791
0.7369667,870
0.7386333,617
0.7403,856
0.7419667,758
0.7436333,710
0.7453,715
0.7469667,706
0.7486333,698
0.7503,753
0.7519667,809
0.7536333,752
0.7553,694
0.7569667,594
0.7586333,776
0.7603,889
0.7619666,792
0.7636333,680
0.7653,833
0.7669666,795
0.7686333,875
0.7703,674
0.7719667,812
0.7736334,735
0.7753,878
0.7769667,805
0.7786334,800
0.7803,796
0.7819667,783
0.7836334,770
0.7853,921
0.7869667,900
0.7886333,706
0.7903,601
0.7919667,611
0.7936333,822
0.7953,804
0.7969667,792
0.7986333,744
0.8003,744
0.8019667,769
0.8036333,793
0.8053,858
0.8069667,797
0.8086333,735
0.8103,718
0.8119667,989
0.8136333,975
0.8153,816
0.8169667,883
0.8186333,899
0.8203,875
0.8219666,839
0.8236333,932
0.8253,912
0.8269666,778
0.8286333,1031
0.8303,738
0.8319666,803
0.8336333,733
0.8353,836
0.8369667,797
0.8386334,758
0.8403,779
0.8419667,797
0.8436334,816
0.8453,754
0.8469667,794
0.8486333,798
0.8503,807
0.8519667,895
0.8536333,903
0.8553,650
0.8569667,956
0.8586333,799
0.8603,794
0.8619667,838
0.8636333,791
0.8653,744
0.8669667,942
0.8686333,956
0.8703,737
0.8719667,727
0.8736333,1036
0.8753,1253
0.8769667,1646
0.8786333,2194
0.8803,2362
0.8819667,2693
0.8836333,2972
0.8853,3036
0.8869666,3262
0.8886333,3228
0.8903,3195
0.8919666,3236
0.8936333,3385
0.8953,3533
0.8969667,3559
0.8986334,3654
0.9003,3451
0.9019667,3413
0.9036334,3739
0.9053,3748
0.9069667,3662
0.9086334,3572
0.9103,3129
0.9119667,3686
0.9136333,3424
0.9153,3479
0.9169667,3421
0.9186333,3380
0.9203,3154
0.9219667,3460
0.9236333,3651
0.9253,3622
0.9269667,3021
0.9286333,3383
0.9303,3094
0.9319667,3147
0.9336333,3179
0.9353,3077
0.9369667,3024
0.9386333,3079
0.9403,2736
0.9419667,3049
0.9436333,2583
0.9453,3048
0.9469666,2608
0.9486333,2532
0.9503,2484
0.9519666,2295
0.9536333,2262
0.9553,2252
0.9569666,2051
0.9586333,1818
0.9603,1894
0.9619667,1903
0.9636334,1870
0.9653,1830
0.9669667,1445
0.9686334,1337
0.9703,1377
0.9719667,1201
0.9736333,1201
0.9753,1381
0.9769667,1235
0.9786333,1326
0.9803,809
0.9819667,1172
0.9836333,890
0.9853,746
0.9869667,843
0.9886333,945
0.9903,788
0.9919667,685
0.9936333,778
0.9953,701
0.9969667,821
0.9986333,752
1.0003,776
1.001967,565
1.003633,528
1.0053,751
1.006967,516
1.008633,685
1.0103,656
1.011967,756
1.013633,685
1.0153,757
1.016967,639
1.018633,654
1.0203,784
1.021967,643
1.023633,780
1.0253,712
1.026967,531
1.028633,582
1.0303,681
1.031967,615
1.033633,638
1.0353,729
1.036967,740
1.038633,683
1.0403,753
1.041967,519
1.043633,686
1.0453,798
1.046967,689
1.048633,886
1.0503,571
1.051967,590
1.053633,587
1.0553,578
1.056967,602
1.058633,662
1.0603,723
1.061967,781
1.063633,698
1.0653,758
1.066967,771
1.068633,656
1.0703,734
1.071967,629
1.073633,655
1.0753,697
1.076967,739
1.078633,787
1.0803,578
1.081967,652
1.083633,731
1.0853,778
1.086967,737
1.088633,746
1.0903,770
1.091967,795
1.093633,805
1.0953,718
1.096967,516
1.098633,681
1.1003,644
1.101967,707
1.103633,724
1.1053,728
1.106967,752
1.108633,781
1.1103,670
1.111967,692
1.113633,649
1.1153,742
1.116967,738
1.118633,809
1.1203,728
1.121967,714
1.123633,778
1.1253,725
1.126967,718
1.128633,711
1.1303,660
1.131967,737
1.133633,818
1.1353,870
1.136967,849
1.138633,738
1.1403,698
1.141967,706
1.143633,716
1.1453,822
1.146967,562
1.148633,724
1.1503,904
1.151967,709
1.153633,877
1.1553,901
1.156967,759
1.158633,637
1.1603,700
1.161967,723
1.163633,747
1.1653,662
1.166967,841
1.168633,921
1.1703,550
1.171967,789
1.173633,713
1.1753,777
1.176967,832
1.178633,902
1.1803,867
1.181967,746
1.183633,970
1.1853,888
1.186967,862
1.188633,816
1.1903,819
1.191967,799
1.193633,779
1.1953,766
1.196967,754
1.198633,807
