"SampleName","A2Rd2_02-48"
"Target Mass 1",
"Column Name","IA-3 (3um, 4.6X100)"
"Channel","QDa 1: SIR Ch1"
0.00195,389
0.003616667,623
0.005283333,536
0.00695,585
0.008616666,638
0.01028333,545
0.01195,605
0.01361667,593
0.01528333,486
0.01695,447
0.01861667,584
0.02028333,658
0.02195,597
0.02361667,412
0.02528333,558
0.02695,484
0.02861667,527
0.03028333,571
0.03195,548
0.03361667,526
0.03528333,555
0.03695,508
0.03861667,460
0.04028333,552
0.04195,538
0.04361667,394
0.04528333,636
0.04695,705
0.04861667,751
0.05028334,587
0.05195,473
0.05361667,550
0.05528333,499
0.05695,546
0.05861667,517
0.06028333,488
0.06195,549
0.06361666,533
0.06528334,518
0.06695,528
0.06861667,539
0.07028333,525
0.07195,565
0.07361667,573
0.07528333,506
0.07695,679
0.07861666,643
0.08028334,683
0.08195,553
0.08361667,673
0.08528333,545
0.08695,471
0.08861667,569
0.09028333,533
0.09195,605
0.09361666,538
0.09528334,537
0.09695,572
0.09861667,579
0.1002833,647
0.10195,417
0.1036167,557
0.1052833,635
0.10695,482
0.1086167,457
0.1102833,416
0.11195,466
0.1136167,552
0.1152833,533
0.11695,554
0.1186167,576
0.1202833,490
0.12195,551
0.1236167,518
0.1252833,510
0.12695,502
0.1286167,533
0.1302833,565
0.13195,584
0.1336167,549
0.1352833,409
0.13695,671
0.1386167,544
0.1402833,633
0.14195,646
0.1436167,457
0.1452833,506
0.14695,465
0.1486167,505
0.1502833,571
0.15195,534
0.1536167,496
0.1552833,539
0.15695,522
0.1586167,505
0.1602833,541
0.16195,554
0.1636167,491
0.1652833,473
0.16695,531
0.1686167,509
0.1702833,433
0.17195,715
0.1736167,666
0.1752833,608
0.17695,572
0.1786167,494
0.1802833,564
0.18195,479
0.1836167,587
0.1852833,597
0.18695,459
0.1886167,592
0.1902833,503
0.19195,535
0.1936167,487
0.1952833,438
0.19695,504
0.1986167,340
0.2002833,452
0.20195,474
0.2036167,497
0.2052833,415
0.20695,619
0.2086167,592
0.2102833,559
0.21195,547
0.2136167,501
0.2152833,539
0.21695,428
0.2186167,566
0.2202833,601
0.22195,555
0.2236167,614
0.2252833,549
0.22695,491
0.2286167,514
0.2302833,488
0.23195,512
0.2336167,535
0.2352833,533
0.23695,531
0.2386167,460
0.2402833,469
0.24195,477
0.2436167,408
0.2452833,533
0.24695,494
0.2486167,477
0.2502833,474
0.25195,559
0.2536167,576
0.2552833,494
0.25695,531
0.2586167,560
0.2602833,532
0.26195,519
0.2636333,561
0.2652833,602
0.26695,450
0.2686167,563
0.2702833,562
0.27195,527
0.2736167,589
0.2752833,587
0.27695,446
0.2786167,455
0.2803,379
0.28195,436
0.2836167,588
0.2852833,675
0.2869667,552
0.2886167,623
0.2902833,692
0.29195,555
0.2936167,602
0.2952833,525
0.29695,554
0.2986333,528
0.3002833,649
0.30195,594
0.3036167,538
0.3052833,549
0.30695,673
0.3086167,421
0.3102833,614
0.3119667,549
0.3136167,525
0.3153,400
0.31695,583
0.3186167,511
0.3203,551
0.32195,602
0.3236167,558
0.3252833,513
0.3269667,446
0.3286333,702
0.3302833,628
0.33195,571
0.3336333,430
0.3352833,664
0.3369667,616
0.3386167,554
0.3402833,729
0.34195,481
0.3436167,651
0.3453,566
0.34695,597
0.3486167,538
0.3503,627
0.35195,585
0.3536333,411
0.3553,525
0.35695,519
0.3586167,513
0.3602833,706
0.3619667,835
0.3636167,1003
0.3653,1114
0.36695,1652
0.3686333,2922
0.3703,3065
0.3719667,3530
0.3736333,3695
0.3752833,3983
0.37695,4223
0.3786333,4425
0.3802833,4813
0.3819667,4529
0.3836333,4260
0.3853,4158
0.3869667,4171
0.3886333,3526
0.3903,2646
0.3919667,2555
0.3936167,1842
0.3953,1715
0.39695,1572
0.3986333,1345
0.4002833,1467
0.4019667,1189
0.4036333,1168
0.4053,1112
0.4069667,1143
0.4086333,1236
0.4103,1303
0.4119667,1254
0.4136333,1209
0.4153,1164
0.4169667,1137
0.4186333,1165
0.4203,1193
0.4219667,1324
0.4236333,1369
0.4253,1497
0.4269667,1472
0.4286333,1447
0.4303,1486
0.4319667,1692
0.4336333,2389
0.4353,3178
0.4369667,5127
0.4386333,8556
0.4403,12440
0.4419667,21148
0.4436333,30188
0.4453,42896
0.4469667,58512
0.4486333,73152
0.4503,87840
0.4519667,102880
0.4536333,116896
0.4553,128032
0.4569667,139136
0.4586333,144128
0.4603,150208
0.4619667,155776
0.4636333,158400
0.4653,161920
0.4669667,164352
0.4686333,170368
0.4703,178368
0.4719667,185408
0.4736333,195328
0.4753,200704
0.4769667,210112
0.4786333,208000
0.4803,204928
0.4819667,199104
0.4836333,183936
0.4853,169664
0.4869667,152384
0.4886333,130496
0.4903,110960
0.4919667,94336
0.4936333,78192
0.4953,63968
0.4969667,53696
0.4986333,42848
0.5003,32556
0.5019667,27724
0.5036333,21764
0.5053,17716
0.5069667,14540
0.5086333,12176
0.5103,9572
0.5119666,8292
0.5136333,6972
0.5153,6045
0.5169666,5271
0.5186333,5151
0.5203,4783
0.5219667,4309
0.5236334,4101
0.5253,3726
0.5269667,3810
0.5286334,3361
0.5303,3469
0.5319667,3595
0.5336334,2648
0.5353,2786
0.5369667,2927
0.5386333,2608
0.5403,2303
0.5419667,2129
0.5436333,2280
0.5453,2288
0.5469667,2300
0.5486333,1944
0.5503,2311
0.5519667,2024
0.5536333,1889
0.5553,1989
0.5569667,1855
0.5586333,1659
0.5603,2030
0.5619667,1660
0.5636333,1600
0.5653,1505
0.5669667,1578
0.5686333,1549
0.5703,1340
0.5719666,1074
0.5736333,1317
0.5753,1332
0.5769666,1346
0.5786333,1489
0.5803,1469
0.5819666,1525
0.5836333,1473
0.5853,1141
0.5869667,1294
0.5886334,1446
0.5903,1470
0.5919667,1494
0.5936334,1354
0.5953,1438
0.5969667,1465
0.5986333,1466
0.6003,1387
0.6019667,1456
0.6036333,1525
0.6053,1281
0.6069667,1584
0.6086333,1526
0.6103,1485
0.6119667,1478
0.6136333,1478
0.6153,1335
0.6169667,1354
0.6186333,1442
0.6203,1331
0.6219667,1320
0.6236333,1338
0.6253,1323
0.6269667,1308
0.6286333,1242
0.6303,1301
0.6319667,1201
0.6336333,1267
0.6353,1352
0.6369666,1161
0.6386333,1300
0.6403,1141
0.6419666,954
0.6436333,1179
0.6453,1254
0.6469667,1085
0.6486334,877
0.6503,996
0.6519667,766
0.6536334,1024
0.6553,959
0.6569667,945
0.6586334,975
0.6603,972
0.6619667,968
0.6636333,968
0.6653,918
0.6669667,997
0.6686333,852
0.6703,886
0.6719667,859
0.6736333,877
0.6753,829
0.6769667,755
0.6786333,828
0.6803,834
0.6819667,839
0.6836333,751
0.6853,894
0.6869667,920
0.6886333,905
0.6903,877
0.6919667,849
0.6936333,731
0.6953,868
0.6969666,797
0.6986333,726
0.7003,898
0.7019666,845
0.7036333,682
0.7053,698
0.7069666,884
0.7086333,791
0.7103,865
0.7119667,901
0.7136334,875
0.7153,933
0.7169667,751
0.7186334,877
0.7203,823
0.7219667,791
0.7236333,757
0.7253,724
0.7269667,708
0.7286333,693
0.7303,741
0.7319667,790
0.7336333,784
0.7353,839
0.7369667,696
0.7386333,722
0.7403,831
0.7419667,727
0.7436333,753
0.7453,854
0.7469667,859
0.7486333,785
0.7503,781
0.7519667,892
0.7536333,826
0.7553,871
0.7569667,792
0.7586333,679
0.7603,890
0.7619666,828
0.7636333,709
0.7653,709
0.7669666,835
0.7686333,819
0.7703,695
0.7719667,847
0.7736334,632
0.7753,614
0.7769667,706
0.7786334,806
0.7803,917
0.7819667,844
0.7836334,842
0.7853,918
0.7869667,875
0.7886333,715
0.7903,855
0.7919667,737
0.7936333,859
0.7953,791
0.7969667,789
0.7986333,708
0.8003,621
0.8019667,710
0.8036333,732
0.8053,742
0.8069667,768
0.8086333,793
0.8103,815
0.8119667,850
0.8136333,886
0.8153,949
0.8169667,1071
0.8186333,1052
0.8203,839
0.8219666,754
0.8236333,877
0.8253,924
0.8269666,823
0.8286333,726
0.8303,911
0.8319666,806
0.8336333,841
0.8353,949
0.8369667,774
0.8386334,825
0.8403,826
0.8419667,852
0.8436334,878
0.8453,883
0.8469667,888
0.8486333,894
0.8503,883
0.8519667,873
0.8536333,888
0.8553,903
0.8569667,834
0.8586333,851
0.8603,894
0.8619667,881
0.8636333,885
0.8653,821
0.8669667,793
0.8686333,732
0.8703,796
0.8719667,605
0.8736333,645
0.8753,863
0.8769667,715
0.8786333,991
0.8803,1242
0.8819667,1634
0.8836333,2000
0.8853,2088
0.8869666,2566
0.8886333,3155
0.8903,3401
0.8919666,3365
0.8936333,3636
0.8953,3533
0.8969667,3728
0.8986334,3473
0.9003,4077
0.9019667,3911
0.9036334,3531
0.9053,3686
0.9069667,3522
0.9086334,4073
0.9103,4025
0.9119667,4263
0.9136333,3967
0.9153,3982
0.9169667,4054
0.9186333,3829
0.9203,3518
0.9219667,3714
0.9236333,4000
0.9253,3961
0.9269667,3345
0.9286333,4026
0.9303,3737
0.9319667,3481
0.9336333,3512
0.9353,3276
0.9369667,3414
0.9386333,3635
0.9403,3556
0.9419667,2830
0.9436333,3046
0.9453,2696
0.9469666,2575
0.9486333,2821
0.9503,2611
0.9519666,2362
0.9536333,2603
0.9553,2396
0.9569666,2047
0.9586333,2192
0.9603,1990
0.9619667,1900
0.9636334,1886
0.9653,1905
0.9669667,1650
0.9686334,1385
0.9703,1307
0.9719667,1565
0.9736333,1214
0.9753,1205
0.9769667,1125
0.9786333,1050
0.9803,979
0.9819667,878
0.9836333,978
0.9853,844
0.9869667,984
0.9886333,960
0.9903,899
0.9919667,575
0.9936333,677
0.9953,695
0.9969667,793
0.9986333,735
1.0003,809
1.001967,758
1.003633,714
1.0053,563
1.006967,600
1.008633,537
1.0103,700
1.011967,660
1.013633,495
1.0153,531
1.016967,579
1.018633,490
1.0203,688
1.021967,670
1.023633,707
1.0253,678
1.026967,570
1.028633,655
1.0303,634
1.031967,664
1.033633,619
1.0353,573
1.036967,571
1.038633,563
1.0403,676
1.041967,681
1.043633,686
1.0453,676
1.046967,578
1.048633,557
1.0503,693
1.051967,625
1.053633,622
1.0553,630
1.056967,637
1.058633,593
1.0603,599
1.061967,606
1.063633,598
1.0653,590
1.066967,569
1.068633,597
1.0703,624
1.071967,705
1.073633,762
1.0753,717
1.076967,641
1.078633,785
1.0803,702
1.081967,625
1.083633,605
1.0853,585
1.086967,645
1.088633,651
1.0903,622
1.091967,594
1.093633,731
1.0953,765
1.096967,729
1.098633,620
1.1003,625
1.101967,651
1.103633,644
1.1053,636
1.106967,621
1.108633,606
1.1103,547
1.111967,600
1.113633,654
1.1153,640
1.116967,586
1.118633,698
1.1203,687
1.121967,716
1.123633,678
1.1253,585
1.126967,680
1.128633,546
1.1303,850
1.131967,858
1.133633,726
1.1353,739
1.136967,697
1.138633,870
1.1403,879
1.141967,672
1.143633,652
1.1453,707
1.146967,724
1.148633,713
1.1503,703
1.151967,678
1.153633,653
1.1553,799
1.156967,893
1.158633,825
1.1603,587
1.161967,790
1.163633,751
1.1653,710
1.166967,823
1.168633,760
1.1703,847
1.171967,830
1.173633,607
1.1753,779
1.176967,929
1.178633,637
1.1803,893
1.181967,830
1.183633,942
1.1853,749
1.186967,778
1.188633,721
1.1903,635
1.191967,818
1.193633,659
1.1953,887
1.196967,851
1.198633,815
