"SampleName","A2Rd2_02-77"
"Target Mass 1",
"Column Name","IA-3 (3um, 4.6X100)"
"Channel","QDa 1: SIR Ch2"
0.00195,500
0.003616667,547
0.005283333,689
0.00695,890
0.008616666,850
0.01028333,837
0.01195,922
0.01361667,1007
0.01528333,999
0.01695,825
0.01861667,990
0.02028333,934
0.02195,1036
0.02361667,988
0.02528333,958
0.02695,940
0.02861667,900
0.03028333,860
0.03195,888
0.03361667,916
0.03528333,893
0.03695,870
0.03861667,913
0.04028333,956
0.04195,1130
0.04361667,1069
0.04528333,1008
0.04695,948
0.04861667,665
0.05028334,1049
0.05195,1068
0.05361667,856
0.05528333,1088
0.05695,951
0.05861667,877
0.06028333,855
0.06195,954
0.06361666,963
0.06528334,975
0.06695,948
0.06861667,920
0.07028333,963
0.07195,924
0.07361667,949
0.07528333,973
0.07695,1028
0.07861666,954
0.08028334,880
0.08195,1064
0.08361667,816
0.08528333,1009
0.08695,1191
0.08861667,937
0.09028333,769
0.09195,851
0.09361666,1046
0.09528334,969
0.09695,1007
0.09861667,900
0.1002833,990
0.10195,805
0.1036167,1018
0.1052833,810
0.10695,890
0.1086167,969
0.1102833,892
0.11195,868
0.1136167,876
0.1152833,884
0.11695,792
0.1186167,934
0.1202833,928
0.12195,922
0.1236167,905
0.1252833,888
0.12695,889
0.1286167,874
0.1302833,859
0.13195,832
0.1336167,805
0.1352833,912
0.13695,908
0.1386167,948
0.1402833,891
0.14195,834
0.1436167,928
0.1452833,923
0.14695,918
0.1486167,945
0.1502833,885
0.15195,893
0.1536167,900
0.1552833,904
0.15695,907
0.1586167,663
0.1602833,1049
0.16195,928
0.1636167,885
0.1652833,834
0.16695,921
0.1686167,890
0.1702833,883
0.17195,980
0.1736167,959
0.1752833,975
0.17695,967
0.1786167,958
0.1802833,1048
0.18195,771
0.1836167,759
0.1852833,876
0.18695,849
0.1886167,822
0.1902833,861
0.19195,859
0.1936167,856
0.1952833,759
0.19695,730
0.1986167,938
0.2002833,1100
0.20195,1087
0.2036167,954
0.2052833,1056
0.20695,960
0.2086167,782
0.2102833,968
0.21195,1020
0.2136167,1101
0.2152833,1092
0.21695,1066
0.2186167,1216
0.2202833,1261
0.22195,1210
0.2236167,1160
0.2252833,1116
0.22695,1071
0.2286167,997
0.2302833,1174
0.23195,1282
0.2336167,1165
0.2352833,1278
0.23695,1256
0.2386167,1135
0.2402833,1214
0.24195,1293
0.2436167,1180
0.2453,911
0.24695,1227
0.2486167,1256
0.2502833,1213
0.25195,1191
0.2536167,1172
0.2552833,1212
0.25695,1252
0.2586167,1166
0.2602833,1080
0.26195,1226
0.2636333,1222
0.2652833,1256
0.26695,1068
0.2686167,1024
0.2702833,1149
0.27195,1194
0.2736167,1130
0.2752833,1145
0.27695,1015
0.2786167,1062
0.2803,1161
0.2819667,1108
0.2836167,1146
0.2852833,1245
0.28695,975
0.2886167,993
0.2902833,1284
0.29195,1203
0.2936167,1307
0.2952833,1323
0.29695,975
0.2986333,1131
0.3002833,1367
0.3019667,1016
0.3036333,1242
0.3052833,1243
0.30695,1271
0.3086167,881
0.3102833,1271
0.31195,1541
0.3136167,1281
0.3153,1488
0.31695,1427
0.3186333,1436
0.3203,1445
0.32195,1321
0.3236167,1175
0.3252833,1296
0.32695,1339
0.3286333,1383
0.3302833,1349
0.3319667,1202
0.3336333,1058
0.3353,1149
0.3369667,1162
0.3386167,1152
0.3403,1154
0.34195,1169
0.3436333,1080
0.3452833,1085
0.3469667,1087
0.3486333,1229
0.3503,1239
0.3519667,1299
0.3536333,1222
0.3552833,1258
0.3569667,1294
0.3586167,1355
0.3603,1429
0.36195,1167
0.3636333,1471
0.3653,1658
0.3669667,1992
0.3686333,2715
0.3703,2786
0.3719667,2581
0.3736333,2728
0.3753,2417
0.3769667,2225
0.3786333,2697
0.3803,2405
0.3819667,2551
0.3836333,2474
0.3853,2173
0.3869667,2022
0.3886333,1627
0.3903,1390
0.3919667,1080
0.3936333,854
0.3953,739
0.3969667,747
0.3986333,695
0.4003,603
0.4019667,580
0.4036333,649
0.4053,508
0.4069667,566
0.4086333,603
0.4103,623
0.4119667,643
0.4136333,599
0.4153,711
0.4169667,699
0.4186333,693
0.4203,706
0.4219667,667
0.4236333,789
0.4253,816
0.4269667,876
0.4286333,826
0.4303,816
0.4319667,806
0.4336333,782
0.4353,759
0.4369667,770
0.4386333,814
0.4403,857
0.4419667,897
0.4436333,855
0.4453,813
0.4469667,848
0.4486333,1141
0.4503,1191
0.4519667,1058
0.4536333,1197
0.4553,1281
0.4569667,1140
0.4586333,1142
0.4603,1144
0.4619667,1197
0.4636333,1376
0.4653,1446
0.4669667,1242
0.4686333,1532
0.4703,1491
0.4719667,1200
0.4736333,1393
0.4753,1426
0.4769667,1547
0.4786333,1463
0.4803,1342
0.4819667,1478
0.4836333,1343
0.4853,1292
0.4869667,1102
0.4886333,1432
0.4903,1151
0.4919667,1408
0.4936333,1314
0.4953,1152
0.4969667,947
0.4986333,1180
0.5003,1150
0.5019667,885
0.5036333,1124
0.5053,1305
0.5069667,1197
0.5086333,1265
0.5103,948
0.5119666,916
0.5136333,1065
0.5153,942
0.5169666,855
0.5186333,861
0.5203,911
0.5219667,1092
0.5236334,1055
0.5253,976
0.5269667,1222
0.5286334,1209
0.5303,976
0.5319667,981
0.5336334,1027
0.5353,1054
0.5369667,1081
0.5386333,825
0.5403,924
0.5419667,891
0.5436333,858
0.5453,888
0.5469667,996
0.5486333,1010
0.5503,987
0.5519667,973
0.5536333,960
0.5553,938
0.5569667,917
0.5586333,844
0.5603,989
0.5619667,818
0.5636333,998
0.5653,917
0.5669667,792
0.5686333,939
0.5703,1021
0.5719666,887
0.5736333,863
0.5753,1117
0.5769666,1023
0.5786333,952
0.5803,1000
0.5819666,777
0.5836333,920
0.5853,1021
0.5869667,1065
0.5886334,948
0.5903,917
0.5919667,853
0.5936334,989
0.5953,975
0.5969667,978
0.5986333,946
0.6003,848
0.6019667,927
0.6036333,679
0.6053,1006
0.6069667,802
0.6086333,851
0.6103,946
0.6119667,955
0.6136333,1093
0.6153,1082
0.6169667,800
0.6186333,938
0.6203,1058
0.6219667,947
0.6236333,866
0.6253,908
0.6269667,879
0.6286333,944
0.6303,941
0.6319667,780
0.6336333,944
0.6353,913
0.6369666,1054
0.6386333,1044
0.6403,802
0.6419666,853
0.6436333,837
0.6453,1023
0.6469667,1021
0.6486334,822
0.6503,805
0.6519667,854
0.6536334,877
0.6553,899
0.6569667,928
0.6586334,979
0.6603,688
0.6619667,804
0.6636333,1034
0.6653,1107
0.6669667,852
0.6686333,885
0.6703,835
0.6719667,752
0.6736333,840
0.6753,733
0.6769667,758
0.6786333,810
0.6803,809
0.6819667,918
0.6836333,879
0.6853,841
0.6869667,946
0.6886333,1072
0.6903,667
0.6919667,991
0.6936333,885
0.6953,813
0.6969666,851
0.6986333,815
0.7003,867
0.7019666,919
0.7036333,1102
0.7053,1029
0.7069666,860
0.7086333,821
0.7103,999
0.7119667,770
0.7136334,625
0.7153,848
0.7169667,794
0.7186334,762
0.7203,889
0.7219667,910
0.7236333,750
0.7253,916
0.7269667,782
0.7286333,956
0.7303,874
0.7319667,696
0.7336333,978
0.7353,770
0.7369667,887
0.7386333,953
0.7403,748
0.7419667,839
0.7436333,845
0.7453,839
0.7469667,846
0.7486333,852
0.7503,913
0.7519667,753
0.7536333,932
0.7553,635
0.7569667,914
0.7586333,923
0.7603,652
0.7619666,748
0.7636333,980
0.7653,735
0.7669666,898
0.7686333,950
0.7703,1008
0.7719667,964
0.7736334,925
0.7753,745
0.7769667,729
0.7786334,856
0.7803,845
0.7819667,843
0.7836334,842
0.7853,904
0.7869667,756
0.7886333,907
0.7903,821
0.7919667,786
0.7936333,749
0.7953,713
0.7969667,759
0.7986333,821
0.8003,882
0.8019667,871
0.8036333,860
0.8053,859
0.8069667,873
0.8086333,887
0.8103,879
0.8119667,871
0.8136333,916
0.8153,961
0.8169667,707
0.8186333,742
0.8203,812
0.8219666,869
0.8236333,825
0.8253,830
0.8269666,845
0.8286333,771
0.8303,726
0.8319666,874
0.8336333,795
0.8353,838
0.8369667,895
0.8386334,875
0.8403,805
0.8419667,857
0.8436334,852
0.8453,891
0.8469667,929
0.8486333,881
0.8503,834
0.8519667,962
0.8536333,727
0.8553,1053
0.8569667,727
0.8586333,847
0.8603,976
0.8619667,867
0.8636333,875
0.8653,884
0.8669667,674
0.8686333,841
0.8703,757
0.8719667,780
0.8736333,804
0.8753,774
0.8769667,744
0.8786333,814
0.8803,791
0.8819667,768
0.8836333,890
0.8853,1012
0.8869666,972
0.8886333,1044
0.8903,1091
0.8919666,1072
0.8936333,1053
0.8953,855
0.8969667,1199
0.8986334,1246
0.9003,1231
0.9019667,1118
0.9036334,1242
0.9053,1097
0.9069667,1085
0.9086334,1169
0.9103,1176
0.9119667,1184
0.9136333,1241
0.9153,1248
0.9169667,1090
0.9186333,1199
0.9203,1088
0.9219667,1222
0.9236333,1002
0.9253,980
0.9269667,1150
0.9286333,1199
0.9303,1069
0.9319667,1164
0.9336333,1246
0.9353,1035
0.9369667,1253
0.9386333,1079
0.9403,1229
0.9419667,1358
0.9436333,1234
0.9453,1256
0.9469666,1297
0.9486333,932
0.9503,1044
0.9519666,987
0.9536333,1139
0.9553,1185
0.9569666,980
0.9586333,1171
0.9603,916
0.9619667,1177
0.9636334,1001
0.9653,1026
0.9669667,1069
0.9686334,937
0.9703,1039
0.9719667,804
0.9736333,994
0.9753,977
0.9769667,987
0.9786333,988
0.9803,663
0.9819667,629
0.9836333,920
0.9853,862
0.9869667,779
0.9886333,883
0.9903,900
0.9919667,748
0.9936333,700
0.9953,695
0.9969667,735
0.9986333,652
1.0003,692
1.001967,731
1.003633,727
1.0053,622
1.006967,872
1.008633,802
1.0103,970
1.011967,864
1.013633,799
1.0153,859
1.016967,758
1.018633,777
1.0203,728
1.021967,824
1.023633,920
1.0253,975
1.026967,1040
1.028633,817
1.0303,758
1.031967,810
1.033633,813
1.0353,816
1.036967,837
1.038633,825
1.0403,812
1.041967,745
1.043633,768
1.0453,841
1.046967,799
1.048633,758
1.0503,883
1.051967,838
1.053633,951
1.0553,1009
1.056967,793
1.058633,874
1.0603,740
1.061967,818
1.063633,801
1.0653,785
1.066967,769
1.068633,820
1.0703,871
1.071967,698
1.073633,814
1.0753,805
1.076967,797
1.078633,682
1.0803,692
1.081967,733
1.083633,774
1.0853,770
1.086967,767
1.088633,787
1.0903,807
1.091967,976
1.093633,1043
1.0953,1022
1.096967,642
1.098633,940
1.1003,848
1.101967,975
1.103633,784
1.1053,932
1.106967,866
1.108633,852
1.1103,832
1.111967,821
1.113633,810
1.1153,862
1.116967,885
1.118633,909
1.1203,805
1.121967,852
1.123633,791
1.1253,782
1.126967,824
1.128633,834
1.1303,774
1.131967,811
1.133633,759
1.1353,707
1.136967,708
1.138633,709
1.1403,924
1.141967,891
1.143633,882
1.1453,870
1.146967,863
1.148633,770
1.1503,900
1.151967,887
1.153633,974
1.1553,816
1.156967,805
1.158633,828
1.1603,866
1.161967,848
1.163633,830
1.1653,880
1.166967,883
1.168633,817
1.1703,806
1.171967,873
1.173633,641
1.1753,775
1.176967,793
1.178633,709
1.1803,892
1.181967,618
1.183633,878
1.1853,806
1.186967,720
1.188633,877
1.1903,746
1.191967,651
1.193633,631
1.1953,817
1.196967,775
1.198633,724
