"SampleName","A2Rd2_02-80"
"Target Mass 1",
"Column Name","IA-3 (3um, 4.6X100)"
"Channel","QDa 1: SIR Ch2"
0.00195,493
0.003616667,524
0.005283333,545
0.00695,637
0.008616666,799
0.01028333,763
0.01195,826
0.01361667,889
0.01528333,1048
0.01695,986
0.01861667,804
0.02028333,824
0.02195,929
0.02361667,907
0.02528333,885
0.02695,859
0.02861667,833
0.03028333,852
0.03195,871
0.03361667,950
0.03528333,951
0.03695,866
0.03861667,1053
0.04028333,1024
0.04195,911
0.04361667,960
0.04528333,1003
0.04695,1060
0.04861667,851
0.05028334,884
0.05195,909
0.05361667,962
0.05528333,946
0.05695,961
0.05861667,975
0.06028333,828
0.06195,948
0.06361666,908
0.06528334,928
0.06695,935
0.06861667,941
0.07028333,923
0.07195,940
0.07361667,963
0.07528333,941
0.07695,920
0.07861666,787
0.08028334,962
0.08195,954
0.08361667,882
0.08528333,861
0.08695,968
0.08861667,846
0.09028333,715
0.09195,1039
0.09361666,1000
0.09528334,1070
0.09695,1009
0.09861667,1002
0.1002833,806
0.10195,980
0.1036167,997
0.1052833,874
0.10695,999
0.1086167,949
0.1102833,922
0.11195,783
0.1136167,720
0.1152833,877
0.11695,750
0.1186167,783
0.1202833,815
0.12195,974
0.1236167,981
0.1252833,896
0.12695,999
0.1286167,938
0.1302833,861
0.13195,838
0.1336167,704
0.1352833,900
0.13695,934
0.1386167,717
0.1402833,859
0.14195,876
0.1436167,793
0.1452833,822
0.14695,733
0.1486167,866
0.1502833,850
0.15195,835
0.1536167,922
0.1552833,924
0.15695,926
0.1586167,957
0.1602833,953
0.16195,1017
0.1636167,790
0.1652833,981
0.16695,839
0.1686167,930
0.1702833,826
0.17195,723
0.1736167,735
0.1752833,897
0.17695,951
0.1786167,958
0.1802833,802
0.18195,944
0.1836167,719
0.1852833,857
0.18695,991
0.1886167,772
0.1902833,810
0.19195,820
0.1936167,768
0.1952833,827
0.19695,826
0.1986167,985
0.2002833,933
0.20195,938
0.2036167,834
0.2052833,841
0.20695,848
0.2086167,919
0.2102833,989
0.21195,993
0.2136167,1045
0.2152833,1010
0.21695,952
0.2186167,1028
0.2202833,1038
0.22195,1048
0.2236167,1005
0.2252833,1103
0.22695,818
0.2286167,1069
0.2302833,1098
0.23195,1118
0.2336167,1048
0.2353,977
0.23695,1156
0.2386167,1230
0.2403,1105
0.24195,1084
0.2436167,1064
0.2453,1126
0.24695,1112
0.2486167,1209
0.2503,1230
0.25195,1137
0.2536167,1043
0.2552833,1167
0.25695,1211
0.2586167,1144
0.2602833,1073
0.26195,913
0.2636333,849
0.2652833,1004
0.26695,917
0.2686167,830
0.2702833,886
0.27195,886
0.2736167,886
0.2752833,836
0.27695,864
0.2786167,892
0.2803,922
0.28195,917
0.2836167,913
0.2852833,942
0.28695,971
0.2886167,965
0.2902833,960
0.29195,973
0.2936167,941
0.2952833,892
0.29695,936
0.2986333,1116
0.3003,1065
0.30195,1100
0.3036167,965
0.3052833,1048
0.3069667,1122
0.3086167,1153
0.3102833,1218
0.31195,1215
0.3136167,1030
0.3153,1155
0.31695,1279
0.3186167,1282
0.3202833,1166
0.32195,1220
0.3236333,1275
0.3252833,1178
0.32695,1198
0.3286167,1142
0.3302833,1203
0.3319667,1232
0.3336333,1133
0.3352833,1272
0.3369667,1128
0.3386167,1138
0.3403,1308
0.34195,1099
0.3436167,1211
0.3452833,1492
0.34695,1435
0.3486333,1268
0.3503,1393
0.35195,1406
0.3536333,1346
0.3552833,1485
0.3569667,1201
0.3586167,1218
0.3603,1380
0.3619667,1417
0.3636333,1367
0.3653,1769
0.3669667,2560
0.3686333,2811
0.3703,2775
0.3719667,2942
0.3736333,2687
0.3752833,2546
0.3769667,2320
0.3786167,2697
0.3803,2662
0.3819667,2293
0.3836333,2156
0.3853,2113
0.3869667,1983
0.3886333,1803
0.3903,1023
0.3919667,893
0.3936333,869
0.3953,645
0.3969667,632
0.3986333,570
0.4003,493
0.4019667,488
0.4036333,604
0.4053,655
0.4069667,636
0.4086333,471
0.4103,653
0.4119667,634
0.4136333,635
0.4153,568
0.4169667,637
0.4186333,579
0.4203,659
0.4219667,670
0.4236333,681
0.4253,722
0.4269667,719
0.4286333,750
0.4303,797
0.4319667,759
0.4336333,720
0.4353,758
0.4369667,796
0.4386333,870
0.4403,922
0.4419667,968
0.4436333,1043
0.4453,995
0.4469667,946
0.4486333,975
0.4503,1028
0.4519667,1080
0.4536333,882
0.4553,1121
0.4569667,1252
0.4586333,1108
0.4603,1094
0.4619667,1101
0.4636333,1109
0.4653,1074
0.4669667,1039
0.4686333,1143
0.4703,1247
0.4719667,1219
0.4736333,1191
0.4753,1174
0.4769667,1158
0.4786333,1168
0.4803,1177
0.4819667,1141
0.4836333,1241
0.4853,1064
0.4869667,1253
0.4886333,1323
0.4903,1178
0.4919667,1247
0.4936333,1119
0.4953,1045
0.4969667,982
0.4986333,1050
0.5003,837
0.5019667,792
0.5036333,1099
0.5053,1097
0.5069667,875
0.5086333,813
0.5103,617
0.5119666,794
0.5136333,887
0.5153,922
0.5169666,821
0.5186333,904
0.5203,884
0.5219667,865
0.5236334,891
0.5253,916
0.5269667,922
0.5286334,859
0.5303,1048
0.5319667,1063
0.5336334,928
0.5353,1081
0.5369667,963
0.5386333,964
0.5403,949
0.5419667,1003
0.5436333,886
0.5453,940
0.5469667,1012
0.5486333,1070
0.5503,831
0.5519667,932
0.5536333,736
0.5553,917
0.5569667,630
0.5586333,1003
0.5603,1011
0.5619667,934
0.5636333,929
0.5653,925
0.5669667,924
0.5686333,923
0.5703,1003
0.5719666,785
0.5736333,910
0.5753,886
0.5769666,1037
0.5786333,954
0.5803,708
0.5819666,803
0.5836333,958
0.5853,909
0.5869667,969
0.5886334,921
0.5903,956
0.5919667,905
0.5936334,744
0.5953,1047
0.5969667,932
0.5986333,894
0.6003,1069
0.6019667,988
0.6036333,944
0.6053,876
0.6069667,1018
0.6086333,939
0.6103,860
0.6119667,880
0.6136333,865
0.6153,881
0.6169667,897
0.6186333,1052
0.6203,944
0.6219667,837
0.6236333,925
0.6253,978
0.6269667,1073
0.6286333,1215
0.6303,1203
0.6319667,1046
0.6336333,1002
0.6353,1009
0.6369666,1016
0.6386333,1039
0.6403,1069
0.6419666,1178
0.6436333,1132
0.6453,1087
0.6469667,1060
0.6486334,1028
0.6503,1182
0.6519667,1270
0.6536334,870
0.6553,1207
0.6569667,1070
0.6586334,1024
0.6603,971
0.6619667,1037
0.6636333,1108
0.6653,1100
0.6669667,1079
0.6686333,1059
0.6703,1475
0.6719667,1543
0.6736333,1990
0.6753,2374
0.6769667,3055
0.6786333,3947
0.6803,4718
0.6819667,5722
0.6836333,8056
0.6853,10276
0.6869667,12468
0.6886333,13532
0.6903,15524
0.6919667,18644
0.6936333,18932
0.6953,21040
0.6969666,23672
0.6986333,24628
0.7003,24688
0.7019666,24076
0.7036333,24308
0.7053,22584
0.7069666,22700
0.7086333,22168
0.7103,20616
0.7119667,21500
0.7136334,20444
0.7153,20332
0.7169667,19344
0.7186334,19584
0.7203,19240
0.7219667,18880
0.7236333,19088
0.7253,18116
0.7269667,18316
0.7286333,16344
0.7303,15044
0.7319667,14116
0.7336333,12380
0.7353,11752
0.7369667,10136
0.7386333,9608
0.7403,8580
0.7419667,7868
0.7436333,6583
0.7453,6025
0.7469667,5388
0.7486333,4857
0.7503,4244
0.7519667,3952
0.7536333,3790
0.7553,3193
0.7569667,2954
0.7586333,2411
0.7603,2784
0.7619666,2188
0.7636333,2371
0.7653,2143
0.7669666,2050
0.7686333,2015
0.7703,2110
0.7719667,1945
0.7736334,2209
0.7753,2287
0.7769667,2938
0.7786334,3105
0.7803,3730
0.7819667,4556
0.7836334,5851
0.7853,7401
0.7869667,8244
0.7886333,9972
0.7903,12228
0.7919667,14136
0.7936333,15584
0.7953,18332
0.7969667,19400
0.7986333,21848
0.8003,20536
0.8019667,22136
0.8036333,22408
0.8053,23164
0.8069667,22828
0.8086333,21944
0.8103,20948
0.8119667,19784
0.8136333,20540
0.8153,19596
0.8169667,19348
0.8186333,18440
0.8203,17300
0.8219666,17252
0.8236333,16204
0.8253,16820
0.8269666,16792
0.8286333,17120
0.8303,16124
0.8319666,16628
0.8336333,15436
0.8353,15428
0.8369667,13504
0.8386334,13484
0.8403,12748
0.8419667,11384
0.8436334,10788
0.8453,9084
0.8469667,8944
0.8486333,8077
0.8503,6794
0.8519667,6342
0.8536333,5861
0.8553,5574
0.8569667,4605
0.8586333,4288
0.8603,3959
0.8619667,3758
0.8636333,3430
0.8653,3172
0.8669667,2566
0.8686333,2230
0.8703,2769
0.8719667,2028
0.8736333,2238
0.8753,1984
0.8769667,2249
0.8786333,2098
0.8803,2222
0.8819667,2045
0.8836333,2469
0.8853,2547
0.8869666,2469
0.8886333,2196
0.8903,2285
0.8919666,2368
0.8936333,1877
0.8953,2085
0.8969667,2029
0.8986334,2064
0.9003,1781
0.9019667,1987
0.9036334,1887
0.9053,1651
0.9069667,1925
0.9086334,1610
0.9103,1875
0.9119667,1631
0.9136333,1675
0.9153,1548
0.9169667,1741
0.9186333,1689
0.9203,1864
0.9219667,1763
0.9236333,1568
0.9253,1646
0.9269667,1685
0.9286333,1446
0.9303,1438
0.9319667,1610
0.9336333,1465
0.9353,1554
0.9369667,1348
0.9386333,1415
0.9403,1483
0.9419667,1524
0.9436333,1566
0.9453,2023
0.9469666,1952
0.9486333,2524
0.9503,2569
0.9519666,3234
0.9536333,3914
0.9553,5414
0.9569666,6225
0.9586333,7917
0.9603,9340
0.9619667,10756
0.9636334,13928
0.9653,17156
0.9669667,21244
0.9686334,23512
0.9703,28520
0.9719667,34864
0.9736333,37920
0.9753,42848
0.9769667,48000
0.9786333,50240
0.9803,54288
0.9819667,60592
0.9836333,63968
0.9853,64496
0.9869667,64528
0.9886333,66560
0.9903,66368
0.9919667,67120
0.9936333,65216
0.9953,65248
0.9969667,62800
0.9986333,64752
1.0003,60288
1.001967,60592
1.003633,59680
1.0053,58192
1.006967,53632
1.008633,54752
1.0103,54976
1.011967,53696
1.013633,55264
1.0153,53296
1.016967,54608
1.018633,56032
1.0203,56048
1.021967,55824
1.023633,56912
1.0253,54640
1.026967,53104
1.028633,51488
1.0303,50208
1.031967,48368
1.033633,48176
1.0353,43184
1.036967,41376
1.038633,40176
1.0403,36528
1.041967,33328
1.043633,31236
1.0453,29920
1.046967,29572
1.048633,26264
1.0503,25236
1.051967,24632
1.053633,23512
1.0553,22932
1.056967,23916
1.058633,22876
1.0603,23216
1.061967,23444
1.063633,23676
1.0653,25652
1.066967,26448
1.068633,26100
1.0703,28176
1.071967,28004
1.073633,27692
1.0753,28400
1.076967,27828
1.078633,27252
1.0803,27832
1.081967,27812
1.083633,27792
1.0853,26916
1.086967,26544
1.088633,24816
1.0903,27056
1.091967,25164
1.093633,26308
1.0953,24400
1.096967,24556
1.098633,23832
1.1003,22708
1.101967,21884
1.103633,23468
1.1053,21608
1.106967,22180
1.108633,21872
1.1103,20624
1.111967,21592
1.113633,21500
1.1153,19880
1.116967,20260
1.118633,19100
1.1203,19156
1.121967,18992
1.123633,17068
1.1253,17020
1.126967,15684
1.128633,15344
1.1303,14472
1.131967,14116
1.133633,12512
1.1353,11904
1.136967,11548
1.138633,10804
1.1403,10628
1.141967,9492
1.143633,8904
1.1453,8832
1.146967,7772
1.148633,7265
1.1503,7082
1.151967,6602
1.153633,6313
1.1553,5731
1.156967,5715
1.158633,5225
1.1603,4974
1.161967,4567
1.163633,4375
1.1653,4458
1.166967,4142
1.168633,3956
1.1703,3489
1.171967,3118
1.173633,3463
1.1753,3109
1.176967,3307
1.178633,3108
1.1803,2853
1.181967,2951
1.183633,2767
1.1853,3007
1.186967,3028
1.188633,3048
1.1903,3071
1.191967,3296
1.193633,2718
1.1953,3617
1.196967,4140
1.198633,3631
