"SampleName","A2Rd2_02-6"
"Target Mass 1",
"Column Name","IA-3 (3um, 4.6X100)"
"Channel","QDa 1: SIR Ch2"
0.00195,444
0.003616667,672
0.005283333,619
0.00695,583
0.008616666,868
0.01028333,907
0.01195,770
0.01361667,784
0.01528333,987
0.01695,1035
0.01861667,931
0.02028333,963
0.02195,926
0.02361667,774
0.02528333,918
0.02695,794
0.02861667,807
0.03028333,820
0.03195,992
0.03361667,1050
0.03528333,896
0.03695,868
0.03861667,887
0.04028333,934
0.04195,982
0.04361667,1011
0.04528333,942
0.04695,872
0.04861667,832
0.05028334,915
0.05195,998
0.05361667,1019
0.05528333,882
0.05695,832
0.05861667,900
0.06028333,903
0.06195,769
0.06361666,856
0.06528334,946
0.06695,708
0.06861667,742
0.07028333,831
0.07195,851
0.07361667,872
0.07528333,940
0.07695,930
0.07861666,921
0.08028334,855
0.08195,910
0.08361667,966
0.08528333,662
0.08695,857
0.08861667,667
0.09028333,769
0.09195,907
0.09361666,839
0.09528334,809
0.09695,938
0.09861667,873
0.1002833,956
0.10195,955
0.1036167,593
0.1052833,932
0.10695,904
0.1086167,888
0.1102833,853
0.11195,729
0.1136167,752
0.1152833,929
0.11695,849
0.1186167,767
0.1202833,685
0.12195,723
0.1236167,852
0.1252833,837
0.12695,682
0.1286167,834
0.1302833,884
0.13195,870
0.1336167,726
0.1352833,952
0.13695,811
0.1386167,749
0.1402833,943
0.14195,851
0.1436167,850
0.1452833,844
0.14695,760
0.1486167,800
0.1502833,828
0.15195,750
0.1536167,709
0.1552833,667
0.15695,761
0.1586167,748
0.1602833,892
0.16195,800
0.1636167,709
0.1652833,923
0.16695,816
0.1686167,981
0.1702833,776
0.17195,818
0.1736167,1052
0.1752833,772
0.17695,960
0.1786167,815
0.1802833,886
0.18195,920
0.1836167,853
0.1852833,699
0.18695,909
0.1886167,829
0.1902833,656
0.19195,869
0.1936167,876
0.1952833,689
0.19695,724
0.1986167,759
0.2002833,904
0.20195,873
0.2036167,843
0.2052833,978
0.20695,970
0.2086167,869
0.2102833,786
0.21195,965
0.2136167,942
0.2152833,920
0.21695,923
0.2186167,926
0.2202833,996
0.22195,955
0.2236167,913
0.2252833,924
0.22695,935
0.2286167,982
0.2302833,1045
0.23195,1108
0.2336167,1081
0.2352833,1059
0.23695,1037
0.2386167,1085
0.2402833,1082
0.24195,1078
0.2436167,1148
0.2452833,942
0.24695,1113
0.2486167,1277
0.2502833,1172
0.25195,939
0.2536167,1022
0.2552833,1235
0.25695,1129
0.2586167,884
0.2602833,1094
0.26195,752
0.2636167,1245
0.2652833,1019
0.26695,959
0.2686167,1277
0.2703,1006
0.27195,1072
0.2736167,1036
0.2752833,1175
0.27695,1206
0.2786167,939
0.2802833,825
0.28195,961
0.2836167,919
0.2852833,878
0.28695,909
0.2886167,902
0.2902833,930
0.29195,968
0.2936167,971
0.2952833,895
0.29695,937
0.2986333,895
0.3002833,868
0.30195,1002
0.3036167,1278
0.3052833,1242
0.30695,1249
0.3086167,840
0.3102833,1297
0.31195,1257
0.3136167,1040
0.3153,1277
0.31695,1393
0.3186167,1456
0.3203,1190
0.32195,1216
0.3236167,1049
0.3252833,1135
0.32695,1221
0.3286167,1162
0.3302833,1203
0.33195,1221
0.3336333,1068
0.3352833,1117
0.33695,1160
0.3386167,1203
0.3402833,1256
0.34195,1309
0.3436167,1518
0.3452833,1464
0.34695,1390
0.3486167,1170
0.3503,1253
0.35195,1082
0.3536167,1191
0.3553,1312
0.35695,1426
0.3586167,1297
0.3602833,1169
0.3619667,1351
0.3636167,1580
0.3652833,1807
0.36695,3324
0.3686333,3994
0.3703,4390
0.3719667,4212
0.3736167,4259
0.3752833,4172
0.37695,4273
0.3786167,4026
0.3802833,3740
0.38195,3628
0.3836333,3046
0.3853,2178
0.38695,1793
0.3886333,1427
0.3902833,1181
0.39195,1070
0.3936167,703
0.3952833,614
0.39695,657
0.3986167,450
0.4003,514
0.40195,542
0.4036333,619
0.4053,553
0.4069667,488
0.4086333,414
0.4103,639
0.4119667,634
0.4136333,649
0.4153,672
0.4169667,696
0.4186333,710
0.4203,724
0.4219667,637
0.4236333,753
0.4253,854
0.4269667,980
0.4286333,905
0.4303,817
0.4319667,863
0.4336333,701
0.4353,742
0.4369667,841
0.4386333,808
0.4403,776
0.4419667,839
0.4436333,903
0.4453,957
0.4469667,1011
0.4486333,1052
0.4503,1184
0.4519667,1231
0.4536333,1231
0.4553,1230
0.4569667,1274
0.4586333,1318
0.4603,1589
0.4619667,1739
0.4636333,1905
0.4653,1332
0.4669667,1327
0.4686333,1643
0.4703,1460
0.4719667,1595
0.4736333,1680
0.4753,1756
0.4769667,1591
0.4786333,1507
0.4803,1456
0.4819667,1570
0.4836333,1322
0.4853,1606
0.4869667,1511
0.4886333,1489
0.4903,1229
0.4919667,1393
0.4936333,1059
0.4953,1177
0.4969667,1010
0.4986333,1118
0.5003,1232
0.5019667,1122
0.5036333,1090
0.5053,1148
0.5069667,962
0.5086333,1051
0.5103,1106
0.5119666,961
0.5136333,861
0.5153,963
0.5169666,984
0.5186333,926
0.5203,867
0.5219667,1038
0.5236334,1032
0.5253,845
0.5269667,876
0.5286334,972
0.5303,951
0.5319667,930
0.5336334,1030
0.5353,988
0.5369667,945
0.5386333,915
0.5403,957
0.5419667,833
0.5436333,878
0.5453,862
0.5469667,850
0.5486333,864
0.5503,899
0.5519667,933
0.5536333,910
0.5553,886
0.5569667,867
0.5586333,828
0.5603,790
0.5619667,872
0.5636333,954
0.5653,915
0.5669667,1006
0.5686333,837
0.5703,1036
0.5719666,875
0.5736333,929
0.5753,890
0.5769666,831
0.5786333,966
0.5803,951
0.5819666,789
0.5836333,1081
0.5853,790
0.5869667,870
0.5886334,851
0.5903,991
0.5919667,1031
0.5936334,1116
0.5953,1094
0.5969667,1072
0.5986333,822
0.6003,862
0.6019667,1013
0.6036333,1066
0.6053,753
0.6069667,802
0.6086333,746
0.6103,913
0.6119667,938
0.6136333,772
0.6153,859
0.6169667,849
0.6186333,863
0.6203,876
0.6219667,908
0.6236333,790
0.6253,854
0.6269667,781
0.6286333,763
0.6303,841
0.6319667,859
0.6336333,932
0.6353,947
0.6369666,1041
0.6386333,1006
0.6403,1058
0.6419666,931
0.6436333,944
0.6453,909
0.6469667,871
0.6486334,1011
0.6503,743
0.6519667,991
0.6536334,909
0.6553,826
0.6569667,742
0.6586334,767
0.6603,864
0.6619667,834
0.6636333,786
0.6653,864
0.6669667,811
0.6686333,909
0.6703,821
0.6719667,734
0.6736333,699
0.6753,817
0.6769667,868
0.6786333,911
0.6803,622
0.6819667,888
0.6836333,940
0.6853,927
0.6869667,760
0.6886333,833
0.6903,893
0.6919667,939
0.6936333,953
0.6953,829
0.6969666,829
0.6986333,830
0.7003,891
0.7019666,875
0.7036333,858
0.7053,870
0.7069666,862
0.7086333,831
0.7103,781
0.7119667,754
0.7136334,808
0.7153,750
0.7169667,691
0.7186334,719
0.7203,748
0.7219667,908
0.7236333,952
0.7253,718
0.7269667,920
0.7286333,686
0.7303,765
0.7319667,724
0.7336333,806
0.7353,762
0.7369667,801
0.7386333,841
0.7403,824
0.7419667,806
0.7436333,778
0.7453,632
0.7469667,793
0.7486333,821
0.7503,848
0.7519667,849
0.7536333,951
0.7553,647
0.7569667,793
0.7586333,789
0.7603,785
0.7619666,752
0.7636333,742
0.7653,762
0.7669666,839
0.7686333,836
0.7703,833
0.7719667,857
0.7736334,824
0.7753,791
0.7769667,907
0.7786334,880
0.7803,820
0.7819667,759
0.7836334,865
0.7853,866
0.7869667,954
0.7886333,897
0.7903,917
0.7919667,938
0.7936333,767
0.7953,834
0.7969667,901
0.7986333,888
0.8003,874
0.8019667,775
0.8036333,904
0.8053,834
0.8069667,714
0.8086333,883
0.8103,885
0.8119667,761
0.8136333,903
0.8153,843
0.8169667,768
0.8186333,771
0.8203,774
0.8219666,775
0.8236333,742
0.8253,710
0.8269666,887
0.8286333,855
0.8303,756
0.8319666,827
0.8336333,875
0.8353,803
0.8369667,799
0.8386334,883
0.8403,1017
0.8419667,600
0.8436334,890
0.8453,973
0.8469667,865
0.8486333,886
0.8503,907
0.8519667,876
0.8536333,736
0.8553,805
0.8569667,780
0.8586333,730
0.8603,810
0.8619667,764
0.8636333,747
0.8653,731
0.8669667,779
0.8686333,785
0.8703,791
0.8719667,796
0.8736333,754
0.8753,683
0.8769667,719
0.8786333,755
0.8803,771
0.8819667,786
0.8836333,1013
0.8853,1152
0.8869666,1165
0.8886333,1163
0.8903,992
0.8919666,1018
0.8936333,1214
0.8953,1093
0.8969667,1087
0.8986334,1216
0.9003,1277
0.9019667,1176
0.9036334,866
0.9053,1170
0.9069667,1082
0.9086334,1050
0.9103,1198
0.9119667,1108
0.9136333,951
0.9153,1099
0.9169667,1189
0.9186333,1232
0.9203,942
0.9219667,969
0.9236333,1085
0.9253,1048
0.9269667,1011
0.9286333,1048
0.9303,1085
0.9319667,963
0.9336333,1019
0.9353,1055
0.9369667,1090
0.9386333,919
0.9403,1073
0.9419667,1100
0.9436333,1078
0.9453,1203
0.9469666,1193
0.9486333,1183
0.9503,1083
0.9519666,1033
0.9536333,1058
0.9553,985
0.9569666,979
0.9586333,995
0.9603,834
0.9619667,843
0.9636334,1031
0.9653,842
0.9669667,745
0.9686334,1043
0.9703,1017
0.9719667,863
0.9736333,913
0.9753,912
0.9769667,844
0.9786333,895
0.9803,753
0.9819667,742
0.9836333,792
0.9853,767
0.9869667,743
0.9886333,816
0.9903,802
0.9919667,787
0.9936333,782
0.9953,672
0.9969667,583
0.9986333,888
1.0003,752
1.001967,697
1.003633,859
1.0053,919
1.006967,885
1.008633,904
1.0103,756
1.011967,822
1.013633,616
1.0153,990
1.016967,962
1.018633,849
1.0203,794
1.021967,930
1.023633,768
1.0253,980
1.026967,781
1.028633,709
1.0303,788
1.031967,754
1.033633,782
1.0353,809
1.036967,916
1.038633,917
1.0403,908
1.041967,865
1.043633,823
1.0453,740
1.046967,779
1.048633,781
1.0503,783
1.051967,749
1.053633,716
1.0553,719
1.056967,835
1.058633,779
1.0603,722
1.061967,783
1.063633,844
1.0653,795
1.066967,746
1.068633,810
1.070317,875
1.071967,907
1.073633,763
1.0753,734
1.076967,1006
1.078633,963
1.0803,872
1.081967,863
1.083633,768
1.085317,942
1.086967,874
1.088633,871
1.0903,885
1.091967,885
1.093633,906
1.0953,808
1.096967,815
1.098633,821
1.1003,845
1.101967,869
1.10365,761
1.1053,842
1.106967,888
1.108633,934
1.1103,782
1.111967,774
1.113633,896
1.1153,974
1.116967,895
1.118633,815
1.120317,804
1.121967,757
1.123633,711
1.1253,834
1.126967,797
1.128633,877
1.1303,953
1.131983,940
1.13365,982
1.1353,745
1.136967,767
1.13865,684
1.1403,949
1.141967,918
1.143633,919
1.1453,801
1.146967,832
1.148633,703
1.150317,831
1.151967,795
1.15365,857
1.155317,911
1.156967,677
1.158633,703
1.1603,878
1.161967,890
1.163633,869
1.1653,767
1.166983,916
1.168633,785
1.170317,860
1.171967,700
1.17365,873
1.1753,756
1.176983,905
1.178633,813
1.180317,935
1.181967,779
1.18365,666
1.1853,816
1.186967,771
1.188633,708
1.190317,644
1.191967,756
1.19365,844
1.195317,563
1.196983,630
1.19865,897
