"SampleName","A2Rd2_02-7"
"Target Mass 1",
"Column Name","IA-3 (3um, 4.6X100)"
"Channel","QDa 1: SIR Ch2"
0.00195,478
0.003616667,662
0.005283333,681
0.00695,798
0.008616666,756
0.01028333,816
0.01195,835
0.01361667,862
0.01528333,742
0.01695,950
0.01861667,962
0.02028333,1035
0.02195,980
0.02361667,749
0.02528333,989
0.02695,836
0.02861667,856
0.03028333,1007
0.03195,919
0.03361667,965
0.03528333,922
0.03695,879
0.03861667,824
0.04028333,972
0.04195,982
0.04361667,1032
0.04528333,945
0.04695,816
0.04861667,1006
0.05028334,835
0.05195,944
0.05361667,936
0.05528333,950
0.05695,928
0.05861667,948
0.06028333,936
0.06195,924
0.06361666,898
0.06528334,932
0.06695,923
0.06861667,942
0.07028333,950
0.07195,959
0.07361667,919
0.07528333,880
0.07695,863
0.07861666,814
0.08028334,867
0.08195,847
0.08361667,826
0.08528333,880
0.08695,885
0.08861667,890
0.09028333,924
0.09195,914
0.09361666,903
0.09528334,813
0.09695,829
0.09861667,783
0.1002833,737
0.10195,1073
0.1036167,1005
0.1052833,1035
0.10695,852
0.1086167,816
0.1102833,1024
0.11195,947
0.1136167,735
0.1152833,657
0.11695,913
0.1186167,794
0.1202833,784
0.12195,778
0.1236167,772
0.1252833,850
0.12695,838
0.1286167,827
0.1302833,684
0.13195,604
0.1336167,780
0.1352833,779
0.13695,778
0.1386167,777
0.1402833,777
0.14195,881
0.1436167,834
0.1452833,786
0.14695,674
0.1486167,1012
0.1502833,933
0.15195,946
0.1536167,866
0.1552833,805
0.15695,698
0.1586167,921
0.1602833,892
0.16195,864
0.1636167,772
0.1652833,949
0.16695,934
0.1686167,815
0.1702833,930
0.17195,781
0.1736167,863
0.1752833,923
0.17695,702
0.1786167,898
0.1802833,701
0.18195,919
0.1836167,798
0.1852833,722
0.18695,929
0.1886167,797
0.1902833,675
0.19195,934
0.1936167,735
0.1952833,810
0.19695,824
0.1986167,893
0.2002833,877
0.20195,935
0.2036167,906
0.2052833,820
0.20695,910
0.2086167,1011
0.2102833,733
0.21195,842
0.2136167,1115
0.2152833,1109
0.21695,873
0.2186167,880
0.2202833,1013
0.22195,1070
0.2236167,946
0.2252833,1217
0.22695,1150
0.2286167,1279
0.2302833,1112
0.23195,1108
0.2336167,1198
0.2352833,1126
0.23695,1054
0.2386167,1251
0.2402833,1141
0.24195,1233
0.2436167,1163
0.2453,1093
0.24695,952
0.2486167,1237
0.2502833,951
0.25195,982
0.2536167,1143
0.2552833,891
0.25695,933
0.2586167,975
0.2602833,1040
0.26195,1062
0.2636333,1084
0.2652833,1057
0.26695,1021
0.2686167,1063
0.2702833,1080
0.27195,1098
0.2736167,1014
0.2752833,986
0.27695,1039
0.2786167,979
0.2803,919
0.28195,1022
0.2836167,775
0.2852833,1068
0.28695,975
0.2886167,614
0.2902833,1292
0.29195,1129
0.2936167,1250
0.2952833,958
0.29695,1220
0.2986333,973
0.3002833,1034
0.30195,939
0.3036333,1030
0.3052833,986
0.30695,1064
0.3086167,966
0.3102833,1040
0.31195,1399
0.3136167,1351
0.3153,1242
0.31695,1192
0.3186167,1331
0.3202833,1242
0.32195,1264
0.3236167,1077
0.3252833,1232
0.3269667,1393
0.3286333,1346
0.3302833,1269
0.33195,1301
0.3336333,1150
0.3352833,1231
0.33695,1162
0.3386167,1352
0.3402833,1307
0.34195,1382
0.3436333,1363
0.3453,1343
0.34695,1089
0.3486167,1168
0.3503,1247
0.35195,1324
0.3536333,1347
0.3552833,1179
0.3569667,1327
0.3586167,1368
0.3603,1517
0.3619667,1600
0.3636167,1485
0.3652833,2532
0.36695,3044
0.3686333,3967
0.3703,3632
0.3719667,3974
0.3736333,3854
0.3753,3607
0.3769667,3753
0.3786333,3824
0.3803,3627
0.3819667,2610
0.3836333,2227
0.3853,2171
0.3869667,1578
0.3886333,1466
0.3903,1239
0.3919667,789
0.3936333,649
0.3953,698
0.3969667,598
0.3986333,530
0.4003,449
0.4019667,647
0.4036333,311
0.4053,652
0.4069667,569
0.4086333,530
0.4103,622
0.4119667,613
0.4136333,598
0.4153,582
0.4169667,584
0.4186333,560
0.4203,535
0.4219667,713
0.4236333,678
0.4253,711
0.4269667,651
0.4286333,829
0.4303,852
0.4319667,876
0.4336333,766
0.4353,814
0.4369667,896
0.4386333,1018
0.4403,970
0.4419667,1034
0.4436333,944
0.4453,1013
0.4469667,1083
0.4486333,1088
0.4503,1098
0.4519667,958
0.4536333,993
0.4553,1028
0.4569667,1241
0.4586333,1109
0.4603,977
0.4619667,1342
0.4636333,1268
0.4653,1306
0.4669667,1182
0.4686333,1374
0.4703,1449
0.4719667,1358
0.4736333,1234
0.4753,1384
0.4769667,1157
0.4786333,1522
0.4803,1513
0.4819667,1431
0.4836333,996
0.4853,1208
0.4869667,1211
0.4886333,1298
0.4903,1320
0.4919667,1175
0.4936333,938
0.4953,1053
0.4969667,1036
0.4986333,1065
0.5003,810
0.5019667,948
0.5036333,1104
0.5053,1049
0.5069667,924
0.5086333,1049
0.5103,734
0.5119666,879
0.5136333,860
0.5153,1036
0.5169666,1029
0.5186333,806
0.5203,889
0.5219667,828
0.5236334,879
0.5253,877
0.5269667,706
0.5286334,983
0.5303,894
0.5319667,933
0.5336334,927
0.5353,979
0.5369667,912
0.5386333,845
0.5403,997
0.5419667,963
0.5436333,959
0.5453,909
0.5469667,951
0.5486333,992
0.5503,865
0.5519667,868
0.5536333,1019
0.5553,753
0.5569667,804
0.5586333,1040
0.5603,978
0.5619667,949
0.5636333,1010
0.5653,942
0.5669667,999
0.5686333,956
0.5703,922
0.5719666,1061
0.5736333,767
0.5753,894
0.5769666,994
0.5786333,908
0.5803,1026
0.5819666,1001
0.5836333,688
0.5853,972
0.5869667,797
0.5886334,808
0.5903,1061
0.5919667,1001
0.5936334,740
0.5953,952
0.5969667,814
0.5986333,878
0.6003,885
0.6019667,893
0.6036333,856
0.6053,820
0.6069667,915
0.6086333,957
0.6103,792
0.6119667,1083
0.6136333,977
0.6153,996
0.6169667,1027
0.6186333,953
0.6203,862
0.6219667,1069
0.6236333,1147
0.6253,984
0.6269667,1216
0.6286333,912
0.6303,1019
0.6319667,888
0.6336333,1001
0.6353,950
0.6369666,1014
0.6386333,983
0.6403,952
0.6419666,1036
0.6436333,1005
0.6453,973
0.6469667,958
0.6486334,942
0.6503,944
0.6519667,947
0.6536334,1099
0.6553,1065
0.6569667,1104
0.6586334,1143
0.6603,1148
0.6619667,885
0.6636333,1194
0.6653,1007
0.6669667,1124
0.6686333,1131
0.6703,1137
0.6719667,1335
0.6736333,1576
0.6753,1491
0.6769667,1768
0.6786333,2576
0.6803,2810
0.6819667,3252
0.6836333,4451
0.6853,5287
0.6869667,6727
0.6886333,8108
0.6903,8912
0.6919667,10836
0.6936333,11348
0.6953,12804
0.6969666,15120
0.6986333,14456
0.7003,16032
0.7019666,16200
0.7036333,15204
0.7053,17112
0.7069666,17532
0.7086333,16912
0.7103,16040
0.7119667,16264
0.7136334,17108
0.7153,16824
0.7169667,16584
0.7186334,16400
0.7203,15440
0.7219667,15940
0.7236333,14324
0.7253,13164
0.7269667,11192
0.7286333,10592
0.7303,9396
0.7319667,8151
0.7336333,7284
0.7353,6438
0.7369667,5279
0.7386333,4852
0.7403,4171
0.7419667,3673
0.7436333,3518
0.7453,3318
0.7469667,2787
0.7486333,2541
0.7503,2460
0.7519667,1998
0.7536333,2047
0.7553,1807
0.7569667,1701
0.7586333,1883
0.7603,1670
0.7619666,1364
0.7636333,1396
0.7653,1483
0.7669666,1457
0.7686333,1187
0.7703,1431
0.7719667,1444
0.7736334,1576
0.7753,1627
0.7769667,1651
0.7786334,2233
0.7803,2142
0.7819667,2933
0.7836334,3432
0.7853,4478
0.7869667,4854
0.7886333,5491
0.7903,7369
0.7919667,8232
0.7936333,9432
0.7953,10752
0.7969667,11796
0.7986333,13208
0.8003,14392
0.8019667,15812
0.8036333,16080
0.8053,16208
0.8069667,16396
0.8086333,16588
0.8103,16628
0.8119667,17716
0.8136333,17544
0.8153,17844
0.8169667,17852
0.8186333,17864
0.8203,17992
0.8219666,17904
0.8236333,17816
0.8253,16632
0.8269666,16236
0.8286333,16140
0.8303,14760
0.8319666,14228
0.8336333,13416
0.8353,12032
0.8369667,11356
0.8386334,10556
0.8403,8528
0.8419667,7376
0.8436334,6525
0.8453,6657
0.8469667,5685
0.8486333,4658
0.8503,4887
0.8519667,4191
0.8536333,3445
0.8553,3621
0.8569667,3165
0.8586333,2660
0.8603,2838
0.8619667,1874
0.8636333,2251
0.8653,1869
0.8669667,2111
0.8686333,1846
0.8703,2123
0.8719667,1467
0.8736333,1495
0.8753,1571
0.8769667,1421
0.8786333,1474
0.8803,1526
0.8819667,1495
0.8836333,1817
0.8853,1898
0.8869666,1737
0.8886333,1941
0.8903,1758
0.8919666,1931
0.8936333,1675
0.8953,1882
0.8969667,1488
0.8986334,1540
0.9003,1685
0.9019667,1679
0.9036334,1735
0.9053,1465
0.9069667,1825
0.9086334,1666
0.9103,1366
0.9119667,1722
0.9136333,1622
0.9153,1644
0.9169667,1698
0.9186333,1516
0.9203,1586
0.9219667,1578
0.9236333,1135
0.9253,1452
0.9269667,1460
0.9286333,1631
0.9303,1372
0.9319667,1440
0.9336333,1331
0.9353,1308
0.9369667,1462
0.9386333,1468
0.9403,1527
0.9419667,1352
0.9436333,1385
0.9453,1268
0.9469666,1655
0.9486333,1669
0.9503,1740
0.9519666,1557
0.9536333,1611
0.9553,2325
0.9569666,2404
0.9586333,3121
0.9603,3423
0.9619667,3602
0.9636334,4622
0.9653,5513
0.9669667,6744
0.9686334,7409
0.9703,8748
0.9719667,9748
0.9736333,11868
0.9753,13784
0.9769667,15468
0.9786333,17276
0.9803,17716
0.9819667,21020
0.9836333,22716
0.9853,24064
0.9869667,25884
0.9886333,27908
0.9903,27964
0.9919667,29080
0.9936333,29868
0.9953,29888
0.9969667,30236
0.9986333,30200
1.0003,30164
1.001967,31616
1.003633,31240
1.0053,30864
1.006967,32928
1.008633,33760
1.0103,33712
1.011967,33616
1.013633,33520
1.0153,33904
1.016967,32652
1.018633,33776
1.0203,32088
1.021967,30632
1.023633,29588
1.0253,28452
1.026967,26648
1.028633,25380
1.0303,22704
1.031967,21548
1.033633,19392
1.0353,17908
1.036967,16384
1.038633,14732
1.0403,14040
1.041967,12144
1.043633,11004
1.0453,11396
1.046967,10464
1.048633,10028
1.0503,9656
1.051967,8696
1.053633,8700
1.0553,9088
1.056967,8372
1.058633,7939
1.0603,9064
1.061967,8756
1.063633,8980
1.0653,9400
1.066967,9600
1.068633,10164
1.0703,10512
1.071967,11368
1.073633,12024
1.0753,12108
1.076967,12688
1.078633,12564
1.0803,13380
1.081967,13036
1.083633,13436
1.0853,13140
1.086967,13468
1.088633,13568
1.0903,13644
1.091967,13716
1.093633,14500
1.0953,14912
1.096967,14488
1.098633,14120
1.1003,14908
1.101967,13188
1.103633,13820
1.1053,13428
1.106967,13392
1.108633,13524
1.1103,12964
1.111967,13144
1.113633,12404
1.1153,12056
1.116967,10960
1.118633,10708
1.1203,10040
1.121967,9272
1.123633,9404
1.1253,8476
1.126967,8116
1.128633,7549
1.1303,6770
1.131967,6622
1.133633,6396
1.1353,5948
1.136967,5174
1.138633,5125
1.1403,4348
1.141967,4126
1.143633,4269
1.1453,3943
1.146967,3807
1.148633,3284
1.1503,3146
1.151967,3175
1.153633,2840
1.1553,2849
1.156967,2702
1.158633,2661
1.1603,2249
1.161967,2199
1.163633,2275
1.1653,1687
1.166967,1985
1.168633,1851
1.1703,1450
1.171967,1996
1.173633,1955
1.1753,1689
1.176967,1782
1.178633,1730
1.1803,1608
1.181967,1785
1.183633,1423
1.1853,1802
1.186967,1798
1.188633,1636
1.1903,1790
1.191967,1714
1.193633,1638
1.1953,1929
1.196967,2075
1.198633,2024
