"SampleName","A2Rd2_02-52"
"Target Mass 1",
"Column Name","IA-3 (3um, 4.6X100)"
"Channel","QDa 1: SIR Ch1"
0.00195,430
0.003616667,553
0.005283333,547
0.00695,481
0.008616666,509
0.01028333,513
0.01195,489
0.01361667,466
0.01528333,516
0.01695,514
0.01861667,512
0.02028333,525
0.02195,507
0.02361667,490
0.02528333,430
0.02695,485
0.02861667,523
0.03028333,497
0.03195,471
0.03361667,559
0.03528333,560
0.03695,385
0.03861667,331
0.04028333,415
0.04195,399
0.04361667,428
0.04528333,457
0.04695,521
0.04861667,295
0.05028334,532
0.05195,473
0.05361667,434
0.05528333,581
0.05695,587
0.05861667,590
0.06028333,500
0.06195,504
0.06361666,526
0.06528334,542
0.06695,474
0.06861667,524
0.07028333,483
0.07195,435
0.07361667,563
0.07528333,400
0.07695,567
0.07861666,424
0.08028334,569
0.08195,666
0.08361667,429
0.08528333,363
0.08695,567
0.08861667,572
0.09028333,429
0.09195,517
0.09361666,547
0.09528334,476
0.09695,360
0.09861667,587
0.1002833,472
0.10195,491
0.1036167,582
0.1052833,430
0.10695,447
0.1086167,579
0.1102833,405
0.11195,657
0.1136167,620
0.1152833,597
0.11695,598
0.1186167,505
0.1202833,633
0.12195,523
0.1236167,471
0.1252833,434
0.12695,520
0.1286167,472
0.1302833,486
0.13195,436
0.1336167,386
0.1352833,510
0.13695,583
0.1386167,527
0.1402833,394
0.14195,566
0.1436167,550
0.1452833,564
0.14695,579
0.1486167,594
0.1502833,400
0.15195,516
0.1536167,540
0.1552833,442
0.15695,574
0.1586167,444
0.1602833,527
0.16195,451
0.1636167,519
0.1652833,514
0.16695,510
0.1686167,539
0.1702833,572
0.17195,464
0.1736167,458
0.1752833,350
0.17695,507
0.1786167,539
0.1802833,513
0.18195,520
0.1836167,528
0.1852833,466
0.18695,489
0.1886167,511
0.1902833,504
0.19195,396
0.1936167,515
0.1952833,414
0.19695,431
0.1986167,449
0.2002833,481
0.20195,513
0.2036167,578
0.2052833,647
0.20695,332
0.2086167,587
0.2102833,573
0.21195,584
0.2136167,375
0.2152833,544
0.21695,419
0.2186167,520
0.2202833,450
0.22195,418
0.2236167,344
0.2252833,479
0.22695,394
0.2286167,460
0.2302833,410
0.23195,439
0.2336167,448
0.2352833,457
0.23695,460
0.2386167,463
0.2402833,463
0.24195,485
0.2436167,475
0.2452833,465
0.24695,501
0.2486167,451
0.2502833,401
0.25195,476
0.2536167,452
0.2552833,476
0.25695,462
0.2586167,500
0.2602833,498
0.26195,495
0.2636333,446
0.2652833,470
0.26695,464
0.2686167,459
0.2702833,401
0.27195,482
0.2736167,453
0.2752833,514
0.27695,491
0.2786167,467
0.2803,488
0.28195,528
0.2836167,524
0.2852833,533
0.28695,519
0.2886167,563
0.2902833,563
0.29195,563
0.2936167,565
0.2952833,568
0.29695,574
0.2986333,489
0.3002833,618
0.30195,494
0.3036333,649
0.3052833,528
0.30695,477
0.3086167,657
0.3102833,587
0.31195,500
0.3136167,592
0.3153,566
0.3169667,482
0.3186333,576
0.3202833,555
0.3219667,706
0.3236167,647
0.3252833,409
0.3269667,424
0.3286167,576
0.3302833,526
0.33195,426
0.3336333,408
0.3353,475
0.33695,462
0.3386333,450
0.3402833,509
0.34195,496
0.3436333,484
0.3452833,485
0.34695,487
0.3486167,526
0.3503,515
0.3519667,504
0.3536333,570
0.3553,555
0.35695,499
0.3586333,627
0.3603,675
0.3619667,690
0.3636167,651
0.3653,973
0.3669667,1609
0.3686333,2566
0.3702833,3018
0.3719667,3431
0.3736167,3310
0.3753,3609
0.3769667,4115
0.3786333,4543
0.3802833,4955
0.3819667,5276
0.3836333,4672
0.3853,4506
0.3869667,4252
0.3886333,3633
0.3903,3524
0.3919667,2874
0.3936333,2038
0.3952833,1984
0.3969667,1396
0.3986167,1350
0.4003,1320
0.4019667,1129
0.4036333,1263
0.4053,1217
0.4069667,1156
0.4086333,1218
0.4103,1216
0.4119667,1269
0.4136333,1235
0.4153,1201
0.4169667,1277
0.4186333,1353
0.4203,1439
0.4219667,1524
0.4236333,1699
0.4253,1766
0.4269667,1788
0.4286333,1593
0.4303,1832
0.4319667,1817
0.4336333,2649
0.4353,3162
0.4369667,4284
0.4386333,7025
0.4403,11064
0.4419667,15960
0.4436333,25156
0.4453,36352
0.4469667,47968
0.4486333,65024
0.4503,77152
0.4519667,92752
0.4536333,103584
0.4553,120000
0.4569667,129856
0.4586333,135424
0.4603,141056
0.4619667,142912
0.4636333,150400
0.4653,150464
0.4669667,151616
0.4686333,158272
0.4703,164288
0.4719667,171008
0.4736333,180224
0.4753,187328
0.4769667,198400
0.4786333,195584
0.4803,191168
0.4819667,183616
0.4836333,172736
0.4853,155328
0.4869667,140608
0.4886333,124400
0.4903,108432
0.4919667,88784
0.4936333,73040
0.4953,61104
0.4969667,49296
0.4986333,39840
0.5003,31204
0.5019667,26808
0.5036333,21472
0.5053,16988
0.5069667,13756
0.5086333,10412
0.5103,9908
0.5119666,7566
0.5136333,7217
0.5153,5791
0.5169666,5439
0.5186333,4972
0.5203,4615
0.5219667,3857
0.5236334,3510
0.5253,3520
0.5269667,3311
0.5286334,3307
0.5303,3023
0.5319667,3094
0.5336334,2808
0.5353,2924
0.5369667,2537
0.5386333,2531
0.5403,2295
0.5419667,2362
0.5436333,2253
0.5453,2458
0.5469667,1968
0.5486333,1980
0.5503,1907
0.5519667,1932
0.5536333,1958
0.5553,1774
0.5569667,1659
0.5586333,1587
0.5603,1659
0.5619667,1540
0.5636333,1597
0.5653,1662
0.5669667,1404
0.5686333,1362
0.5703,1387
0.5719666,1501
0.5736333,1536
0.5753,1454
0.5769666,1600
0.5786333,1215
0.5803,1273
0.5819666,1353
0.5836333,1156
0.5853,1284
0.5869667,1185
0.5886334,1257
0.5903,1329
0.5919667,1107
0.5936334,1368
0.5953,1300
0.5969667,1359
0.5986333,1410
0.6003,1229
0.6019667,1349
0.6036333,1469
0.6053,1258
0.6069667,1383
0.6086333,1193
0.6103,1295
0.6119667,1213
0.6136333,1236
0.6153,1260
0.6169667,1228
0.6186333,1197
0.6203,1119
0.6219667,1066
0.6236333,1152
0.6253,1239
0.6269667,916
0.6286333,1217
0.6303,1081
0.6319667,1323
0.6336333,1059
0.6353,868
0.6369666,981
0.6386333,1136
0.6403,930
0.6419666,1040
0.6436333,1026
0.6453,844
0.6469667,951
0.6486334,763
0.6503,828
0.6519667,973
0.6536334,810
0.6553,888
0.6569667,911
0.6586334,845
0.6603,812
0.6619667,671
0.6636333,833
0.6653,817
0.6669667,833
0.6686333,800
0.6703,789
0.6719667,707
0.6736333,808
0.6753,756
0.6769667,734
0.6786333,712
0.6803,804
0.6819667,788
0.6836333,772
0.6853,781
0.6869667,657
0.6886333,697
0.6903,737
0.6919667,674
0.6936333,671
0.6953,667
0.6969666,677
0.6986333,688
0.7003,668
0.7019666,647
0.7036333,630
0.7053,716
0.7069666,700
0.7086333,705
0.7103,741
0.7119667,647
0.7136334,606
0.7153,608
0.7169667,623
0.7186334,590
0.7203,648
0.7219667,668
0.7236333,696
0.7253,724
0.7269667,701
0.7286333,667
0.7303,632
0.7319667,663
0.7336333,599
0.7353,595
0.7369667,591
0.7386333,576
0.7403,561
0.7419667,644
0.7436333,708
0.7453,658
0.7469667,776
0.7486333,528
0.7503,757
0.7519667,741
0.7536333,869
0.7553,717
0.7569667,659
0.7586333,689
0.7603,680
0.7619666,588
0.7636333,722
0.7653,631
0.7669666,600
0.7686333,656
0.7703,589
0.7719667,592
0.7736334,634
0.7753,676
0.7769667,512
0.7786334,771
0.7803,733
0.7819667,544
0.7836334,792
0.7853,684
0.7869667,738
0.7886333,404
0.7903,840
0.7919667,671
0.7936333,759
0.7953,704
0.7969667,598
0.7986333,520
0.8003,519
0.8019667,563
0.8036333,606
0.8053,592
0.8069667,577
0.8086333,732
0.8103,729
0.8119667,705
0.8136333,634
0.8153,546
0.8169667,612
0.8186333,531
0.8203,563
0.8219666,594
0.8236333,602
0.8253,596
0.8269666,700
0.8286333,679
0.8303,589
0.8319666,650
0.8336333,654
0.8353,657
0.8369667,606
0.8386334,609
0.8403,544
0.8419667,559
0.8436334,574
0.8453,590
0.8469667,606
0.8486333,508
0.8503,502
0.8519667,680
0.8536333,674
0.8553,729
0.8569667,589
0.8586333,683
0.8603,533
0.8619667,561
0.8636333,611
0.8653,416
0.8669667,614
0.8686333,636
0.8703,600
0.8719667,679
0.8736333,401
0.8753,727
0.8769667,827
0.8786333,810
0.8803,1105
0.8819667,1436
0.8836333,1714
0.8853,1558
0.8869666,1663
0.8886333,1914
0.8903,1803
0.8919666,1692
0.8936333,1981
0.8953,2056
0.8969667,1988
0.8986334,2017
0.9003,2035
0.9019667,2068
0.9036334,2101
0.9053,2118
0.9069667,2136
0.9086334,2042
0.9103,2292
0.9119667,2250
0.9136333,2231
0.9153,1980
0.9169667,1975
0.9186333,2420
0.9203,2434
0.9219667,2236
0.9236333,2297
0.9253,2226
0.9269667,2324
0.9286333,2064
0.9303,1933
0.9319667,1836
0.9336333,1725
0.9353,1853
0.9369667,1948
0.9386333,1960
0.9403,1972
0.9419667,2019
0.9436333,1504
0.9453,1762
0.9469666,1656
0.9486333,1544
0.9503,1728
0.9519666,1743
0.9536333,1639
0.9553,1547
0.9569666,1440
0.9586333,1358
0.9603,1396
0.9619667,1209
0.9636334,1060
0.9653,1052
0.9669667,1032
0.9686334,1011
0.9703,1022
0.9719667,956
0.9736333,891
0.9753,788
0.9769667,762
0.9786333,886
0.9803,685
0.9819667,701
0.9836333,748
0.9853,739
0.9869667,494
0.9886333,719
0.9903,597
0.9919667,510
0.9936333,587
0.9953,592
0.9969667,535
0.9986333,499
1.0003,466
1.001967,525
1.003633,584
1.0053,540
1.006967,496
1.008633,524
1.0103,530
1.011967,536
1.013633,507
1.0153,502
1.016967,497
1.018633,454
1.0203,434
1.021967,495
1.023633,435
1.0253,377
1.026967,504
1.028633,458
1.0303,552
1.031967,529
1.033633,507
1.0353,501
1.036967,494
1.038633,520
1.0403,498
1.041967,477
1.043633,524
1.0453,504
1.046967,452
1.048633,458
1.0503,465
1.051967,552
1.053633,543
1.0553,533
1.056967,554
1.058633,513
1.0603,452
1.061967,446
1.063633,439
1.0653,432
1.066967,425
1.068633,436
1.0703,418
1.071967,425
1.073633,431
1.0753,437
1.076967,442
1.078633,489
1.0803,535
1.081967,514
1.083633,493
1.0853,506
1.086967,519
1.088633,519
1.0903,519
1.091967,500
1.093633,437
1.0953,563
1.096967,371
1.098633,524
1.1003,414
1.101967,438
1.103633,499
1.1053,508
1.106967,516
1.108633,527
1.1103,535
1.111967,523
1.113633,454
1.1153,514
1.116967,424
1.118633,512
1.1203,445
1.121967,437
1.123633,430
1.1253,508
1.126967,567
1.128633,526
1.1303,485
1.131967,545
1.133633,533
1.1353,521
1.136967,452
1.138633,467
1.1403,483
1.141967,551
1.143633,580
1.1453,463
1.146967,530
1.148633,522
1.1503,515
1.151967,507
1.153633,500
1.1553,627
1.156967,654
1.158633,680
1.1603,598
1.161967,514
1.163633,670
1.1653,709
1.166967,726
1.168633,557
1.1703,663
1.171967,668
1.173633,571
1.1753,610
1.176967,402
1.178633,500
1.1803,602
1.181967,586
1.183633,574
1.1853,568
1.186967,561
1.188633,444
1.1903,454
1.191967,438
1.193633,457
1.1953,518
1.196967,633
1.198633,648
