"SampleName","A2Rd2_02-76"
"Target Mass 1",
"Column Name","IA-3 (3um, 4.6X100)"
"Channel","QDa 1: SIR Ch1"
0.00195,263
0.003616667,533
0.005283333,550
0.00695,541
0.008616666,518
0.01028333,496
0.01195,446
0.01361667,592
0.01528333,622
0.01695,474
0.01861667,463
0.02028333,521
0.02195,571
0.02361667,588
0.02528333,543
0.02695,457
0.02861667,346
0.03028333,701
0.03195,575
0.03361667,560
0.03528333,499
0.03695,541
0.03861667,515
0.04028333,490
0.04195,580
0.04361667,600
0.04528333,568
0.04695,535
0.04861667,602
0.05028334,370
0.05195,487
0.05361667,537
0.05528333,486
0.05695,434
0.05861667,376
0.06028333,405
0.06195,435
0.06361666,573
0.06528334,582
0.06695,591
0.06861667,553
0.07028333,542
0.07195,515
0.07361667,488
0.07528333,506
0.07695,525
0.07861666,525
0.08028334,525
0.08195,534
0.08361667,643
0.08528333,569
0.08695,494
0.08861667,379
0.09028333,393
0.09195,548
0.09361666,636
0.09528334,583
0.09695,611
0.09861667,506
0.1002833,450
0.10195,445
0.1036167,558
0.1052833,516
0.10695,475
0.1086167,451
0.1102833,419
0.11195,469
0.1136167,468
0.1152833,466
0.11695,444
0.1186167,478
0.1202833,512
0.12195,527
0.1236167,494
0.1252833,510
0.12695,538
0.1286167,493
0.1302833,493
0.13195,532
0.1336167,560
0.1352833,653
0.13695,640
0.1386167,621
0.1402833,423
0.14195,607
0.1436167,597
0.1452833,573
0.14695,509
0.1486167,504
0.1502833,475
0.15195,446
0.1536167,438
0.1552833,465
0.15695,491
0.1586167,564
0.1602833,545
0.16195,525
0.1636167,478
0.1652833,456
0.16695,489
0.1686167,488
0.1702833,487
0.17195,456
0.1736167,495
0.1752833,491
0.17695,486
0.1786167,465
0.1802833,479
0.18195,535
0.1836167,520
0.1852833,551
0.18695,545
0.1886167,540
0.1902833,550
0.19195,560
0.1936167,499
0.1952833,438
0.19695,500
0.1986167,557
0.2002833,536
0.20195,489
0.2036167,474
0.2052833,431
0.20695,485
0.2086167,439
0.2102833,548
0.21195,555
0.2136167,592
0.2152833,481
0.21695,401
0.2186167,615
0.2202833,500
0.22195,498
0.2236167,595
0.2252833,472
0.22695,525
0.2286167,635
0.2302833,584
0.23195,499
0.2336167,546
0.2352833,437
0.23695,520
0.2386167,375
0.2402833,452
0.24195,503
0.2436167,415
0.2452833,432
0.24695,455
0.2486167,540
0.2502833,586
0.25195,538
0.2536167,537
0.2552833,458
0.25695,570
0.2586167,492
0.2602833,429
0.26195,519
0.2636167,400
0.2652833,444
0.26695,557
0.2686167,571
0.2702833,491
0.27195,506
0.2736167,500
0.2752833,537
0.27695,508
0.2786167,479
0.2803,553
0.28195,454
0.2836167,440
0.2852833,441
0.28695,649
0.2886167,711
0.2902833,617
0.29195,471
0.2936167,549
0.2952833,712
0.29695,669
0.2986333,643
0.3002833,552
0.30195,578
0.3036333,579
0.3052833,527
0.30695,471
0.3086167,623
0.3102833,585
0.31195,474
0.3136167,570
0.3153,620
0.31695,518
0.3186167,366
0.3203,617
0.32195,627
0.3236167,460
0.3252833,502
0.32695,625
0.3286167,492
0.3302833,558
0.33195,420
0.3336333,470
0.3352833,477
0.3369667,484
0.3386167,539
0.3402833,548
0.34195,476
0.3436167,559
0.3452833,589
0.34695,546
0.3486167,636
0.3503,654
0.35195,557
0.3536333,407
0.3552833,570
0.35695,418
0.3586167,524
0.3602833,607
0.36195,693
0.3636167,791
0.3652833,1224
0.36695,1977
0.3686333,2297
0.3703,3476
0.3719667,3746
0.3736167,3446
0.3753,3763
0.37695,3975
0.3786333,3739
0.3802833,4517
0.3819667,4501
0.3836167,4528
0.3853,4470
0.3869667,3489
0.3886333,3192
0.3902833,2572
0.3919667,2386
0.3936167,1867
0.3953,1592
0.39695,1126
0.3986333,1154
0.4002833,1177
0.4019667,1143
0.4036333,1109
0.4053,1142
0.4069667,964
0.4086333,1098
0.4102833,879
0.4119667,1282
0.4136333,1266
0.4153,1057
0.4169667,1152
0.4186333,1300
0.4203,1362
0.4219667,1155
0.4236333,1422
0.4253,1326
0.4269667,1476
0.4286333,1354
0.4303,1340
0.4319667,1326
0.4336333,2292
0.4353,3186
0.4369667,5152
0.4386333,7421
0.4403,11900
0.4419667,19556
0.4436333,29820
0.4453,40672
0.4469667,54912
0.4486333,71376
0.4503,84576
0.4519667,106208
0.4536333,112304
0.4553,128096
0.4569667,133632
0.4586333,142656
0.4603,147840
0.4619667,148288
0.4636333,149376
0.4653,150336
0.4669667,150208
0.4686333,150976
0.4703,153344
0.4719667,156096
0.4736333,163648
0.4753,168896
0.4769667,175872
0.4786333,179712
0.4803,180224
0.4819667,176704
0.4836333,173120
0.4853,160064
0.4869667,146304
0.4886333,132096
0.4903,117024
0.4919667,100944
0.4936333,86208
0.4953,73408
0.4969667,62560
0.4986333,51840
0.5003,41856
0.5019667,33024
0.5036333,28496
0.5053,22912
0.5069667,18480
0.5086333,14364
0.5103,13124
0.5119666,10784
0.5136333,9012
0.5153,7983
0.5169666,6837
0.5186333,6446
0.5203,5177
0.5219667,5001
0.5236334,4555
0.5253,4121
0.5269667,3798
0.5286334,3493
0.5303,3067
0.5319667,3185
0.5336334,3055
0.5353,3025
0.5369667,2605
0.5386333,2418
0.5403,2818
0.5419667,2535
0.5436333,2389
0.5453,2423
0.5469667,2456
0.5486333,2118
0.5503,2148
0.5519667,2154
0.5536333,2034
0.5553,1962
0.5569667,1830
0.5586333,1951
0.5603,1774
0.5619667,1921
0.5636333,1888
0.5653,1791
0.5669667,1598
0.5686333,1463
0.5703,1633
0.5719666,1532
0.5736333,1334
0.5753,1229
0.5769666,1345
0.5786333,1541
0.5803,1463
0.5819666,1323
0.5836333,1618
0.5853,1380
0.5869667,1440
0.5886334,1488
0.5903,1418
0.5919667,1479
0.5936334,1540
0.5953,1574
0.5969667,1609
0.5986333,1389
0.6003,1267
0.6019667,1397
0.6036333,1297
0.6053,1332
0.6069667,1404
0.6086333,1403
0.6103,1225
0.6119667,1269
0.6136333,1289
0.6153,1278
0.6169667,1267
0.6186333,1255
0.6203,1267
0.6219667,1236
0.6236333,1355
0.6253,1336
0.6269667,1134
0.6286333,1310
0.6303,1303
0.6319667,1003
0.6336333,1387
0.6353,1071
0.6369666,1014
0.6386333,1302
0.6403,1192
0.6419666,960
0.6436333,840
0.6453,1040
0.6469667,977
0.6486334,959
0.6503,1024
0.6519667,947
0.6536334,911
0.6553,1010
0.6569667,948
0.6586334,999
0.6603,1050
0.6619667,731
0.6636333,1029
0.6653,769
0.6669667,779
0.6686333,973
0.6703,857
0.6719667,781
0.6736333,967
0.6753,816
0.6769667,703
0.6786333,831
0.6803,723
0.6819667,779
0.6836333,981
0.6853,972
0.6869667,764
0.6886333,741
0.6903,868
0.6919667,539
0.6936333,731
0.6953,754
0.6969666,850
0.6986333,731
0.7003,613
0.7019666,747
0.7036333,851
0.7053,755
0.7069666,885
0.7086333,776
0.7103,732
0.7119667,670
0.7136334,597
0.7153,862
0.7169667,828
0.7186334,730
0.7203,731
0.7219667,822
0.7236333,753
0.7253,683
0.7269667,855
0.7286333,795
0.7303,915
0.7319667,669
0.7336333,708
0.7353,794
0.7369667,825
0.7386333,811
0.7403,803
0.7419667,795
0.7436333,760
0.7453,751
0.7469667,769
0.7486333,791
0.7503,911
0.7519667,587
0.7536333,886
0.7553,778
0.7569667,797
0.7586333,708
0.7603,795
0.7619666,596
0.7636333,675
0.7653,695
0.7669666,722
0.7686333,752
0.7703,747
0.7719667,655
0.7736334,678
0.7753,667
0.7769667,656
0.7786334,568
0.7803,481
0.7819667,720
0.7836334,741
0.7853,671
0.7869667,635
0.7886333,755
0.7903,652
0.7919667,664
0.7936333,631
0.7953,634
0.7969667,623
0.7986333,630
0.8003,805
0.8019667,767
0.8036333,587
0.8053,618
0.8069667,647
0.8086333,581
0.8103,515
0.8119667,641
0.8136333,642
0.8153,650
0.8169667,659
0.8186333,654
0.8203,649
0.8219666,649
0.8236333,649
0.8253,692
0.8269666,704
0.8286333,717
0.8303,655
0.8319666,604
0.8336333,624
0.8353,607
0.8369667,714
0.8386334,721
0.8403,795
0.8419667,603
0.8436334,679
0.8453,622
0.8469667,568
0.8486333,514
0.8503,639
0.8519667,745
0.8536333,711
0.8553,678
0.8569667,655
0.8586333,480
0.8603,599
0.8619667,653
0.8636333,577
0.8653,604
0.8669667,559
0.8686333,549
0.8703,738
0.8719667,696
0.8736333,562
0.8753,662
0.8769667,667
0.8786333,894
0.8803,1228
0.8819667,1530
0.8836333,1689
0.8853,1850
0.8869666,1998
0.8886333,2220
0.8903,2652
0.8919666,2489
0.8936333,2162
0.8953,2455
0.8969667,2499
0.8986334,2390
0.9003,2381
0.9019667,2203
0.9036334,2317
0.9053,2383
0.9069667,2340
0.9086334,2296
0.9103,2548
0.9119667,2469
0.9136333,2390
0.9153,2399
0.9169667,2408
0.9186333,2440
0.9203,2472
0.9219667,2463
0.9236333,2375
0.9253,2287
0.9269667,2139
0.9286333,2182
0.9303,2225
0.9319667,2323
0.9336333,2379
0.9353,2434
0.9369667,2377
0.9386333,2319
0.9403,2097
0.9419667,2133
0.9436333,1963
0.9453,1988
0.9469666,1940
0.9486333,1892
0.9503,1734
0.9519666,1956
0.9536333,1590
0.9553,1644
0.9569666,1514
0.9586333,1524
0.9603,1324
0.9619667,1573
0.9636334,1390
0.9653,1319
0.9669667,1477
0.9686334,1221
0.9703,1080
0.9719667,1368
0.9736333,1090
0.9753,965
0.9769667,723
0.9786333,901
0.9803,869
0.9819667,914
0.9836333,825
0.9853,770
0.9869667,848
0.9886333,626
0.9903,660
0.9919667,692
0.9936333,670
0.9953,650
0.9969667,629
0.9986333,486
1.0003,561
1.001967,583
1.003633,605
1.0053,600
1.006967,595
1.008633,504
1.0103,582
1.011967,506
1.013633,587
1.0153,376
1.016967,552
1.018633,624
1.0203,622
1.021967,500
1.023633,604
1.0253,521
1.026967,423
1.028633,640
1.0303,489
1.031967,574
1.033633,691
1.0353,541
1.036967,381
1.038633,552
1.0403,667
1.041967,569
1.043633,476
1.0453,530
1.046967,463
1.048633,573
1.0503,583
1.051967,417
1.053633,497
1.0553,468
1.056967,439
1.058633,525
1.0603,457
1.061967,388
1.063633,440
1.0653,527
1.066967,571
1.068633,581
1.0703,580
1.071967,580
1.073633,625
1.0753,649
1.076967,665
1.078633,506
1.0803,630
1.081967,577
1.083633,597
1.0853,608
1.086967,574
1.088633,540
1.0903,568
1.091967,570
1.093633,572
1.0953,408
1.096967,503
1.098633,665
1.1003,564
1.101967,559
1.103633,658
1.1053,448
1.106967,621
1.108633,625
1.1103,568
1.111967,455
1.113633,536
1.1153,511
1.116967,487
1.118633,456
1.1203,515
1.121967,540
1.123633,587
1.1253,523
1.126967,530
1.128633,536
1.1303,390
1.131967,560
1.133633,532
1.1353,503
1.136967,568
1.138633,632
1.1403,648
1.141967,488
1.143633,486
1.1453,625
1.146967,640
1.148633,616
1.1503,493
1.151967,602
1.153633,659
1.1553,533
1.156967,646
1.158633,634
1.1603,710
1.161967,441
1.163633,547
1.1653,532
1.166967,543
1.168633,553
1.1703,510
1.171967,468
1.173633,518
1.1753,569
1.176967,600
1.178633,633
1.1803,615
1.181967,580
1.183633,597
1.1853,603
1.186967,535
1.188633,586
1.1903,567
1.191967,562
1.193633,640
1.1953,485
1.196967,487
1.198633,552
