"SampleName","A2Rd2_02-81"
"Target Mass 1",
"Column Name","IA-3 (3um, 4.6X100)"
"Channel","QDa 1: SIR Ch1"
0.00195,327
0.003616667,429
0.005283333,600
0.00695,412
0.008616666,477
0.01028333,531
0.01195,516
0.01361667,544
0.01528333,585
0.01695,414
0.01861667,465
0.02028333,443
0.02195,458
0.02361667,433
0.02528333,361
0.02695,428
0.02861667,445
0.03028333,398
0.03195,350
0.03361667,530
0.03528333,570
0.03695,439
0.03861667,413
0.04028333,531
0.04195,535
0.04361667,484
0.04528333,487
0.04695,587
0.04861667,350
0.05028334,424
0.05195,525
0.05361667,572
0.05528333,444
0.05695,506
0.05861667,459
0.06028333,436
0.06195,562
0.06361666,581
0.06528334,491
0.06695,454
0.06861667,488
0.07028333,534
0.07195,542
0.07361667,668
0.07528333,664
0.07695,452
0.07861666,541
0.08028334,545
0.08195,418
0.08361667,473
0.08528333,528
0.08695,485
0.08861667,508
0.09028333,432
0.09195,428
0.09361666,424
0.09528334,481
0.09695,538
0.09861667,514
0.1002833,490
0.10195,594
0.1036167,651
0.1052833,398
0.10695,459
0.1086167,469
0.1102833,476
0.11195,423
0.1136167,369
0.1152833,511
0.11695,500
0.1186167,420
0.1202833,507
0.12195,401
0.1236167,365
0.1252833,330
0.12695,462
0.1286167,488
0.1302833,547
0.13195,527
0.1336167,507
0.1352833,514
0.13695,495
0.1386167,391
0.1402833,601
0.14195,532
0.1436167,507
0.1452833,367
0.14695,458
0.1486167,542
0.1502833,561
0.15195,445
0.1536167,493
0.1552833,440
0.15695,444
0.1586167,382
0.1602833,442
0.16195,433
0.1636167,430
0.1652833,442
0.16695,454
0.1686167,384
0.1702833,456
0.17195,480
0.1736167,561
0.1752833,295
0.17695,587
0.1786167,495
0.1802833,523
0.18195,492
0.1836167,517
0.1852833,480
0.18695,479
0.1886167,507
0.1902833,534
0.19195,515
0.1936167,496
0.1952833,491
0.19695,503
0.1986167,489
0.2002833,475
0.20195,530
0.2036167,544
0.2052833,547
0.20695,551
0.2086167,510
0.2102833,402
0.21195,460
0.2136167,454
0.2152833,481
0.21695,457
0.2186167,433
0.2202833,501
0.22195,358
0.2236167,401
0.2252833,488
0.22695,426
0.2286167,415
0.2302833,405
0.23195,462
0.2336167,443
0.2352833,425
0.23695,459
0.2386167,434
0.2402833,409
0.24195,522
0.2436167,508
0.2452833,495
0.24695,445
0.2486167,492
0.2502833,466
0.25195,476
0.2536167,464
0.2552833,452
0.25695,510
0.2586167,396
0.2602833,500
0.26195,454
0.2636333,455
0.2652833,483
0.26695,441
0.2686167,364
0.2702833,519
0.27195,453
0.2736167,527
0.2752833,444
0.27695,577
0.2786167,589
0.2803,589
0.28195,421
0.2836167,484
0.2852833,381
0.28695,509
0.2886167,460
0.2902833,603
0.29195,591
0.2936167,516
0.2952833,567
0.2969667,542
0.2986333,538
0.3002833,551
0.30195,564
0.3036167,494
0.3052833,645
0.30695,639
0.3086167,484
0.3103,658
0.31195,305
0.3136167,526
0.3153,398
0.31695,559
0.3186167,467
0.3202833,498
0.32195,459
0.3236167,479
0.3252833,499
0.32695,488
0.3286167,477
0.3302833,631
0.33195,597
0.3336333,639
0.3352833,334
0.33695,571
0.3386333,548
0.3402833,447
0.34195,512
0.3436333,469
0.3452833,427
0.3469667,487
0.3486167,515
0.3503,473
0.35195,431
0.3536333,527
0.3553,502
0.35695,476
0.3586333,548
0.3603,754
0.36195,728
0.3636333,887
0.3652833,1221
0.3669667,1837
0.3686333,2084
0.3703,2754
0.3719667,3020
0.3736333,2919
0.3752833,3384
0.3769667,3354
0.3786167,3883
0.3803,4504
0.38195,4227
0.3836333,4637
0.3853,3974
0.3869667,3399
0.3886333,3057
0.3903,2966
0.3919667,2419
0.3936333,2332
0.3952833,1720
0.3969667,1406
0.3986167,1546
0.4003,1380
0.40195,1252
0.4036333,990
0.4053,1136
0.4069667,1152
0.4086333,1125
0.4103,1316
0.4119667,1430
0.4136333,1342
0.4153,1258
0.4169667,1166
0.4186333,1175
0.4203,1304
0.4219667,1246
0.4236333,1461
0.4253,1595
0.4269667,1534
0.4286333,1488
0.4303,1301
0.4319667,1625
0.4336333,2269
0.4353,3188
0.4369667,5034
0.4386333,7825
0.4403,13896
0.4419667,20528
0.4436333,32112
0.4453,45616
0.4469667,60784
0.4486333,78320
0.4503,95648
0.4519667,112224
0.4536333,127920
0.4553,141824
0.4569667,152576
0.4586333,158208
0.4603,164480
0.4619667,165760
0.4636333,170368
0.4653,169856
0.4669667,169920
0.4686333,169920
0.4703,172352
0.4719667,180544
0.4736333,186112
0.4753,189888
0.4769667,194496
0.4786333,197440
0.4803,198976
0.4819667,192256
0.4836333,187968
0.4853,172800
0.4869667,160512
0.4886333,143552
0.4903,126304
0.4919667,109232
0.4936333,93152
0.4953,79824
0.4969667,65264
0.4986333,54800
0.5003,45952
0.5019667,35504
0.5036333,29248
0.5053,23836
0.5069667,19580
0.5086333,16256
0.5103,13748
0.5119666,11452
0.5136333,9964
0.5153,8440
0.5169666,7263
0.5186333,6867
0.5203,5386
0.5219667,5239
0.5236334,4880
0.5253,4654
0.5269667,3664
0.5286334,3410
0.5303,3294
0.5319667,3100
0.5336334,3330
0.5353,2938
0.5369667,2638
0.5386333,2734
0.5403,2840
0.5419667,2463
0.5436333,2770
0.5453,2266
0.5469667,2202
0.5486333,2342
0.5503,2373
0.5519667,2205
0.5536333,1975
0.5553,1918
0.5569667,1895
0.5586333,1766
0.5603,1896
0.5619667,1685
0.5636333,1666
0.5653,1890
0.5669667,1678
0.5686333,1656
0.5703,1667
0.5719666,1437
0.5736333,1583
0.5753,1425
0.5769666,1537
0.5786333,1486
0.5803,1434
0.5819666,1507
0.5836333,1329
0.5853,1539
0.5869667,1520
0.5886334,1411
0.5903,1612
0.5919667,1504
0.5936334,1602
0.5953,1264
0.5969667,1335
0.5986333,1443
0.6003,1368
0.6019667,1360
0.6036333,1288
0.6053,1217
0.6069667,1430
0.6086333,1395
0.6103,1372
0.6119667,1456
0.6136333,1261
0.6153,1214
0.6169667,1403
0.6186333,1251
0.6203,1332
0.6219667,1208
0.6236333,1054
0.6253,1055
0.6269667,1028
0.6286333,1130
0.6303,1113
0.6319667,1096
0.6336333,1072
0.6353,1048
0.6369666,1036
0.6386333,1023
0.6403,859
0.6419666,1006
0.6436333,1029
0.6453,977
0.6469667,981
0.6486334,957
0.6503,933
0.6519667,913
0.6536334,942
0.6553,971
0.6569667,880
0.6586334,1002
0.6603,1060
0.6619667,911
0.6636333,903
0.6653,1050
0.6669667,813
0.6686333,1001
0.6703,1002
0.6719667,1054
0.6736333,659
0.6753,901
0.6769667,736
0.6786333,772
0.6803,760
0.6819667,739
0.6836333,718
0.6853,741
0.6869667,795
0.6886333,848
0.6903,909
0.6919667,912
0.6936333,671
0.6953,891
0.6969666,979
0.6986333,764
0.7003,944
0.7019666,768
0.7036333,821
0.7053,671
0.7069666,788
0.7086333,733
0.7103,822
0.7119667,813
0.7136334,803
0.7153,834
0.7169667,808
0.7186334,783
0.7203,779
0.7219667,776
0.7236333,836
0.7253,801
0.7269667,766
0.7286333,785
0.7303,785
0.7319667,786
0.7336333,763
0.7353,717
0.7369667,799
0.7386333,819
0.7403,864
0.7419667,831
0.7436333,799
0.7453,812
0.7469667,814
0.7486333,816
0.7503,735
0.7519667,851
0.7536333,908
0.7553,860
0.7569667,811
0.7586333,751
0.7603,690
0.7619666,788
0.7636333,656
0.7653,663
0.7669666,670
0.7686333,609
0.7703,699
0.7719667,788
0.7736334,749
0.7753,804
0.7769667,785
0.7786334,794
0.7803,756
0.7819667,716
0.7836334,610
0.7853,801
0.7869667,736
0.7886333,663
0.7903,815
0.7919667,741
0.7936333,696
0.7953,720
0.7969667,744
0.7986333,770
0.8003,871
0.8019667,977
0.8036333,919
0.8053,897
0.8069667,993
0.8086333,880
0.8103,760
0.8119667,827
0.8136333,728
0.8153,792
0.8169667,839
0.8186333,822
0.8203,804
0.8219666,728
0.8236333,695
0.8253,894
0.8269666,999
0.8286333,853
0.8303,844
0.8319666,788
0.8336333,681
0.8353,819
0.8369667,979
0.8386334,954
0.8403,817
0.8419667,868
0.8436334,868
0.8453,798
0.8469667,827
0.8486333,756
0.8503,812
0.8519667,718
0.8536333,798
0.8553,769
0.8569667,730
0.8586333,896
0.8603,1026
0.8619667,968
0.8636333,829
0.8653,618
0.8669667,860
0.8686333,738
0.8703,739
0.8719667,714
0.8736333,802
0.8753,868
0.8769667,1294
0.8786333,1346
0.8803,1690
0.8819667,2078
0.8836333,2516
0.8853,2755
0.8869666,2906
0.8886333,3332
0.8903,3253
0.8919666,3174
0.8936333,3264
0.8953,3354
0.8969667,3388
0.8986334,3247
0.9003,3391
0.9019667,3534
0.9036334,3492
0.9053,3363
0.9069667,3620
0.9086334,3479
0.9103,3824
0.9119667,3671
0.9136333,3518
0.9153,3489
0.9169667,3237
0.9186333,3344
0.9203,3451
0.9219667,3543
0.9236333,3526
0.9253,3427
0.9269667,2963
0.9286333,3624
0.9303,3476
0.9319667,2981
0.9336333,3306
0.9353,2824
0.9369667,2832
0.9386333,3168
0.9403,2830
0.9419667,2771
0.9436333,2804
0.9453,2634
0.9469666,2375
0.9486333,2369
0.9503,2102
0.9519666,2401
0.9536333,2102
0.9553,2187
0.9569666,2228
0.9586333,1996
0.9603,2051
0.9619667,1900
0.9636334,1847
0.9653,1576
0.9669667,1652
0.9686334,1711
0.9703,1373
0.9719667,1365
0.9736333,1205
0.9753,1190
0.9769667,1233
0.9786333,1079
0.9803,1158
0.9819667,978
0.9836333,1107
0.9853,854
0.9869667,884
0.9886333,908
0.9903,763
0.9919667,753
0.9936333,743
0.9953,753
0.9969667,764
0.9986333,667
1.0003,601
1.001967,787
1.003633,608
1.0053,600
1.006967,752
1.008633,548
1.0103,624
1.011967,683
1.013633,624
1.0153,642
1.016967,657
1.018633,637
1.0203,618
1.021967,574
1.023633,652
1.0253,619
1.026967,587
1.028633,605
1.0303,519
1.031967,533
1.033633,547
1.0353,561
1.036967,574
1.038633,579
1.0403,585
1.041967,621
1.043633,508
1.0453,538
1.046967,573
1.048633,566
1.0503,558
1.051967,580
1.053633,603
1.0553,603
1.056967,603
1.058633,614
1.0603,624
1.061967,631
1.063633,584
1.0653,564
1.066967,668
1.068633,707
1.0703,634
1.071967,644
1.073633,736
1.0753,773
1.076967,548
1.078633,670
1.0803,401
1.081967,666
1.083633,613
1.0853,726
1.086967,637
1.088633,576
1.0903,782
1.091967,568
1.093633,628
1.0953,816
1.096967,633
1.098633,588
1.1003,638
1.101967,645
1.103633,693
1.1053,692
1.106967,690
1.108633,596
1.1103,732
1.111967,525
1.113633,698
1.1153,665
1.116967,733
1.118633,668
1.1203,696
1.121967,764
1.123633,736
1.1253,661
1.126967,594
1.128633,762
1.1303,685
1.131967,645
1.133633,545
1.1353,589
1.136967,633
1.138633,631
1.1403,629
1.141967,631
1.143633,634
1.1453,641
1.146967,648
1.148633,598
1.1503,539
1.151967,577
1.153633,643
1.1553,709
1.156967,664
1.158633,619
1.1603,581
1.161967,627
1.163633,672
1.1653,843
1.166967,849
1.168633,797
1.1703,710
1.171967,735
1.173633,680
1.1753,757
1.176967,768
1.178633,641
1.1803,807
1.181967,592
1.183633,703
1.1853,642
1.186967,714
1.188633,707
1.1903,648
1.191967,660
1.193633,672
1.1953,543
1.196967,759
1.198633,825
