"SampleName","A2Rd2_02-64"
"Target Mass 1",
"Column Name","IA-3 (3um, 4.6X100)"
"Channel","QDa 1: SIR Ch2"
0.00195,793
0.003616667,706
0.005283333,658
0.00695,819
0.008616666,861
0.01028333,903
0.01195,802
0.01361667,881
0.01528333,960
0.01695,985
0.01861667,875
0.02028333,1031
0.02195,861
0.02361667,931
0.02528333,848
0.02695,843
0.02861667,741
0.03028333,960
0.03195,1068
0.03361667,1157
0.03528333,919
0.03695,955
0.03861667,829
0.04028333,1017
0.04195,998
0.04361667,941
0.04528333,884
0.04695,826
0.04861667,1048
0.05028334,1072
0.05195,891
0.05361667,975
0.05528333,1057
0.05695,844
0.05861667,1086
0.06028333,968
0.06195,825
0.06361666,963
0.06528334,786
0.06695,757
0.06861667,961
0.07028333,1000
0.07195,1006
0.07361667,1004
0.07528333,1003
0.07695,722
0.07861666,993
0.08028334,856
0.08195,862
0.08361667,1039
0.08528333,1035
0.08695,993
0.08861667,911
0.09028333,718
0.09195,854
0.09361666,938
0.09528334,814
0.09695,839
0.09861667,1019
0.1002833,1036
0.10195,1033
0.1036167,1042
0.1052833,1080
0.10695,910
0.1086167,898
0.1102833,981
0.11195,970
0.1136167,958
0.1152833,784
0.11695,965
0.1186167,985
0.1202833,1020
0.12195,1051
0.1236167,905
0.1252833,934
0.12695,988
0.1286167,913
0.1302833,947
0.13195,1034
0.1336167,1077
0.1352833,889
0.13695,1101
0.1386167,887
0.1402833,871
0.14195,779
0.1436167,887
0.1452833,925
0.14695,963
0.1486167,919
0.1502833,1014
0.15195,1028
0.1536167,1042
0.1552833,1075
0.15695,942
0.1586167,870
0.1602833,883
0.16195,786
0.1636167,967
0.1652833,898
0.16695,969
0.1686167,962
0.1702833,982
0.17195,685
0.1736167,1026
0.1752833,902
0.17695,975
0.1786167,888
0.1802833,885
0.18195,798
0.1836167,824
0.1852833,875
0.18695,860
0.1886167,845
0.1902833,778
0.19195,838
0.1936167,1066
0.1952833,1105
0.19695,828
0.1986167,1239
0.2002833,857
0.20195,768
0.2036167,1025
0.2052833,723
0.20695,1147
0.2086167,996
0.2102833,912
0.21195,1035
0.2136167,983
0.2152833,969
0.21695,949
0.2186167,981
0.2202833,1013
0.22195,1169
0.2236167,1139
0.2252833,1070
0.22695,1118
0.2286333,1166
0.2302833,1132
0.23195,1237
0.2336167,1204
0.2352833,1096
0.23695,1232
0.2386333,1213
0.2402833,1194
0.24195,1186
0.2436167,1177
0.2453,933
0.24695,1063
0.2486167,1156
0.2502833,1127
0.25195,1097
0.2536167,1212
0.2552833,873
0.25695,1125
0.2586167,1354
0.2602833,1132
0.26195,1222
0.2636333,1127
0.2652833,1172
0.2669667,886
0.2686167,1064
0.2703,1084
0.27195,975
0.2736167,1258
0.2752833,1282
0.27695,1064
0.2786167,1255
0.2803,1111
0.28195,1013
0.2836167,847
0.2852833,1016
0.2869667,1199
0.2886333,1111
0.2902833,1089
0.29195,1169
0.2936167,1233
0.2952833,967
0.29695,958
0.2986333,874
0.3002833,913
0.3019667,952
0.3036167,991
0.3052833,1030
0.30695,1008
0.3086167,987
0.3103,1158
0.31195,1203
0.3136167,1381
0.3153,1423
0.3169667,1163
0.3186333,1386
0.3203,1505
0.3219667,1466
0.3236167,1394
0.3253,1277
0.32695,1280
0.3286333,1352
0.3302833,1446
0.3319667,1085
0.3336333,1354
0.3353,1183
0.3369667,1363
0.3386333,1200
0.3403,1230
0.3419667,1037
0.3436167,1115
0.3453,1192
0.34695,888
0.3486333,1255
0.3503,1110
0.3519667,1238
0.3536333,1193
0.3553,1148
0.3569667,1274
0.3586333,1400
0.3603,1414
0.3619667,1266
0.3636333,1617
0.3653,2080
0.3669667,3063
0.3686333,3589
0.3703,3535
0.3719667,3633
0.3736333,3322
0.3753,2961
0.3769667,2934
0.3786333,2988
0.3803,2960
0.3819667,2806
0.3836333,2972
0.3853,2253
0.3869667,2071
0.3886333,1377
0.3903,1239
0.3919667,901
0.3936333,696
0.3953,586
0.3969667,711
0.3986333,515
0.4003,465
0.4019667,357
0.4036333,614
0.4053,504
0.4069667,422
0.4086333,582
0.4103,588
0.4119667,581
0.4136333,406
0.4153,750
0.4169667,695
0.4186333,652
0.4203,525
0.4219667,658
0.4236333,621
0.4253,585
0.4269667,664
0.4286333,744
0.4303,800
0.4319667,863
0.4336333,803
0.4353,655
0.4369667,786
0.4386333,825
0.4403,864
0.4419667,969
0.4436333,981
0.4453,996
0.4469667,978
0.4486333,961
0.4503,1071
0.4519667,1053
0.4536333,1035
0.4553,979
0.4569667,923
0.4586333,1121
0.4603,1187
0.4619667,1340
0.4636333,1200
0.4653,1156
0.4669667,1272
0.4686333,1289
0.4703,1306
0.4719667,1353
0.4736333,1170
0.4753,1338
0.4769667,1235
0.4786333,1233
0.4803,1231
0.4819667,1209
0.4836333,1187
0.4853,1300
0.4869667,1414
0.4886333,1002
0.4903,1434
0.4919667,1349
0.4936333,1035
0.4953,1062
0.4969667,1042
0.4986333,933
0.5003,984
0.5019667,903
0.5036333,823
0.5053,1109
0.5069667,1023
0.5086333,968
0.5103,735
0.5119666,825
0.5136333,871
0.5153,815
0.5169666,973
0.5186333,953
0.5203,898
0.5219667,799
0.5236334,948
0.5253,895
0.5269667,843
0.5286334,812
0.5303,918
0.5319667,911
0.5336334,930
0.5353,895
0.5369667,860
0.5386333,903
0.5403,1032
0.5419667,1038
0.5436333,942
0.5453,1060
0.5469667,894
0.5486333,876
0.5503,859
0.5519667,935
0.5536333,885
0.5553,834
0.5569667,937
0.5586333,966
0.5603,829
0.5619667,947
0.5636333,1090
0.5653,1200
0.5669667,1037
0.5686333,640
0.5703,765
0.5719666,1050
0.5736333,907
0.5753,952
0.5769666,885
0.5786333,865
0.5803,844
0.5819666,776
0.5836333,709
0.5853,939
0.5869667,847
0.5886334,755
0.5903,931
0.5919667,919
0.5936334,1045
0.5953,1062
0.5969667,963
0.5986333,838
0.6003,1006
0.6019667,1080
0.6036333,980
0.6053,1003
0.6069667,1075
0.6086333,924
0.6103,935
0.6119667,999
0.6136333,939
0.6153,1043
0.6169667,1128
0.6186333,1115
0.6203,1119
0.6219667,1123
0.6236333,1075
0.6253,817
0.6269667,1059
0.6286333,989
0.6303,976
0.6319667,963
0.6336333,881
0.6353,799
0.6369666,915
0.6386333,1030
0.6403,1179
0.6419666,1079
0.6436333,997
0.6453,894
0.6469667,1136
0.6486334,953
0.6503,1023
0.6519667,1008
0.6536334,1024
0.6553,1039
0.6569667,1062
0.6586334,960
0.6603,983
0.6619667,1170
0.6636333,789
0.6653,1209
0.6669667,1235
0.6686333,1222
0.6703,1448
0.6719667,1603
0.6736333,1787
0.6753,2126
0.6769667,2669
0.6786333,3448
0.6803,5334
0.6819667,6365
0.6836333,8220
0.6853,8840
0.6869667,11384
0.6886333,14416
0.6903,18456
0.6919667,21020
0.6936333,23076
0.6953,25340
0.6969666,27300
0.6986333,28172
0.7003,28576
0.7019666,28604
0.7036333,28624
0.7053,28648
0.7069666,27280
0.7086333,25960
0.7103,27316
0.7119667,24296
0.7136334,24852
0.7153,25352
0.7169667,23124
0.7186334,24728
0.7203,23144
0.7219667,24284
0.7236333,23012
0.7253,22616
0.7269667,21976
0.7286333,20344
0.7303,18852
0.7319667,16728
0.7336333,15364
0.7353,13804
0.7369667,12060
0.7386333,11024
0.7403,10232
0.7419667,9024
0.7436333,7992
0.7453,7040
0.7469667,5970
0.7486333,5659
0.7503,5294
0.7519667,4282
0.7536333,4020
0.7553,3611
0.7569667,2974
0.7586333,3098
0.7603,2895
0.7619666,2515
0.7636333,2293
0.7653,2288
0.7669666,2191
0.7686333,1928
0.7703,2191
0.7719667,2168
0.7736334,2334
0.7753,2461
0.7769667,3039
0.7786334,3883
0.7803,5234
0.7819667,6474
0.7836334,8444
0.7853,10684
0.7869667,13224
0.7886333,16880
0.7903,19640
0.7919667,22484
0.7936333,27640
0.7953,30124
0.7969667,32848
0.7986333,36608
0.8003,37584
0.8019667,39232
0.8036333,41248
0.8053,41232
0.8069667,40960
0.8086333,39760
0.8103,40272
0.8119667,37632
0.8136333,36064
0.8153,35568
0.8169667,35408
0.8186333,34416
0.8203,32692
0.8219666,32588
0.8236333,32616
0.8253,32752
0.8269666,32896
0.8286333,31764
0.8303,31284
0.8319666,29928
0.8336333,29512
0.8353,28136
0.8369667,27188
0.8386334,24436
0.8403,22224
0.8419667,21272
0.8436334,18288
0.8453,16524
0.8469667,14920
0.8486333,12176
0.8503,12184
0.8519667,10560
0.8536333,10004
0.8553,8240
0.8569667,7299
0.8586333,6832
0.8603,6161
0.8619667,5333
0.8636333,4684
0.8653,4427
0.8669667,4391
0.8686333,3415
0.8703,3262
0.8719667,2890
0.8736333,2791
0.8753,2883
0.8769667,2533
0.8786333,2774
0.8803,3032
0.8819667,2833
0.8836333,3354
0.8853,3265
0.8869666,3258
0.8886333,2669
0.8903,2858
0.8919666,2848
0.8936333,2276
0.8953,2461
0.8969667,2502
0.8986334,2370
0.9003,2131
0.9019667,2483
0.9036334,2430
0.9053,2187
0.9069667,2279
0.9086334,2270
0.9103,2089
0.9119667,2291
0.9136333,2086
0.9153,2131
0.9169667,2005
0.9186333,2007
0.9203,2008
0.9219667,1954
0.9236333,2054
0.9253,2123
0.9269667,1848
0.9286333,1738
0.9303,1682
0.9319667,1766
0.9336333,1746
0.9353,1803
0.9369667,1545
0.9386333,1746
0.9403,1769
0.9419667,1793
0.9436333,1880
0.9453,2047
0.9469666,2239
0.9486333,2544
0.9503,2767
0.9519666,3311
0.9536333,4094
0.9553,4609
0.9569666,5311
0.9586333,6857
0.9603,8720
0.9619667,10252
0.9636334,13252
0.9653,16292
0.9669667,19976
0.9686334,22360
0.9703,26256
0.9719667,30244
0.9736333,35840
0.9753,38560
0.9769667,43088
0.9786333,48672
0.9803,53680
0.9819667,52992
0.9836333,57664
0.9853,60944
0.9869667,65936
0.9886333,63392
0.9903,66208
0.9919667,63840
0.9936333,66336
0.9953,67584
0.9969667,63536
0.9986333,61504
1.0003,60736
1.001967,60656
1.003633,59776
1.0053,56784
1.006967,56576
1.008633,55040
1.0103,55648
1.011967,56256
1.013633,56624
1.0153,56992
1.016967,56416
1.018633,56416
1.0203,56432
1.021967,57232
1.023633,55360
1.0253,54528
1.026967,54160
1.028633,52832
1.0303,50896
1.031967,47520
1.033633,43984
1.0353,41712
1.036967,39904
1.038633,38032
1.0403,33808
1.041967,32740
1.043633,30040
1.0453,28560
1.046967,26380
1.048633,25040
1.0503,22768
1.051967,21652
1.053633,20100
1.0553,18996
1.056967,19660
1.058633,19656
1.0603,19356
1.061967,18620
1.063633,18400
1.0653,19744
1.066967,20400
1.068633,20692
1.0703,21856
1.071967,22204
1.073633,20760
1.0753,22424
1.076967,21544
1.078633,20096
1.0803,22968
1.081967,21416
1.083633,19688
1.0853,21532
1.086967,21556
1.088633,21304
1.0903,19984
1.091967,19380
1.093633,19548
1.0953,19504
1.096967,19988
1.098633,17888
1.1003,18088
1.101967,18484
1.103633,17576
1.1053,17920
1.106967,16964
1.108633,17628
1.1103,17456
1.111967,17008
1.113633,16324
1.1153,16092
1.116967,15496
1.118633,15476
1.1203,14620
1.121967,15228
1.123633,14188
1.1253,13176
1.126967,11988
1.128633,11556
1.1303,10928
1.131967,10524
1.133633,10124
1.1353,10132
1.136967,9044
1.138633,8027
1.1403,8196
1.141967,7513
1.143633,7250
1.1453,6735
1.146967,5904
1.148633,5790
1.1503,5266
1.151967,5163
1.153633,4836
1.1553,4511
1.156967,4355
1.158633,3737
1.1603,3767
1.161967,3423
1.163633,3429
1.1653,3424
1.166967,3197
1.168633,2932
1.1703,2988
1.171967,3189
1.173633,2750
1.1753,2452
1.176967,2731
1.178633,2584
1.1803,2543
1.181967,2373
1.183633,2555
1.1853,2538
1.186967,2271
1.188633,2763
1.1903,2773
1.191967,2842
1.193633,3129
1.1953,3125
1.196967,3122
1.198633,3428
