"SampleName","A2Rd2_02-11"
"Target Mass 1",
"Column Name","IA-3 (3um, 4.6X100)"
"Channel","QDa 1: SIR Ch2"
0.00195,636
0.003616667,647
0.005283333,613
0.00695,613
0.008616666,614
0.01028333,883
0.01195,935
0.01361667,972
0.01528333,944
0.01695,916
0.01861667,817
0.02028333,876
0.02195,1007
0.02361667,947
0.02528333,950
0.02695,820
0.02861667,947
0.03028333,916
0.03195,882
0.03361667,822
0.03528333,988
0.03695,965
0.03861667,1050
0.04028333,959
0.04195,995
0.04361667,1055
0.04528333,1058
0.04695,891
0.04861667,1030
0.05028334,802
0.05195,808
0.05361667,912
0.05528333,702
0.05695,892
0.05861667,1032
0.06028333,784
0.06195,882
0.06361666,1096
0.06528334,1018
0.06695,978
0.06861667,749
0.07028333,693
0.07195,955
0.07361667,758
0.07528333,928
0.07695,840
0.07861666,828
0.08028334,839
0.08195,700
0.08361667,715
0.08528333,782
0.08695,771
0.08861667,761
0.09028333,807
0.09195,814
0.09361666,821
0.09528334,715
0.09695,865
0.09861667,789
0.1002833,923
0.10195,789
0.1036167,735
0.1052833,774
0.10695,817
0.1086167,941
0.1102833,966
0.11195,978
0.1136167,742
0.1152833,818
0.11695,809
0.1186167,800
0.1202833,815
0.12195,746
0.1236167,744
0.1252833,882
0.12695,957
0.1286167,899
0.1302833,923
0.13195,663
0.1336167,1036
0.1352833,785
0.13695,840
0.1386167,938
0.1402833,879
0.14195,819
0.1436167,821
0.1452833,730
0.14695,762
0.1486167,887
0.1502833,849
0.15195,838
0.1536167,623
0.1552833,806
0.15695,798
0.1586167,677
0.1602833,845
0.16195,630
0.1636167,698
0.1652833,784
0.16695,917
0.1686167,935
0.1702833,763
0.17195,791
0.1736167,910
0.1752833,748
0.17695,801
0.1786167,827
0.1802833,836
0.18195,842
0.1836167,813
0.1852833,869
0.18695,924
0.1886167,716
0.1902833,873
0.19195,840
0.1936167,745
0.1952833,864
0.19695,828
0.1986167,819
0.2002833,810
0.20195,694
0.2036167,755
0.2052833,856
0.20695,1050
0.2086167,1009
0.2102833,1071
0.21195,724
0.2136167,1176
0.2152833,1185
0.21695,904
0.2186167,922
0.2202833,1254
0.22195,961
0.2236167,990
0.2252833,1038
0.22695,1115
0.2286167,1157
0.2302833,1103
0.23195,921
0.2336167,1137
0.2352833,1032
0.23695,1059
0.2386167,1057
0.2402833,1055
0.24195,1028
0.2436167,1065
0.2452833,1108
0.24695,1088
0.2486167,1146
0.2502833,1127
0.25195,1107
0.2536167,985
0.2552833,942
0.25695,1062
0.2586167,1024
0.2602833,1082
0.26195,1169
0.2636333,1142
0.2652833,1098
0.26695,893
0.2686167,917
0.2702833,1042
0.27195,918
0.2736167,1073
0.2752833,939
0.27695,972
0.2786167,948
0.2803,976
0.28195,1004
0.2836167,926
0.2852833,1019
0.28695,990
0.2886167,936
0.2902833,869
0.29195,1069
0.2936167,1028
0.2952833,1027
0.29695,1008
0.2986333,989
0.3002833,1059
0.30195,1020
0.3036167,981
0.3052833,955
0.30695,929
0.3086333,1243
0.3102833,1301
0.31195,1190
0.3136167,1256
0.3153,1294
0.3169667,1279
0.3186333,1372
0.3202833,1388
0.3219667,1179
0.3236167,1175
0.3253,1237
0.32695,1146
0.3286167,1280
0.3302833,1233
0.33195,1106
0.3336333,1347
0.3352833,1249
0.33695,953
0.3386333,1299
0.3402833,1242
0.3419667,1145
0.3436167,1294
0.3452833,1198
0.34695,1192
0.3486167,1186
0.3503,1208
0.3519667,1229
0.3536167,1275
0.3553,1303
0.3569667,1282
0.3586333,1383
0.3602833,1408
0.36195,1355
0.3636167,1617
0.3653,2356
0.3669667,3164
0.3686333,4202
0.3703,3481
0.3719667,3858
0.3736333,4272
0.3753,3824
0.3769667,3732
0.3786333,3768
0.3802833,3545
0.3819667,2366
0.3836333,2147
0.3853,2072
0.38695,1504
0.3886333,1647
0.3903,857
0.3919667,855
0.3936167,604
0.3953,545
0.39695,558
0.3986333,467
0.4003,530
0.4019667,411
0.4036333,404
0.4053,469
0.4069667,461
0.4086333,453
0.4103,474
0.4119667,496
0.4136333,494
0.4153,491
0.4169667,630
0.4186333,609
0.4203,588
0.4219667,636
0.4236333,681
0.4253,707
0.4269667,798
0.4286333,807
0.4303,758
0.4319667,784
0.4336333,810
0.4353,816
0.4369667,781
0.4386333,746
0.4403,769
0.4419667,751
0.4436333,978
0.4453,977
0.4469667,1135
0.4486333,1079
0.4503,1197
0.4519667,1133
0.4536333,1069
0.4553,1144
0.4569667,1266
0.4586333,1241
0.4603,1360
0.4619667,1355
0.4636333,1350
0.4653,1382
0.4669667,1360
0.4686333,1338
0.4703,1610
0.4719667,1624
0.4736333,1411
0.4753,1350
0.4769667,1373
0.4786333,1228
0.4803,1446
0.4819667,1527
0.4836333,1397
0.4853,1342
0.4869667,1306
0.4886333,1059
0.4903,1150
0.4919667,1131
0.4936333,963
0.4953,1290
0.4969667,1170
0.4986333,1124
0.5003,1103
0.5019667,984
0.5036333,939
0.5053,932
0.5069667,968
0.5086333,1008
0.5103,793
0.5119666,825
0.5136333,822
0.5153,878
0.5169666,861
0.5186333,844
0.5203,907
0.5219667,969
0.5236334,957
0.5253,944
0.5269667,845
0.5286334,878
0.5303,911
0.5319667,836
0.5336334,909
0.5353,931
0.5369667,895
0.5386333,860
0.5403,1012
0.5419667,1001
0.5436333,1018
0.5453,943
0.5469667,868
0.5486333,924
0.5503,961
0.5519667,742
0.5536333,679
0.5553,841
0.5569667,973
0.5586333,1003
0.5603,812
0.5619667,683
0.5636333,942
0.5653,838
0.5669667,1029
0.5686333,795
0.5703,785
0.5719666,1016
0.5736333,966
0.5753,965
0.5769666,757
0.5786333,853
0.5803,934
0.5819666,1044
0.5836333,1154
0.5853,1099
0.5869667,868
0.5886334,827
0.5903,1217
0.5919667,1055
0.5936334,660
0.5953,1036
0.5969667,1150
0.5986333,895
0.6003,997
0.6019667,1043
0.6036333,899
0.6053,881
0.6069667,963
0.6086333,965
0.6103,991
0.6119667,898
0.6136333,922
0.6153,945
0.6169667,1197
0.6186333,1196
0.6203,1060
0.6219667,921
0.6236333,976
0.6253,1181
0.6269667,1125
0.6286333,1151
0.6303,1147
0.6319667,1143
0.6336333,1159
0.6353,1175
0.6369666,1110
0.6386333,1044
0.6403,1152
0.6419666,1260
0.6436333,1203
0.6453,1159
0.6469667,1156
0.6486334,1122
0.6503,1122
0.6519667,1123
0.6536334,1124
0.6553,1090
0.6569667,1021
0.6586334,952
0.6603,1245
0.6619667,1262
0.6636333,970
0.6653,1031
0.6669667,948
0.6686333,919
0.6703,852
0.6719667,898
0.6736333,944
0.6753,874
0.6769667,804
0.6786333,768
0.6803,812
0.6819667,851
0.6836333,890
0.6853,869
0.6869667,849
0.6886333,920
0.6903,905
0.6919667,891
0.6936333,822
0.6953,830
0.6969666,837
0.6986333,896
0.7003,954
0.7019666,1028
0.7036333,1056
0.7053,875
0.7069666,956
0.7086333,1030
0.7103,939
0.7119667,908
0.7136334,979
0.7153,895
0.7169667,904
0.7186334,966
0.7203,940
0.7219667,862
0.7236333,925
0.7253,892
0.7269667,959
0.7286333,809
0.7303,827
0.7319667,885
0.7336333,860
0.7353,834
0.7369667,799
0.7386333,792
0.7403,785
0.7419667,889
0.7436333,903
0.7453,916
0.7469667,781
0.7486333,844
0.7503,1023
0.7519667,1009
0.7536333,813
0.7553,887
0.7569667,937
0.7586333,848
0.7603,827
0.7619666,806
0.7636333,665
0.7653,770
0.7669666,875
0.7686333,726
0.7703,945
0.7719667,870
0.7736334,973
0.7753,972
0.7769667,878
0.7786334,877
0.7803,870
0.7819667,841
0.7836334,812
0.7853,1055
0.7869667,1046
0.7886333,732
0.7903,894
0.7919667,1055
0.7936333,833
0.7953,924
0.7969667,914
0.7986333,906
0.8003,897
0.8019667,906
0.8036333,809
0.8053,875
0.8069667,886
0.8086333,898
0.8103,843
0.8119667,789
0.8136333,805
0.8153,822
0.8169667,963
0.8186333,960
0.8203,947
0.8219666,979
0.8236333,1128
0.8253,1112
0.8269666,1145
0.8286333,862
0.8303,971
0.8319666,941
0.8336333,725
0.8353,1094
0.8369667,861
0.8386334,1009
0.8403,792
0.8419667,854
0.8436334,1058
0.8453,920
0.8469667,895
0.8486333,871
0.8503,832
0.8519667,793
0.8536333,892
0.8553,863
0.8569667,812
0.8586333,702
0.8603,973
0.8619667,986
0.8636333,1082
0.8653,1038
0.8669667,821
0.8686333,1059
0.8703,760
0.8719667,701
0.8736333,862
0.8753,857
0.8769667,855
0.8786333,945
0.8803,1202
0.8819667,1389
0.8836333,1403
0.8853,1356
0.8869666,1490
0.8886333,1486
0.8903,1436
0.8919666,1370
0.8936333,1349
0.8953,1329
0.8969667,1337
0.8986334,1345
0.9003,1314
0.9019667,1322
0.9036334,1331
0.9053,1277
0.9069667,1323
0.9086334,1369
0.9103,1372
0.9119667,1393
0.9136333,1294
0.9153,1371
0.9169667,1315
0.9186333,1007
0.9203,1371
0.9219667,1411
0.9236333,1452
0.9253,1372
0.9269667,1416
0.9286333,1510
0.9303,1169
0.9319667,1334
0.9336333,1543
0.9353,1322
0.9369667,1340
0.9386333,1166
0.9403,1186
0.9419667,1341
0.9436333,1232
0.9453,1219
0.9469666,1264
0.9486333,1310
0.9503,1287
0.9519666,1061
0.9536333,1243
0.9553,1181
0.9569666,1008
0.9586333,1139
0.9603,1127
0.9619667,1116
0.9636334,988
0.9653,1048
0.9669667,989
0.9686334,957
0.9703,941
0.9719667,895
0.9736333,770
0.9753,997
0.9769667,1023
0.9786333,780
0.9803,849
0.9819667,814
0.9836333,901
0.9853,881
0.9869667,862
0.9886333,939
0.9903,774
0.9919667,712
0.9936333,750
0.9953,816
0.9969667,805
0.9986333,794
1.0003,774
1.001967,772
1.003633,770
1.0053,777
1.006967,777
1.008633,778
1.0103,746
1.011967,714
1.013633,781
1.0153,848
1.016967,799
1.018633,750
1.0203,897
1.021967,1023
1.023633,957
1.0253,751
1.026967,899
1.028633,882
1.0303,881
1.031967,654
1.033633,954
1.0353,789
1.036967,928
1.038633,654
1.0403,920
1.041967,620
1.043633,784
1.0453,943
1.046967,937
1.048633,981
1.0503,855
1.051967,749
1.053633,850
1.0553,908
1.056967,892
1.058633,916
1.0603,897
1.061967,878
1.063633,816
1.0653,821
1.066967,758
1.068633,791
1.0703,840
1.071967,809
1.073633,777
1.0753,1033
1.076967,1038
1.078633,795
1.0803,900
1.081967,764
1.083633,855
1.0853,902
1.086967,803
1.088633,909
1.0903,685
1.091967,866
1.093633,1044
1.0953,974
1.096967,836
1.098633,852
1.1003,930
1.101967,888
1.103633,885
1.1053,649
1.106967,923
1.108633,832
1.1103,913
1.111967,829
1.113633,970
1.1153,737
1.116967,980
1.118633,802
1.1203,786
1.121967,930
1.123633,930
1.1253,839
1.126967,877
1.128633,927
1.1303,742
1.131967,796
1.133633,632
1.1353,750
1.136967,912
1.138633,944
1.1403,839
1.141967,969
1.143633,830
1.1453,836
1.146967,939
1.148633,776
1.1503,865
1.151967,860
1.153633,918
1.1553,824
1.156967,892
1.158633,867
1.1603,873
1.161967,916
1.163633,908
1.1653,893
1.166967,877
1.168633,881
1.1703,737
1.171967,775
1.173633,921
1.1753,731
1.176967,733
1.178633,872
1.1803,888
1.181967,967
1.183633,676
1.1853,761
1.186967,726
1.188633,730
1.1903,734
1.191967,792
1.193633,781
1.1953,719
1.196967,730
1.198633,741
