"SampleName","A2Rd2_02-20"
"Target Mass 1",
"Column Name","IA-3 (3um, 4.6X100)"
"Channel","QDa 1: SIR Ch2"
0.00195,579
0.003616667,668
0.005283333,792
0.00695,797
0.008616666,1031
0.01028333,1011
0.01195,827
0.01361667,782
0.01528333,1051
0.01695,956
0.01861667,804
0.02028333,759
0.02195,885
0.02361667,937
0.02528333,906
0.02695,938
0.02861667,844
0.03028333,718
0.03195,858
0.03361667,893
0.03528333,937
0.03695,844
0.03861667,939
0.04028333,1034
0.04195,1098
0.04361667,945
0.04528333,736
0.04695,810
0.04861667,878
0.05028334,946
0.05195,978
0.05361667,1117
0.05528333,616
0.05695,820
0.05861667,813
0.06028333,830
0.06195,752
0.06361666,673
0.06528334,967
0.06695,1024
0.06861667,895
0.07028333,895
0.07195,894
0.07361667,892
0.07528333,877
0.07695,883
0.07861666,971
0.08028334,778
0.08195,960
0.08361667,790
0.08528333,876
0.08695,1169
0.08861667,1058
0.09028333,811
0.09195,774
0.09361666,852
0.09528334,791
0.09695,730
0.09861667,714
0.1002833,699
0.10195,788
0.1036167,963
0.1052833,1061
0.10695,976
0.1086167,1069
0.1102833,974
0.11195,873
0.1136167,936
0.1152833,814
0.11695,1003
0.1186167,771
0.1202833,835
0.12195,1089
0.1236167,573
0.1252833,970
0.12695,867
0.1286167,899
0.1302833,952
0.13195,816
0.1336167,990
0.1352833,921
0.13695,918
0.1386167,756
0.1402833,697
0.14195,769
0.1436167,783
0.1452833,798
0.14695,744
0.1486167,690
0.1502833,732
0.15195,775
0.1536167,937
0.1552833,879
0.15695,916
0.1586167,952
0.1602833,805
0.16195,658
0.1636167,829
0.1652833,1014
0.16695,1001
0.1686167,955
0.1702833,961
0.17195,902
0.1736167,721
0.1752833,1095
0.17695,917
0.1786167,746
0.1802833,931
0.18195,943
0.1836167,751
0.1852833,762
0.18695,940
0.1886167,928
0.1902833,915
0.19195,743
0.1936167,903
0.1952833,881
0.19695,755
0.1986167,770
0.2002833,759
0.20195,953
0.2036167,905
0.2052833,856
0.20695,860
0.2086167,963
0.2102833,778
0.21195,865
0.2136167,676
0.2152833,1100
0.21695,1065
0.2186167,1123
0.2202833,993
0.22195,836
0.2236167,941
0.2252833,1021
0.22695,1101
0.2286167,1173
0.2302833,1085
0.23195,1042
0.2336167,934
0.2352833,1036
0.23695,1199
0.2386167,1122
0.2402833,1295
0.24195,958
0.2436167,1170
0.2452833,1050
0.24695,1062
0.2486167,1074
0.2502833,1088
0.25195,1079
0.2536167,1077
0.2552833,1032
0.25695,986
0.2586167,1086
0.2602833,1019
0.26195,996
0.2636333,1062
0.2652833,1128
0.26695,1120
0.2686167,1097
0.2702833,957
0.27195,1201
0.2736167,851
0.2753,933
0.27695,1056
0.2786167,1100
0.2803,1099
0.28195,1013
0.2836167,1000
0.2852833,1126
0.28695,1000
0.2886167,812
0.2902833,986
0.29195,958
0.2936167,876
0.2952833,859
0.29695,842
0.2986333,968
0.3002833,1016
0.30195,974
0.3036167,932
0.3052833,995
0.30695,1058
0.3086167,1279
0.3102833,1357
0.31195,1455
0.3136167,1455
0.3153,1489
0.3169667,1329
0.3186167,1567
0.3203,1483
0.32195,1305
0.3236167,1496
0.3253,1007
0.32695,1244
0.3286167,1299
0.3302833,1184
0.33195,1093
0.3336333,1122
0.3352833,1152
0.3369667,1210
0.3386167,1283
0.3402833,1438
0.3419667,1537
0.3436167,1457
0.3452833,1198
0.34695,1486
0.3486167,1474
0.3503,1497
0.35195,1320
0.3536333,1208
0.3552833,1346
0.3569667,1552
0.3586333,1644
0.3602833,1493
0.36195,1379
0.3636167,1316
0.3652833,2245
0.3669667,3579
0.3686333,2993
0.3703,3792
0.3719667,3959
0.3736333,3252
0.3753,3870
0.37695,3544
0.3786167,3346
0.3802833,3103
0.38195,2502
0.3836333,2163
0.3853,1761
0.3869667,1495
0.3886333,1309
0.3903,854
0.3919667,723
0.3936333,803
0.3952833,531
0.39695,577
0.3986167,502
0.4003,398
0.4019667,630
0.4036333,667
0.4053,465
0.4069667,487
0.4086333,598
0.4103,558
0.4119667,501
0.4136333,588
0.4153,543
0.4169667,499
0.4186333,613
0.4203,727
0.4219667,694
0.4236333,545
0.4253,836
0.4269667,757
0.4286333,738
0.4303,815
0.4319667,717
0.4336333,734
0.4353,752
0.4369667,931
0.4386333,932
0.4403,933
0.4419667,980
0.4436333,1035
0.4453,995
0.4469667,956
0.4486333,1120
0.4503,1146
0.4519667,1055
0.4536333,1135
0.4553,1328
0.4569667,1304
0.4586333,1455
0.4603,1384
0.4619667,1042
0.4636333,1301
0.4653,1296
0.4669667,1387
0.4686333,1389
0.4703,1128
0.4719667,1379
0.4736333,1263
0.4753,1321
0.4769667,1309
0.4786333,1297
0.4803,1146
0.4819667,1319
0.4836333,1354
0.4853,1091
0.4869667,1173
0.4886333,1164
0.4903,1345
0.4919667,1291
0.4936333,1066
0.4953,1132
0.4969667,1149
0.4986333,885
0.5003,1056
0.5019667,1034
0.5036333,1012
0.5053,1076
0.5069667,1000
0.5086333,996
0.5103,1070
0.5119666,1066
0.5136333,1061
0.5153,1052
0.5169666,1001
0.5186333,901
0.5203,1112
0.5219667,864
0.5236334,939
0.5253,1001
0.5269667,958
0.5286334,910
0.5303,941
0.5319667,972
0.5336334,885
0.5353,925
0.5369667,964
0.5386333,941
0.5403,949
0.5419667,957
0.5436333,985
0.5453,1013
0.5469667,1034
0.5486333,1024
0.5503,1014
0.5519667,1005
0.5536333,997
0.5553,1031
0.5569667,968
0.5586333,1107
0.5603,977
0.5619667,846
0.5636333,985
0.5653,945
0.5669667,911
0.5686333,874
0.5703,837
0.5719666,913
0.5736333,934
0.5753,945
0.5769666,908
0.5786333,1026
0.5803,998
0.5819666,971
0.5836333,954
0.5853,966
0.5869667,925
0.5886334,873
0.5903,782
0.5919667,944
0.5936334,894
0.5953,894
0.5969667,924
0.5986333,926
0.6003,928
0.6019667,876
0.6036333,824
0.6053,952
0.6069667,925
0.6086333,909
0.6103,893
0.6119667,889
0.6136333,975
0.6153,972
0.6169667,969
0.6186333,897
0.6203,919
0.6219667,942
0.6236333,936
0.6253,1014
0.6269667,1033
0.6286333,1018
0.6303,1003
0.6319667,987
0.6336333,1057
0.6353,1055
0.6369666,1059
0.6386333,1071
0.6403,1084
0.6419666,957
0.6436333,994
0.6453,982
0.6469667,1000
0.6486334,1018
0.6503,1014
0.6519667,1010
0.6536334,996
0.6553,982
0.6569667,998
0.6586334,1044
0.6603,1064
0.6619667,1084
0.6636333,1045
0.6653,1049
0.6669667,766
0.6686333,1120
0.6703,1298
0.6719667,1400
0.6736333,1498
0.6753,1659
0.6769667,2208
0.6786333,2747
0.6803,3676
0.6819667,4086
0.6836333,5080
0.6853,6718
0.6869667,8784
0.6886333,10092
0.6903,11920
0.6919667,13528
0.6936333,15244
0.6953,17536
0.6969666,18996
0.6986333,20136
0.7003,21348
0.7019666,22436
0.7036333,23720
0.7053,22584
0.7069666,22616
0.7086333,22260
0.7103,24108
0.7119667,24120
0.7136334,22672
0.7153,22656
0.7169667,22800
0.7186334,22064
0.7203,21928
0.7219667,21096
0.7236333,20684
0.7253,20100
0.7269667,17012
0.7286333,15372
0.7303,13368
0.7319667,13280
0.7336333,11048
0.7353,9600
0.7369667,9152
0.7386333,7102
0.7403,6639
0.7419667,6020
0.7436333,5590
0.7453,4830
0.7469667,3901
0.7486333,3431
0.7503,3303
0.7519667,2849
0.7536333,2743
0.7553,2629
0.7569667,2039
0.7586333,1896
0.7603,1983
0.7619666,1828
0.7636333,1629
0.7653,1846
0.7669666,1423
0.7686333,1492
0.7703,1686
0.7719667,1727
0.7736334,1668
0.7753,1750
0.7769667,2150
0.7786334,2504
0.7803,3175
0.7819667,3726
0.7836334,4614
0.7853,5804
0.7869667,6614
0.7886333,8640
0.7903,10040
0.7919667,11884
0.7936333,14104
0.7953,15168
0.7969667,17976
0.7986333,20276
0.8003,22412
0.8019667,22948
0.8036333,23676
0.8053,24392
0.8069667,25584
0.8086333,25744
0.8103,26684
0.8119667,25640
0.8136333,26340
0.8153,24976
0.8169667,25900
0.8186333,25852
0.8203,26192
0.8219666,26388
0.8236333,26188
0.8253,26144
0.8269666,25180
0.8286333,24060
0.8303,23332
0.8319666,21988
0.8336333,19268
0.8353,19508
0.8369667,16280
0.8386334,16320
0.8403,13544
0.8419667,12440
0.8436334,11376
0.8453,9472
0.8469667,9080
0.8486333,7281
0.8503,6585
0.8519667,6220
0.8536333,5175
0.8553,4950
0.8569667,4796
0.8586333,3944
0.8603,3612
0.8619667,3739
0.8636333,3129
0.8653,2603
0.8669667,2374
0.8686333,2214
0.8703,2234
0.8719667,2164
0.8736333,2067
0.8753,2065
0.8769667,2126
0.8786333,1885
0.8803,1844
0.8819667,2139
0.8836333,2151
0.8853,2245
0.8869666,2290
0.8886333,2363
0.8903,2385
0.8919666,1881
0.8936333,1939
0.8953,2210
0.8969667,1764
0.8986334,1937
0.9003,1982
0.9019667,1900
0.9036334,1987
0.9053,2006
0.9069667,1750
0.9086334,2065
0.9103,1715
0.9119667,1913
0.9136333,1543
0.9153,1577
0.9169667,1612
0.9186333,1593
0.9203,1574
0.9219667,1656
0.9236333,1845
0.9253,1877
0.9269667,1667
0.9286333,1372
0.9303,1506
0.9319667,1485
0.9336333,1508
0.9353,1385
0.9369667,1412
0.9386333,1439
0.9403,1475
0.9419667,1748
0.9436333,1704
0.9453,1422
0.9469666,1549
0.9486333,1562
0.9503,1671
0.9519666,2307
0.9536333,2312
0.9553,2447
0.9569666,2617
0.9586333,3563
0.9603,4154
0.9619667,5004
0.9636334,6441
0.9653,7511
0.9669667,9292
0.9686334,10684
0.9703,13004
0.9719667,14960
0.9736333,17664
0.9753,20280
0.9769667,24748
0.9786333,26524
0.9803,29208
0.9819667,31872
0.9836333,35536
0.9853,37232
0.9869667,40512
0.9886333,42576
0.9903,44016
0.9919667,44528
0.9936333,47888
0.9953,48784
0.9969667,49056
0.9986333,48432
1.0003,49232
1.001967,48368
1.003633,49568
1.0053,49760
1.006967,49136
1.008633,49856
1.0103,50512
1.011967,50816
1.013633,51120
1.0153,51152
1.016967,51200
1.018633,50304
1.0203,51504
1.021967,49504
1.023633,47680
1.0253,46688
1.026967,44048
1.028633,41664
1.0303,38544
1.031967,36816
1.033633,35424
1.0353,31900
1.036967,27320
1.038633,25480
1.0403,23980
1.041967,22064
1.043633,20428
1.0453,18608
1.046967,17036
1.048633,16276
1.0503,15212
1.051967,14416
1.053633,14508
1.0553,14736
1.056967,13528
1.058633,13736
1.0603,13680
1.061967,14424
1.063633,15100
1.0653,15300
1.066967,16128
1.068633,17428
1.0703,16720
1.071967,17448
1.073633,18584
1.0753,19080
1.076967,19792
1.078633,19904
1.0803,19436
1.081967,19980
1.083633,20524
1.0853,20144
1.086967,20636
1.088633,20460
1.0903,20628
1.091967,21260
1.093633,21556
1.0953,21104
1.096967,21180
1.098633,21072
1.1003,21000
1.101967,20924
1.103633,21080
1.1053,21176
1.106967,20564
1.108633,20224
1.1103,19876
1.111967,19264
1.113633,19564
1.1153,18552
1.116967,16708
1.118633,17484
1.1203,17468
1.121967,15736
1.123633,15024
1.1253,14836
1.126967,12808
1.128633,12052
1.1303,12184
1.131967,10144
1.133633,9512
1.1353,9256
1.136967,7838
1.138633,7361
1.1403,7209
1.141967,6666
1.143633,6101
1.1453,6151
1.146967,5362
1.148633,4949
1.1503,4746
1.151967,4586
1.153633,3967
1.1553,3993
1.156967,3942
1.158633,3870
1.1603,3242
1.161967,3172
1.163633,3286
1.1653,2971
1.166967,2651
1.168633,2645
1.1703,2680
1.171967,2703
1.173633,2846
1.1753,2445
1.176967,2026
1.178633,2057
1.1803,2289
1.181967,2133
1.183633,2435
1.1853,2357
1.186967,1934
1.188633,2156
1.1903,2162
1.191967,2129
1.193633,2153
1.1953,2176
1.196967,2475
1.198633,2690
