"SampleName","A2Rd2_02-56"
"Target Mass 1",
"Column Name","IA-3 (3um, 4.6X100)"
"Channel","QDa 1: SIR Ch2"
0.00195,504
0.003616667,863
0.005283333,620
0.00695,663
0.008616666,763
0.01028333,993
0.01195,1040
0.01361667,759
0.01528333,1169
0.01695,1188
0.01861667,951
0.02028333,897
0.02195,1130
0.02361667,1006
0.02528333,942
0.02695,999
0.02861667,891
0.03028333,759
0.03195,794
0.03361667,828
0.03528333,966
0.03695,948
0.03861667,930
0.04028333,921
0.04195,969
0.04361667,1017
0.04528333,1183
0.04695,1219
0.04861667,1162
0.05028334,1116
0.05195,1022
0.05361667,1156
0.05528333,1023
0.05695,1200
0.05861667,1230
0.06028333,1006
0.06195,1030
0.06361666,1070
0.06528334,1050
0.06695,1030
0.06861667,923
0.07028333,1125
0.07195,1035
0.07361667,1092
0.07528333,995
0.07695,898
0.07861666,1048
0.08028334,988
0.08195,921
0.08361667,1110
0.08528333,1120
0.08695,992
0.08861667,867
0.09028333,1202
0.09195,1051
0.09361666,1258
0.09528334,920
0.09695,956
0.09861667,894
0.1002833,1136
0.10195,1110
0.1036167,900
0.1052833,1183
0.10695,1065
0.1086167,922
0.1102833,1110
0.11195,977
0.1136167,744
0.1152833,1121
0.11695,1019
0.1186167,1032
0.1202833,1000
0.12195,989
0.1236167,837
0.1252833,1048
0.12695,896
0.1286167,884
0.1302833,1074
0.13195,1025
0.1336167,1073
0.1352833,914
0.13695,828
0.1386167,1039
0.1402833,889
0.14195,777
0.1436167,947
0.1452833,855
0.14695,803
0.1486167,854
0.1502833,819
0.15195,837
0.1536167,856
0.1552833,852
0.15695,848
0.1586167,881
0.1602833,879
0.16195,876
0.1636167,903
0.1652833,792
0.16695,872
0.1686167,937
0.1702833,1036
0.17195,1033
0.1736167,1031
0.1752833,907
0.17695,965
0.1786167,667
0.1802833,826
0.18195,942
0.1836167,1004
0.1852833,1018
0.18695,895
0.1886167,1048
0.1902833,935
0.19195,1004
0.1936333,949
0.1952833,944
0.19695,952
0.1986167,961
0.2002833,1141
0.20195,1099
0.2036167,926
0.2052833,961
0.20695,958
0.2086167,955
0.2103,819
0.21195,867
0.2136333,914
0.2152833,944
0.2169667,973
0.2186167,979
0.2203,985
0.22195,1058
0.2236333,1131
0.2252833,1236
0.22695,1166
0.2286167,1334
0.2302833,1254
0.23195,1174
0.2336167,1389
0.2352833,1232
0.23695,1213
0.2386167,1370
0.2402833,1336
0.24195,1270
0.2436333,1205
0.2452833,1363
0.2469667,1217
0.2486167,1070
0.2502833,1238
0.25195,1251
0.2536167,1226
0.2552833,1200
0.25695,1311
0.2586167,1413
0.2602833,1399
0.26195,1168
0.2636333,1256
0.2653,1234
0.26695,1174
0.2686167,1225
0.2702833,1181
0.27195,1301
0.2736167,1296
0.2752833,1365
0.27695,1167
0.2786167,1146
0.2803,1186
0.28195,1265
0.2836333,1036
0.2852833,1306
0.28695,985
0.2886167,1223
0.2902833,1203
0.29195,1346
0.2936167,1320
0.2952833,1336
0.29695,1124
0.2986333,1207
0.3003,1346
0.30195,1009
0.3036167,1326
0.3052833,1289
0.30695,1218
0.3086167,1175
0.3102833,1070
0.31195,1400
0.3136167,1321
0.3153,1243
0.31695,1308
0.3186333,1374
0.3202833,1166
0.32195,1371
0.3236167,1510
0.3253,1279
0.32695,1391
0.3286167,1377
0.3302833,1322
0.33195,1360
0.3336333,1353
0.3353,1270
0.33695,1315
0.3386167,1360
0.3402833,1440
0.34195,1190
0.3436167,1516
0.3452833,1251
0.34695,1278
0.3486167,1277
0.3503,1265
0.35195,1253
0.3536333,1239
0.3553,1403
0.3569667,1466
0.3586167,1406
0.3602833,1503
0.3619667,1457
0.3636167,1494
0.3653,1530
0.36695,2492
0.3686333,2710
0.3703,3365
0.3719667,2564
0.3736333,2643
0.3752833,2871
0.3769667,2320
0.3786333,2732
0.3803,2608
0.38195,2550
0.3836167,2428
0.3853,2304
0.38695,1693
0.3886333,1395
0.3902833,1052
0.3919667,1107
0.3936167,866
0.3953,737
0.3969667,545
0.3986167,611
0.4002833,556
0.40195,573
0.4036333,390
0.4053,553
0.4069667,471
0.4086333,566
0.4103,591
0.4119667,628
0.4136333,617
0.4153,606
0.4169667,633
0.4186333,609
0.4203,490
0.4219667,638
0.4236333,565
0.4253,642
0.4269667,718
0.4286333,763
0.4303,670
0.4319667,945
0.4336333,888
0.4353,829
0.4369667,944
0.4386333,898
0.4403,959
0.4419667,890
0.4436333,1021
0.4453,1034
0.4469667,1048
0.4486333,1099
0.4503,1086
0.4519667,975
0.4536333,994
0.4553,1175
0.4569667,1240
0.4586333,1172
0.4603,1231
0.4619667,1291
0.4636333,1359
0.4653,1297
0.4669667,1213
0.4686333,1214
0.4703,1216
0.4719667,1534
0.4736333,1457
0.4753,1351
0.4769667,1274
0.4786333,1454
0.4803,1347
0.4819667,1077
0.4836333,1230
0.4853,1366
0.4869667,1383
0.4886333,1144
0.4903,1118
0.4919667,1081
0.4936333,1130
0.4953,1011
0.4969667,1010
0.4986333,1017
0.5003,987
0.5019667,990
0.5036333,964
0.5053,939
0.5069667,953
0.5086333,736
0.5103,988
0.5119666,967
0.5136333,984
0.5153,1105
0.5169666,749
0.5186333,1005
0.5203,983
0.5219667,799
0.5236334,850
0.5253,1114
0.5269667,1084
0.5286334,1124
0.5303,994
0.5319667,999
0.5336334,1154
0.5353,1017
0.5369667,1092
0.5386333,732
0.5403,903
0.5419667,878
0.5436333,816
0.5453,933
0.5469667,1015
0.5486333,1004
0.5503,993
0.5519667,983
0.5536333,1001
0.5553,779
0.5569667,893
0.5586333,867
0.5603,830
0.5619667,847
0.5636333,864
0.5653,859
0.5669667,976
0.5686333,999
0.5703,946
0.5719666,1012
0.5736333,1050
0.5753,1009
0.5769666,969
0.5786333,1054
0.5803,946
0.5819666,943
0.5836333,984
0.5853,805
0.5869667,891
0.5886334,853
0.5903,892
0.5919667,989
0.5936334,1114
0.5953,1079
0.5969667,1045
0.5986333,893
0.6003,873
0.6019667,899
0.6036333,905
0.6053,1090
0.6069667,1059
0.6086333,985
0.6103,991
0.6119667,1007
0.6136333,906
0.6153,805
0.6169667,1093
0.6186333,1127
0.6203,947
0.6219667,1070
0.6236333,1134
0.6253,1098
0.6269667,912
0.6286333,1050
0.6303,1189
0.6319667,953
0.6336333,1076
0.6353,1018
0.6369666,1062
0.6386333,1098
0.6403,1127
0.6419666,1074
0.6436333,1021
0.6453,1070
0.6469667,1119
0.6486334,1142
0.6503,1039
0.6519667,929
0.6536334,1202
0.6553,1188
0.6569667,1085
0.6586334,1120
0.6603,1111
0.6619667,1015
0.6636333,1251
0.6653,1185
0.6669667,1188
0.6686333,1176
0.6703,1483
0.6719667,1512
0.6736333,1541
0.6753,2435
0.6769667,2893
0.6786333,3673
0.6803,4641
0.6819667,6511
0.6836333,7859
0.6853,9656
0.6869667,11432
0.6886333,14204
0.6903,15512
0.6919667,18708
0.6936333,21136
0.6953,23884
0.6969666,26324
0.6986333,26264
0.7003,27200
0.7019666,27404
0.7036333,27264
0.7053,27124
0.7069666,26212
0.7086333,27188
0.7103,25972
0.7119667,24636
0.7136334,26920
0.7153,25212
0.7169667,26176
0.7186334,25160
0.7203,23880
0.7219667,23980
0.7236333,23072
0.7253,21896
0.7269667,21484
0.7286333,19284
0.7303,18660
0.7319667,16976
0.7336333,15000
0.7353,14284
0.7369667,11440
0.7386333,10356
0.7403,9500
0.7419667,7652
0.7436333,7601
0.7453,6591
0.7469667,6108
0.7486333,5217
0.7503,4522
0.7519667,4023
0.7536333,3703
0.7553,3588
0.7569667,2808
0.7586333,2842
0.7603,2662
0.7619666,2386
0.7636333,2253
0.7653,2105
0.7669666,2059
0.7686333,1967
0.7703,1791
0.7719667,2144
0.7736334,2222
0.7753,2178
0.7769667,2915
0.7786334,3792
0.7803,4672
0.7819667,6119
0.7836334,6600
0.7853,9052
0.7869667,11280
0.7886333,14804
0.7903,18100
0.7919667,19996
0.7936333,23548
0.7953,26768
0.7969667,29660
0.7986333,32568
0.8003,32716
0.8019667,35776
0.8036333,36192
0.8053,39904
0.8069667,40000
0.8086333,39408
0.8103,35968
0.8119667,35344
0.8136333,35744
0.8153,33824
0.8169667,32608
0.8186333,32992
0.8203,31688
0.8219666,32224
0.8236333,32192
0.8253,32556
0.8269666,31976
0.8286333,31392
0.8303,31212
0.8319666,30268
0.8336333,28560
0.8353,27948
0.8369667,25656
0.8386334,23900
0.8403,21608
0.8419667,19636
0.8436334,16628
0.8453,15796
0.8469667,14488
0.8486333,12972
0.8503,10680
0.8519667,10800
0.8536333,9316
0.8553,7960
0.8569667,7249
0.8586333,7067
0.8603,5601
0.8619667,5009
0.8636333,5404
0.8653,4099
0.8669667,3606
0.8686333,3568
0.8703,2914
0.8719667,3086
0.8736333,2999
0.8753,2575
0.8769667,2169
0.8786333,2352
0.8803,2338
0.8819667,2667
0.8836333,2865
0.8853,2855
0.8869666,2748
0.8886333,2894
0.8903,2807
0.8919666,2883
0.8936333,2534
0.8953,2582
0.8969667,2630
0.8986334,2611
0.9003,2591
0.9019667,2351
0.9036334,2579
0.9053,2515
0.9069667,2211
0.9086334,2201
0.9103,2351
0.9119667,2347
0.9136333,1999
0.9153,2343
0.9169667,1927
0.9186333,2214
0.9203,1971
0.9219667,2015
0.9236333,2071
0.9253,2090
0.9269667,2089
0.9286333,2110
0.9303,2130
0.9319667,1940
0.9336333,1875
0.9353,1981
0.9369667,1961
0.9386333,1941
0.9403,1910
0.9419667,1878
0.9436333,1947
0.9453,2050
0.9469666,2383
0.9486333,2486
0.9503,2634
0.9519666,3028
0.9536333,3081
0.9553,3500
0.9569666,4866
0.9586333,5805
0.9603,6674
0.9619667,8054
0.9636334,11856
0.9653,13192
0.9669667,15420
0.9686334,18904
0.9703,21580
0.9719667,24336
0.9736333,28836
0.9753,33392
0.9769667,36624
0.9786333,41392
0.9803,43072
0.9819667,50144
0.9836333,51216
0.9853,53184
0.9869667,55104
0.9886333,57520
0.9903,57264
0.9919667,58640
0.9936333,59296
0.9953,59744
0.9969667,58560
0.9986333,59024
1.0003,57808
1.001967,55968
1.003633,54512
1.0053,54688
1.006967,53792
1.008633,53760
1.0103,53776
1.011967,53296
1.013633,52912
1.0153,53376
1.016967,53200
1.018633,53040
1.0203,53584
1.021967,53120
1.023633,52672
1.0253,52624
1.026967,51552
1.028633,49232
1.0303,48800
1.031967,45312
1.033633,42816
1.0353,39136
1.036967,36448
1.038633,35216
1.0403,32032
1.041967,29092
1.043633,27296
1.0453,25084
1.046967,23700
1.048633,21548
1.0503,21908
1.051967,20580
1.053633,18612
1.0553,18392
1.056967,18056
1.058633,17844
1.0603,17652
1.061967,17836
1.063633,18020
1.0653,18268
1.066967,19144
1.068633,19840
1.0703,19900
1.071967,20252
1.073633,20588
1.0753,20724
1.076967,20864
1.078633,21320
1.0803,21776
1.081967,21484
1.083633,21672
1.0853,21040
1.086967,21552
1.088633,20816
1.0903,19712
1.091967,20632
1.093633,20168
1.0953,19476
1.096967,20100
1.098633,18860
1.1003,18684
1.101967,18652
1.103633,19120
1.1053,18188
1.106967,18556
1.108633,18116
1.1103,17316
1.111967,19088
1.113633,17296
1.1153,17408
1.116967,17084
1.118633,16064
1.1203,15004
1.121967,14976
1.123633,14612
1.1253,13520
1.126967,13192
1.128633,12380
1.1303,11364
1.131967,11292
1.133633,11016
1.1353,10228
1.136967,9580
1.138633,8560
1.1403,8560
1.141967,7931
1.143633,7228
1.1453,6500
1.146967,6308
1.148633,5715
1.1503,5186
1.151967,5152
1.153633,4656
1.1553,4466
1.156967,4245
1.158633,4171
1.1603,3823
1.161967,3593
1.163633,3509
1.1653,3349
1.166967,3135
1.168633,3298
1.1703,2928
1.171967,2564
1.173633,2708
1.1753,2518
1.176967,2660
1.178633,2889
1.1803,2325
1.181967,2562
1.183633,2285
1.1853,2378
1.186967,2471
1.188633,2301
1.1903,2490
1.191967,2931
1.193633,3087
1.1953,2793
1.196967,3289
1.198633,3125
