"SampleName","A2Rd2_01-15"
"Target Mass 1",
"Column Name","IA-3 (3um, 4.6X100)"
"Channel","QDa 1: SIR Ch2"
0.00195,757
0.003616667,554
0.005283333,800
0.00695,655
0.008616666,741
0.01028333,826
0.01195,994
0.01361667,1046
0.01528333,1002
0.01695,958
0.01861667,951
0.02028333,793
0.02195,971
0.02361667,892
0.02528333,776
0.02695,897
0.02861667,967
0.03028333,776
0.03195,927
0.03361667,899
0.03528333,687
0.03695,707
0.03861667,958
0.04028333,781
0.04195,902
0.04361667,1219
0.04528333,1259
0.04695,1079
0.04861667,890
0.05028334,1118
0.05195,940
0.05361667,878
0.05528333,923
0.05695,991
0.05861667,963
0.06028333,914
0.06195,893
0.06361666,815
0.06528334,853
0.06695,826
0.06861667,797
0.07028333,768
0.07195,835
0.07361667,902
0.07528333,791
0.07695,680
0.07861666,790
0.08028334,769
0.08195,914
0.08361667,897
0.08528333,882
0.08695,829
0.08861667,915
0.09028333,901
0.09195,887
0.09361666,927
0.09528334,849
0.09695,767
0.09861667,816
0.1002833,857
0.10195,899
0.1036167,907
0.1052833,875
0.10695,862
0.1086167,849
0.1102833,869
0.11195,889
0.1136167,915
0.1152833,700
0.11695,759
0.1186167,920
0.1202833,862
0.12195,776
0.1236167,819
0.1252833,827
0.12695,836
0.1286167,1015
0.1302833,1048
0.13195,822
0.1336167,950
0.1352833,651
0.13695,862
0.1386167,858
0.1402833,854
0.14195,916
0.1436167,745
0.1452833,962
0.14695,866
0.1486167,775
0.1502833,782
0.15195,776
0.1536167,770
0.1552833,916
0.15695,852
0.1586167,788
0.1602833,872
0.16195,916
0.1636167,754
0.1652833,812
0.16695,826
0.1686167,924
0.1702833,894
0.17195,913
0.1736167,945
0.1752833,750
0.17695,966
0.1786167,1041
0.1802833,842
0.18195,768
0.1836167,863
0.1852833,662
0.18695,928
0.1886167,809
0.1902833,730
0.19195,838
0.1936167,781
0.1952833,812
0.19695,844
0.1986167,838
0.2002833,1003
0.20195,1069
0.2036167,953
0.2052833,972
0.20695,756
0.2086167,895
0.2102833,1012
0.21195,1035
0.2136167,1098
0.2152833,1074
0.21695,1068
0.2186167,1034
0.2202833,928
0.22195,1028
0.2236167,1089
0.2252833,1152
0.22695,892
0.2286167,1322
0.2302833,1242
0.23195,1097
0.2336167,1181
0.2352833,1205
0.23695,1149
0.2386167,919
0.2402833,1167
0.24195,1247
0.2436167,1378
0.2452833,1182
0.24695,1133
0.2486167,1074
0.2502833,1158
0.25195,944
0.2536333,1097
0.2552833,1163
0.25695,1252
0.2586167,1022
0.2602833,1148
0.2619667,1125
0.2636167,1194
0.2652833,1139
0.26695,1084
0.2686167,1075
0.2702833,1131
0.27195,1187
0.2736167,968
0.2752833,1047
0.27695,1269
0.2786167,1162
0.2803,955
0.28195,884
0.2836167,1060
0.2852833,1135
0.28695,1111
0.2886167,962
0.2902833,1029
0.29195,877
0.2936167,1187
0.2952833,1155
0.29695,1216
0.2986333,1183
0.3003,1151
0.3019667,963
0.3036333,1278
0.3052833,1243
0.30695,1154
0.3086167,1188
0.3102833,1059
0.31195,1250
0.3136167,1361
0.3153,951
0.3169667,1278
0.3186167,1136
0.3202833,1333
0.32195,1417
0.3236167,1262
0.3252833,1171
0.32695,1438
0.3286167,1468
0.3302833,1374
0.33195,1533
0.3336333,1306
0.3353,1472
0.33695,1452
0.3386167,1468
0.3402833,1442
0.3419667,1416
0.3436167,1442
0.3453,1165
0.34695,1306
0.3486167,1322
0.3503,1413
0.3519667,1282
0.3536333,1461
0.3552833,1481
0.35695,1321
0.3586333,1469
0.3602833,1599
0.36195,3394
0.3636167,4784
0.3652833,5980
0.3669667,5983
0.3686333,5045
0.3703,4438
0.3719667,3804
0.3736333,2692
0.3753,2089
0.37695,1827
0.3786167,1731
0.3803,1203
0.38195,1201
0.3836333,1074
0.3853,1013
0.38695,710
0.3886333,773
0.3902833,642
0.3919667,858
0.3936167,797
0.3952833,817
0.39695,953
0.3986167,1088
0.4003,1148
0.4019667,1292
0.4036333,1229
0.4053,1250
0.4069667,1230
0.4086333,1147
0.4103,1065
0.4119667,1046
0.4136333,1018
0.4153,988
0.4169667,1063
0.4186333,948
0.4203,927
0.4219667,941
0.4236333,986
0.4253,1078
0.4269667,1170
0.4286333,1266
0.4303,1235
0.4319667,1205
0.4336333,1237
0.4353,1249
0.4369667,1260
0.4386333,1697
0.4403,1679
0.4419667,1459
0.4436333,1812
0.4453,1682
0.4469667,1791
0.4486333,1740
0.4503,1840
0.4519667,1843
0.4536333,2216
0.4553,2175
0.4569667,1967
0.4586333,2192
0.4603,1933
0.4619667,2213
0.4636333,2259
0.4653,2017
0.4669667,1922
0.4686333,2197
0.4703,1884
0.4719667,2014
0.4736333,1886
0.4753,1714
0.4769667,1399
0.4786333,1850
0.4803,1584
0.4819667,1802
0.4836333,1414
0.4853,1625
0.4869667,1823
0.4886333,1274
0.4903,1448
0.4919667,1558
0.4936333,1660
0.4953,1467
0.4969667,1407
0.4986333,1303
0.5003,1350
0.5019667,1206
0.5036333,1463
0.5053,979
0.5069667,1300
0.5086333,963
0.5103,1304
0.5119666,1129
0.5136333,1314
0.5153,1282
0.5169666,1040
0.5186333,919
0.5203,1180
0.5219667,1304
0.5236334,1136
0.5253,1253
0.5269667,1160
0.5286334,1140
0.5303,1164
0.5319667,1208
0.5336334,1253
0.5353,1244
0.5369667,1235
0.5386333,1272
0.5403,1309
0.5419667,1159
0.5436333,1366
0.5453,1029
0.5469667,1165
0.5486333,984
0.5503,885
0.5519667,1168
0.5536333,1047
0.5553,926
0.5569667,938
0.5586333,1056
0.5603,1144
0.5619667,1145
0.5636333,879
0.5653,913
0.5669667,943
0.5686333,1133
0.5703,1082
0.5719666,995
0.5736333,1139
0.5753,1139
0.5769666,1203
0.5786333,840
0.5803,1041
0.5819666,1161
0.5836333,953
0.5853,984
0.5869667,1015
0.5886334,1088
0.5903,1090
0.5919667,1104
0.5936334,1118
0.5953,1030
0.5969667,942
0.5986333,1042
0.6003,1109
0.6019667,1115
0.6036333,1161
0.6053,865
0.6069667,1270
0.6086333,1221
0.6103,1099
0.6119667,1091
0.6136333,1097
0.6153,1154
0.6169667,1015
0.6186333,1036
0.6203,1165
0.6219667,1120
0.6236333,941
0.6253,1220
0.6269667,984
0.6286333,1182
0.6303,839
0.6319667,1023
0.6336333,1088
0.6353,891
0.6369666,929
0.6386333,799
0.6403,829
0.6419666,859
0.6436333,921
0.6453,916
0.6469667,911
0.6486334,852
0.6503,908
0.6519667,818
0.6536334,890
0.6553,916
0.6569667,941
0.6586334,946
0.6603,951
0.6619667,995
0.6636333,1038
0.6653,731
0.6669667,1101
0.6686333,1121
0.6703,1176
0.6719667,1048
0.6736333,1021
0.6753,1001
0.6769667,909
0.6786333,871
0.6803,788
0.6819667,905
0.6836333,848
0.6853,865
0.6869667,918
0.6886333,970
0.6903,935
0.6919667,901
0.6936333,900
0.6953,899
0.6969666,952
0.6986333,937
0.7003,923
0.7019666,929
0.7036333,892
0.7053,895
0.7069666,898
0.7086333,1038
0.7103,1177
0.7119667,1203
0.7136334,928
0.7153,1157
0.7169667,1094
0.7186334,1065
0.7203,881
0.7219667,938
0.7236333,930
0.7253,913
0.7269667,980
0.7286333,1004
0.7303,967
0.7319667,884
0.7336333,759
0.7353,1025
0.7369667,808
0.7386333,1191
0.7403,999
0.7419667,1030
0.7436333,779
0.7453,895
0.7469667,1055
0.7486333,1098
0.7503,913
0.7519667,882
0.7536333,857
0.7553,811
0.7569667,842
0.7586333,903
0.7603,864
0.7619666,825
0.7636333,858
0.7653,715
0.7669666,1056
0.7686333,971
0.7703,795
0.7719667,823
0.7736334,880
0.7753,928
0.7769667,631
0.7786334,773
0.7803,850
0.7819667,844
0.7836334,900
0.7853,931
0.7869667,962
0.7886333,976
0.7903,894
0.7919667,832
0.7936333,934
0.7953,926
0.7969667,917
0.7986333,809
0.8003,1065
0.8019667,996
0.8036333,862
0.8053,970
0.8069667,1101
0.8086333,1025
0.8103,1144
0.8119667,1095
0.8136333,906
0.8153,824
0.8169667,934
0.8186333,974
0.8203,1163
0.8219666,1063
0.8236333,990
0.8253,1072
0.8269666,1003
0.8286333,973
0.8303,932
0.8319666,1010
0.8336333,920
0.8353,951
0.8369667,938
0.8386334,914
0.8403,890
0.8419667,852
0.8436334,994
0.8453,1002
0.8469667,847
0.8486333,859
0.8503,944
0.8519667,766
0.8536333,851
0.8553,936
0.8569667,924
0.8586333,984
0.8603,922
0.8619667,859
0.8636333,1061
0.8653,979
0.8669667,1152
0.8686333,1275
0.8703,1228
0.8719667,1566
0.8736333,1731
0.8753,1483
0.8769667,1583
0.8786333,1630
0.8803,1368
0.8819667,1477
0.8836333,1175
0.8853,1393
0.8869666,1159
0.8886333,1394
0.8903,1447
0.8919666,1439
0.8936333,1431
0.8953,1384
0.8969667,1355
0.8986334,1397
0.9003,1363
0.9019667,1437
0.9036334,1277
0.9053,1340
0.9069667,1391
0.9086334,1374
0.9103,1407
0.9119667,1386
0.9136333,1364
0.9153,1521
0.9169667,1377
0.9186333,1234
0.9203,1328
0.9219667,1421
0.9236333,1550
0.9253,1489
0.9269667,1280
0.9286333,1282
0.9303,1312
0.9319667,1333
0.9336333,1333
0.9353,1333
0.9369667,1402
0.9386333,1472
0.9403,1483
0.9419667,1594
0.9436333,1282
0.9453,1394
0.9469666,1266
0.9486333,1364
0.9503,1511
0.9519666,1181
0.9536333,1293
0.9553,1234
0.9569666,1156
0.9586333,1064
0.9603,1071
0.9619667,1098
0.9636334,1040
0.9653,1189
0.9669667,1169
0.9686334,1150
0.9703,949
0.9719667,1049
0.9736333,979
0.9753,1040
0.9769667,937
0.9786333,938
0.9803,776
0.9819667,969
0.9836333,1023
0.9853,1018
0.9869667,952
0.9886333,830
0.9903,907
0.9919667,899
0.9936333,885
0.9953,871
0.9969667,836
0.9986333,802
1.0003,981
1.001967,1044
1.003633,746
1.0053,929
1.006967,1189
1.008633,996
1.0103,1079
1.011967,1006
1.013633,1057
1.0153,874
1.016967,998
1.018633,1095
1.0203,1075
1.021967,904
1.023633,757
1.0253,973
1.026967,932
1.028633,890
1.0303,886
1.031967,921
1.033633,911
1.0353,901
1.036967,934
1.038633,945
1.0403,956
1.041967,1018
1.043633,710
1.0453,1015
1.046967,1005
1.048633,1079
1.0503,1018
1.051967,857
1.053633,877
1.0553,964
1.056967,815
1.058633,983
1.0603,982
1.061967,980
1.063633,970
1.0653,857
1.066967,994
1.068633,1043
1.0703,966
1.071967,899
1.073633,943
1.0753,891
1.076967,1043
1.078633,1032
1.0803,878
1.081967,829
1.083633,916
1.0853,889
1.086967,928
1.088633,990
1.0903,1067
1.091967,804
1.093633,710
1.0953,1061
1.096967,878
1.098633,926
1.1003,907
1.101967,929
1.103633,932
1.1053,935
1.106967,847
1.108633,998
1.1103,847
1.111967,784
1.113633,936
1.1153,1022
1.116967,966
1.118633,888
1.1203,979
1.121967,884
1.123633,996
1.1253,891
1.126967,843
1.128633,794
1.1303,803
1.131967,832
1.133633,860
1.1353,1060
1.136967,955
1.138633,849
1.1403,1027
1.141967,1051
1.143633,913
1.1453,806
1.146967,1004
1.148633,983
1.1503,982
1.151967,908
1.153633,712
1.1553,946
1.156967,1006
1.158633,804
1.1603,821
1.161967,969
1.163633,852
1.1653,801
1.166967,878
1.168633,952
1.1703,1010
1.171967,1042
1.173633,1024
1.1753,1007
1.176967,782
1.178633,824
1.1803,949
1.181967,919
1.183633,911
1.1853,852
1.186967,842
1.188633,1064
1.1903,1043
1.191967,1028
1.193633,746
1.1953,827
1.196967,942
1.198633,902
