"SampleName","A2Rd2_01-11"
"Target Mass 1",
"Column Name","IA-3 (3um, 4.6X100)"
"Channel","QDa 1: SIR Ch1"
0.00195,497
0.003616667,485
0.005283333,489
0.00695,438
0.008616666,522
0.01028333,515
0.01195,507
0.01361667,514
0.01528333,522
0.01695,424
0.01861667,500
0.02028333,532
0.02195,578
0.02361667,540
0.02528333,486
0.02695,579
0.02861667,530
0.03028333,627
0.03195,585
0.03361667,478
0.03528333,503
0.03695,554
0.03861667,368
0.04028333,574
0.04195,556
0.04361667,470
0.04528333,482
0.04695,479
0.04861667,546
0.05028334,554
0.05195,563
0.05361667,456
0.05528333,594
0.05695,537
0.05861667,610
0.06028333,504
0.06195,584
0.06361666,617
0.06528334,659
0.06695,523
0.06861667,361
0.07028333,560
0.07195,479
0.07361667,569
0.07528333,615
0.07695,442
0.07861666,509
0.08028334,402
0.08195,544
0.08361667,516
0.08528333,583
0.08695,533
0.08861667,567
0.09028333,403
0.09195,436
0.09361666,595
0.09528334,515
0.09695,613
0.09861667,687
0.1002833,687
0.10195,419
0.1036167,632
0.1052833,545
0.10695,496
0.1086167,654
0.1102833,616
0.11195,579
0.1136167,466
0.1152833,553
0.11695,487
0.1186167,648
0.1202833,657
0.12195,604
0.1236167,513
0.1252833,400
0.12695,434
0.1286167,464
0.1302833,592
0.13195,548
0.1336167,615
0.1352833,407
0.13695,518
0.1386167,601
0.1402833,622
0.14195,584
0.1436167,655
0.1452833,637
0.14695,584
0.1486167,428
0.1502833,508
0.15195,594
0.1536167,451
0.1552833,540
0.15695,538
0.1586167,508
0.1602833,626
0.16195,583
0.1636167,540
0.1652833,592
0.16695,414
0.1686167,565
0.1702833,540
0.17195,469
0.1736167,415
0.1752833,524
0.17695,451
0.1786167,399
0.1802833,480
0.18195,509
0.1836167,486
0.1852833,381
0.18695,542
0.1886167,523
0.1902833,556
0.19195,499
0.1936167,437
0.1952833,444
0.19695,552
0.1986167,536
0.2002833,498
0.20195,460
0.2036167,555
0.2052833,559
0.20695,493
0.2086167,484
0.2102833,528
0.21195,572
0.2136167,395
0.2152833,490
0.21695,388
0.2186167,464
0.2202833,586
0.22195,541
0.2236167,451
0.2252833,617
0.22695,529
0.2286167,632
0.2302833,447
0.23195,509
0.2336167,456
0.2352833,389
0.23695,444
0.2386167,556
0.2402833,568
0.24195,622
0.2436167,469
0.2453,680
0.24695,408
0.2486167,604
0.2502833,506
0.25195,464
0.2536167,534
0.2552833,522
0.25695,516
0.2586167,411
0.2602833,572
0.26195,582
0.2636333,445
0.2652833,440
0.26695,590
0.2686167,646
0.2702833,544
0.27195,442
0.2736167,552
0.2752833,491
0.27695,459
0.2786167,642
0.2803,660
0.28195,537
0.2836167,539
0.2852833,574
0.28695,566
0.2886167,413
0.2902833,675
0.29195,350
0.2936167,488
0.2953,602
0.29695,562
0.2986333,603
0.3002833,592
0.30195,580
0.3036167,551
0.3052833,520
0.30695,570
0.3086167,561
0.3102833,552
0.31195,441
0.3136167,553
0.3153,641
0.3169667,567
0.3186167,445
0.3202833,488
0.32195,550
0.3236167,570
0.3253,475
0.32695,608
0.3286167,589
0.3302833,676
0.33195,616
0.3336333,502
0.3352833,455
0.33695,552
0.3386333,501
0.3402833,490
0.3419667,461
0.3436167,433
0.3453,447
0.34695,462
0.3486167,468
0.3503,474
0.35195,498
0.3536333,521
0.3552833,502
0.3569667,482
0.3586333,638
0.3602833,636
0.36195,1034
0.3636167,1724
0.3652833,3921
0.3669667,6201
0.3686333,8099
0.3703,10100
0.3719667,7294
0.3736333,7417
0.3753,6459
0.37695,4854
0.3786167,4211
0.3802833,3917
0.38195,2955
0.3836333,2369
0.3853,2033
0.3869667,1937
0.3886333,1745
0.3903,1597
0.3919667,1431
0.3936167,1797
0.3953,1660
0.3969667,1707
0.3986333,1702
0.4003,1556
0.4019667,1303
0.4036333,1455
0.4053,1359
0.4069667,1497
0.4086333,1500
0.4103,1504
0.4119667,1544
0.4136333,1585
0.4153,1662
0.4169667,1721
0.4186333,1780
0.4203,1776
0.4219667,1951
0.4236333,1406
0.4253,1793
0.4269667,1416
0.4286333,1337
0.4303,1767
0.4319667,1583
0.4336333,1694
0.4353,1951
0.4369667,2724
0.4386333,3387
0.4403,4473
0.4419667,5740
0.4436333,7357
0.4453,9820
0.4469667,12928
0.4486333,17996
0.4503,24512
0.4519667,29988
0.4536333,44224
0.4553,65696
0.4569667,91376
0.4586333,128816
0.4603,168704
0.4619667,215488
0.4636333,268224
0.4653,323776
0.4669667,372416
0.4686333,409536
0.4703,419904
0.4719667,428992
0.4736333,405824
0.4753,386496
0.4769667,343808
0.4786333,298880
0.4803,255552
0.4819667,206016
0.4836333,169088
0.4853,135936
0.4869667,113584
0.4886333,89744
0.4903,71520
0.4919667,59280
0.4936333,46880
0.4953,40352
0.4969667,32208
0.4986333,26236
0.5003,21216
0.5019667,19204
0.5036333,16688
0.5053,14392
0.5069667,11864
0.5086333,11032
0.5103,8832
0.5119666,7726
0.5136333,7177
0.5153,6845
0.5169666,6532
0.5186333,5731
0.5203,5589
0.5219667,4884
0.5236334,4626
0.5253,4440
0.5269667,3958
0.5286334,3971
0.5303,3688
0.5319667,3413
0.5336334,3802
0.5353,3312
0.5369667,3088
0.5386333,3270
0.5403,3014
0.5419667,2874
0.5436333,2490
0.5453,2805
0.5469667,2498
0.5486333,2463
0.5503,2374
0.5519667,2433
0.5536333,2260
0.5553,2248
0.5569667,2105
0.5586333,1969
0.5603,1937
0.5619667,2052
0.5636333,1972
0.5653,1834
0.5669667,1545
0.5686333,2098
0.5703,1736
0.5719666,1540
0.5736333,1722
0.5753,1500
0.5769666,1509
0.5786333,1110
0.5803,1368
0.5819666,1528
0.5836333,1390
0.5853,1488
0.5869667,1247
0.5886334,1475
0.5903,1252
0.5919667,1262
0.5936334,1262
0.5953,1262
0.5969667,1202
0.5986333,1391
0.6003,1421
0.6019667,1390
0.6036333,1359
0.6053,1362
0.6069667,1421
0.6086333,1480
0.6103,1463
0.6119667,1224
0.6136333,1528
0.6153,1505
0.6169667,1297
0.6186333,1559
0.6203,1383
0.6219667,1249
0.6236333,1133
0.6253,1172
0.6269667,1050
0.6286333,1095
0.6303,1091
0.6319667,1088
0.6336333,932
0.6353,1136
0.6369666,1052
0.6386333,1058
0.6403,1112
0.6419666,813
0.6436333,872
0.6453,743
0.6469667,879
0.6486334,766
0.6503,895
0.6519667,881
0.6536334,961
0.6553,899
0.6569667,838
0.6586334,890
0.6603,869
0.6619667,849
0.6636333,946
0.6653,1042
0.6669667,976
0.6686333,729
0.6703,733
0.6719667,739
0.6736333,722
0.6753,702
0.6769667,705
0.6786333,709
0.6803,556
0.6819667,762
0.6836333,708
0.6853,760
0.6869667,693
0.6886333,627
0.6903,846
0.6919667,810
0.6936333,473
0.6953,757
0.6969666,950
0.6986333,696
0.7003,668
0.7019666,743
0.7036333,686
0.7053,686
0.7069666,685
0.7086333,731
0.7103,737
0.7119667,704
0.7136334,634
0.7153,709
0.7169667,867
0.7186334,825
0.7203,621
0.7219667,629
0.7236333,526
0.7253,709
0.7269667,652
0.7286333,595
0.7303,681
0.7319667,659
0.7336333,633
0.7353,608
0.7369667,633
0.7386333,623
0.7403,613
0.7419667,659
0.7436333,626
0.7453,592
0.7469667,669
0.7486333,675
0.7503,682
0.7519667,509
0.7536333,584
0.7553,721
0.7569667,564
0.7586333,634
0.7603,612
0.7619666,590
0.7636333,591
0.7653,626
0.7669666,567
0.7686333,507
0.7703,633
0.7719667,656
0.7736334,626
0.7753,595
0.7769667,621
0.7786334,840
0.7803,806
0.7819667,594
0.7836334,696
0.7853,616
0.7869667,407
0.7886333,585
0.7903,700
0.7919667,745
0.7936333,519
0.7953,686
0.7969667,637
0.7986333,715
0.8003,719
0.8019667,565
0.8036333,462
0.8053,568
0.8069667,494
0.8086333,615
0.8103,685
0.8119667,638
0.8136333,590
0.8153,501
0.8169667,669
0.8186333,558
0.8203,689
0.8219666,639
0.8236333,649
0.8253,516
0.8269666,488
0.8286333,498
0.8303,484
0.8319666,612
0.8336333,609
0.8353,687
0.8369667,644
0.8386334,564
0.8403,524
0.8419667,596
0.8436334,622
0.8453,635
0.8469667,615
0.8486333,666
0.8503,559
0.8519667,675
0.8536333,649
0.8553,684
0.8569667,649
0.8586333,603
0.8603,521
0.8619667,525
0.8636333,575
0.8653,530
0.8669667,485
0.8686333,517
0.8703,533
0.8719667,648
0.8736333,655
0.8753,748
0.8769667,765
0.8786333,746
0.8803,727
0.8819667,1191
0.8836333,1393
0.8853,1686
0.8869666,2010
0.8886333,2219
0.8903,1639
0.8919666,2147
0.8936333,2421
0.8953,1951
0.8969667,2351
0.8986334,2128
0.9003,2410
0.9019667,1881
0.9036334,2347
0.9053,2118
0.9069667,2016
0.9086334,2146
0.9103,2360
0.9119667,2406
0.9136333,2256
0.9153,2078
0.9169667,2291
0.9186333,2233
0.9203,2242
0.9219667,2456
0.9236333,1934
0.9253,2221
0.9269667,1909
0.9286333,2072
0.9303,2073
0.9319667,2075
0.9336333,1952
0.9353,1830
0.9369667,1770
0.9386333,1784
0.9403,1694
0.9419667,1772
0.9436333,1686
0.9453,1810
0.9469666,1828
0.9486333,1689
0.9503,1698
0.9519666,1205
0.9536333,1063
0.9553,1373
0.9569666,1215
0.9586333,1219
0.9603,1087
0.9619667,1030
0.9636334,1286
0.9653,1018
0.9669667,1200
0.9686334,870
0.9703,784
0.9719667,821
0.9736333,685
0.9753,647
0.9769667,646
0.9786333,614
0.9803,612
0.9819667,610
0.9836333,572
0.9853,509
0.9869667,472
0.9886333,410
0.9903,532
0.9919667,472
0.9936333,493
0.9953,514
0.9969667,602
0.9986333,618
1.0003,504
1.001967,453
1.003633,503
1.0053,508
1.006967,513
1.008633,524
1.0103,458
1.011967,475
1.013633,430
1.0153,504
1.016967,486
1.018633,526
1.0203,462
1.021967,574
1.023633,586
1.0253,456
1.026967,404
1.028633,445
1.0303,484
1.031967,490
1.033633,490
1.0353,490
1.036967,400
1.038633,431
1.0403,425
1.041967,577
1.043633,547
1.0453,493
1.046967,349
1.048633,542
1.0503,418
1.051967,429
1.053633,480
1.0553,531
1.056967,511
1.058633,485
1.0603,460
1.061967,439
1.063633,511
1.0653,494
1.066967,476
1.068633,476
1.0703,477
1.071967,434
1.073633,448
1.0753,535
1.076967,634
1.078633,657
1.0803,523
1.081967,590
1.083633,593
1.0853,477
1.086967,560
1.088633,493
1.0903,545
1.091967,450
1.093633,524
1.0953,405
1.096967,464
1.098633,523
1.1003,575
1.101967,578
1.103633,549
1.1053,520
1.106967,456
1.108633,498
1.1103,489
1.111967,535
1.113633,515
1.1153,495
1.116967,539
1.118633,571
1.1203,444
1.121967,471
1.123633,512
1.1253,507
1.126967,456
1.128633,406
1.1303,414
1.131967,422
1.133633,464
1.1353,507
1.136967,524
1.138633,541
1.1403,511
1.141967,341
1.143633,421
1.1453,565
1.146967,712
1.148633,574
1.1503,573
1.151967,502
1.153633,445
1.1553,509
1.156967,533
1.158633,557
1.1603,500
1.161967,436
1.163633,534
1.1653,525
1.166967,526
1.168633,525
1.1703,523
1.171967,540
1.173633,512
1.1753,484
1.176967,487
1.178633,489
1.1803,479
1.181967,469
1.183633,492
1.1853,515
1.186967,512
1.188633,513
1.1903,516
1.191967,513
1.193633,511
1.1953,549
1.196967,529
1.198633,510
