"SampleName","A2Rd2_01-15"
"Target Mass 1",
"Column Name","IA-3 (3um, 4.6X100)"
"Channel","QDa 1: SIR Ch1"
0.00195,442
0.003616667,680
0.005283333,699
0.00695,750
0.008616666,756
0.01028333,762
0.01195,721
0.01361667,703
0.01528333,709
0.01695,679
0.01861667,699
0.02028333,718
0.02195,754
0.02361667,744
0.02528333,524
0.02695,800
0.02861667,685
0.03028333,623
0.03195,665
0.03361667,682
0.03528333,700
0.03695,707
0.03861667,779
0.04028333,765
0.04195,627
0.04361667,621
0.04528333,778
0.04695,773
0.04861667,649
0.05028334,609
0.05195,691
0.05361667,677
0.05528333,662
0.05695,579
0.05861667,750
0.06028333,719
0.06195,545
0.06361666,660
0.06528334,753
0.06695,625
0.06861667,640
0.07028333,601
0.07195,538
0.07361667,650
0.07528333,761
0.07695,840
0.07861666,629
0.08028334,856
0.08195,591
0.08361667,882
0.08528333,671
0.08695,709
0.08861667,651
0.09028333,682
0.09195,607
0.09361666,623
0.09528334,644
0.09695,670
0.09861667,551
0.1002833,739
0.10195,724
0.1036167,708
0.1052833,598
0.10695,630
0.1086167,661
0.1102833,680
0.11195,699
0.1136167,696
0.1152833,647
0.11695,598
0.1186167,607
0.1202833,811
0.12195,863
0.1236167,690
0.1252833,657
0.12695,629
0.1286167,576
0.1302833,731
0.13195,742
0.1336167,686
0.1352833,761
0.13695,518
0.1386167,803
0.1402833,622
0.14195,517
0.1436167,677
0.1452833,760
0.14695,673
0.1486167,675
0.1502833,677
0.15195,686
0.1536167,661
0.1552833,636
0.15695,659
0.1586167,683
0.1602833,678
0.16195,680
0.1636167,682
0.1652833,738
0.16695,747
0.1686167,753
0.1702833,691
0.17195,656
0.1736167,762
0.1752833,780
0.17695,639
0.1786167,594
0.1802833,618
0.18195,519
0.1836167,618
0.1852833,587
0.18695,557
0.1886167,583
0.1902833,615
0.19195,646
0.1936167,473
0.1952833,665
0.19695,659
0.1986167,672
0.2002833,755
0.20195,559
0.2036167,800
0.2052833,686
0.20695,809
0.2086167,715
0.2102833,659
0.21195,697
0.2136167,661
0.2152833,544
0.21695,601
0.2186167,652
0.2202833,464
0.22195,512
0.2236167,611
0.2252833,634
0.22695,656
0.2286167,567
0.2302833,641
0.23195,665
0.2336167,690
0.2352833,624
0.23695,602
0.2386167,580
0.2402833,548
0.24195,613
0.2436167,589
0.2452833,609
0.24695,629
0.2486167,669
0.2502833,624
0.25195,579
0.2536333,570
0.2552833,596
0.25695,622
0.2586167,622
0.2602833,622
0.2619667,641
0.2636167,660
0.2652833,549
0.26695,639
0.2686167,640
0.2702833,704
0.27195,656
0.2736167,592
0.2752833,717
0.27695,642
0.2786167,566
0.2803,600
0.28195,662
0.2836167,724
0.2852833,686
0.28695,735
0.2886167,652
0.2902833,570
0.29195,582
0.2936167,593
0.2952833,754
0.29695,800
0.2986333,784
0.3003,701
0.3019667,678
0.3036333,807
0.3052833,483
0.30695,776
0.3086167,808
0.3102833,789
0.31195,546
0.3136167,678
0.3153,677
0.3169667,657
0.3186167,640
0.3202833,624
0.32195,638
0.3236167,652
0.3252833,667
0.32695,611
0.3286167,679
0.3302833,562
0.33195,714
0.3336333,773
0.3353,618
0.33695,674
0.3386167,609
0.3402833,622
0.3419667,516
0.3436167,670
0.3453,603
0.34695,620
0.3486167,637
0.3503,588
0.3519667,535
0.3536333,481
0.3552833,558
0.35695,635
0.3586333,867
0.3602833,1132
0.36195,1458
0.3636167,3773
0.3652833,6291
0.3669667,7282
0.3686333,7473
0.3703,7022
0.3719667,5999
0.3736333,5111
0.3753,3851
0.37695,3474
0.3786167,3531
0.3803,3018
0.38195,2538
0.3836333,2326
0.3853,2139
0.38695,2077
0.3886333,1900
0.3902833,1963
0.3919667,1776
0.3936167,1861
0.3952833,1946
0.39695,1760
0.3986167,2057
0.4003,2062
0.4019667,2087
0.4036333,2135
0.4053,2183
0.4069667,1869
0.4086333,2127
0.4103,1808
0.4119667,2022
0.4136333,2022
0.4153,2045
0.4169667,1723
0.4186333,1573
0.4203,1904
0.4219667,1834
0.4236333,1771
0.4253,1504
0.4269667,1490
0.4286333,1060
0.4303,1341
0.4319667,1276
0.4336333,1409
0.4353,1191
0.4369667,1175
0.4386333,1503
0.4403,1623
0.4419667,2197
0.4436333,3031
0.4453,3931
0.4469667,7003
0.4486333,11864
0.4503,19104
0.4519667,30860
0.4536333,52864
0.4553,78624
0.4569667,118720
0.4586333,166976
0.4603,221312
0.4619667,275136
0.4636333,338304
0.4653,386176
0.4669667,423168
0.4686333,450432
0.4703,450816
0.4719667,426944
0.4736333,398208
0.4753,353536
0.4769667,297536
0.4786333,252992
0.4803,210944
0.4819667,166912
0.4836333,136128
0.4853,108208
0.4869667,88400
0.4886333,71184
0.4903,57984
0.4919667,46544
0.4936333,38592
0.4953,33600
0.4969667,27692
0.4986333,23180
0.5003,19140
0.5019667,16388
0.5036333,15248
0.5053,12560
0.5069667,10816
0.5086333,9304
0.5103,8404
0.5119666,6548
0.5136333,7221
0.5153,6442
0.5169666,6178
0.5186333,5635
0.5203,5397
0.5219667,5291
0.5236334,5161
0.5253,4399
0.5269667,4593
0.5286334,4012
0.5303,4179
0.5319667,4025
0.5336334,3858
0.5353,3560
0.5369667,3914
0.5386333,3605
0.5403,3413
0.5419667,2996
0.5436333,2520
0.5453,3430
0.5469667,2818
0.5486333,2525
0.5503,2990
0.5519667,2508
0.5536333,2928
0.5553,2422
0.5569667,2014
0.5586333,2292
0.5603,2041
0.5619667,1933
0.5636333,1824
0.5653,2121
0.5669667,2030
0.5686333,1939
0.5703,1912
0.5719666,1884
0.5736333,1731
0.5753,1838
0.5769666,1945
0.5786333,1910
0.5803,1931
0.5819666,2031
0.5836333,2055
0.5853,2080
0.5869667,1948
0.5886334,1855
0.5903,1797
0.5919667,1993
0.5936334,1941
0.5953,1809
0.5969667,2082
0.5986333,1979
0.6003,1923
0.6019667,2132
0.6036333,1870
0.6053,1619
0.6069667,1761
0.6086333,1785
0.6103,1762
0.6119667,1742
0.6136333,1721
0.6153,1729
0.6169667,1764
0.6186333,1667
0.6203,1569
0.6219667,1750
0.6236333,1761
0.6253,1562
0.6269667,1422
0.6286333,1441
0.6303,1410
0.6319667,1319
0.6336333,1326
0.6353,1334
0.6369666,1204
0.6386333,1411
0.6403,1380
0.6419666,1400
0.6436333,1414
0.6453,1218
0.6469667,1323
0.6486334,1430
0.6503,1256
0.6519667,1127
0.6536334,1196
0.6553,1085
0.6569667,1112
0.6586334,1139
0.6603,1140
0.6619667,1142
0.6636333,1083
0.6653,1025
0.6669667,1325
0.6686333,1244
0.6703,1197
0.6719667,1166
0.6736333,1171
0.6753,1034
0.6769667,1160
0.6786333,1025
0.6803,1187
0.6819667,946
0.6836333,1176
0.6853,1160
0.6869667,1193
0.6886333,1216
0.6903,1267
0.6919667,1240
0.6936333,1294
0.6953,953
0.6969666,1358
0.6986333,1326
0.7003,1137
0.7019666,978
0.7036333,945
0.7053,1046
0.7069666,922
0.7086333,990
0.7103,1057
0.7119667,993
0.7136334,1098
0.7153,1123
0.7169667,1019
0.7186334,988
0.7203,1095
0.7219667,939
0.7236333,1062
0.7253,1127
0.7269667,1117
0.7286333,1071
0.7303,1150
0.7319667,1155
0.7336333,1066
0.7353,1007
0.7369667,1084
0.7386333,1047
0.7403,1010
0.7419667,1060
0.7436333,1059
0.7453,1057
0.7469667,1039
0.7486333,1021
0.7503,1067
0.7519667,969
0.7536333,905
0.7553,1037
0.7569667,810
0.7586333,1141
0.7603,1134
0.7619666,1164
0.7636333,1177
0.7653,1189
0.7669666,1124
0.7686333,1112
0.7703,1183
0.7719667,1195
0.7736334,1216
0.7753,1219
0.7769667,928
0.7786334,1155
0.7803,1228
0.7819667,930
0.7836334,1043
0.7853,1008
0.7869667,982
0.7886333,909
0.7903,888
0.7919667,869
0.7936333,1029
0.7953,1075
0.7969667,917
0.7986333,851
0.8003,948
0.8019667,1045
0.8036333,1129
0.8053,1021
0.8069667,1009
0.8086333,997
0.8103,976
0.8119667,955
0.8136333,954
0.8153,1090
0.8169667,1090
0.8186333,1162
0.8203,986
0.8219666,1201
0.8236333,1298
0.8253,1145
0.8269666,1309
0.8286333,1214
0.8303,961
0.8319666,1249
0.8336333,1374
0.8353,1166
0.8369667,1133
0.8386334,895
0.8403,1202
0.8419667,1148
0.8436334,1093
0.8453,1256
0.8469667,1053
0.8486333,1115
0.8503,1099
0.8519667,967
0.8536333,1056
0.8553,1012
0.8569667,937
0.8586333,1035
0.8603,1002
0.8619667,911
0.8636333,1063
0.8653,1439
0.8669667,1757
0.8686333,2339
0.8703,2941
0.8719667,3654
0.8736333,4872
0.8753,5235
0.8769667,4746
0.8786333,5133
0.8803,4480
0.8819667,4624
0.8836333,4847
0.8853,4834
0.8869666,4821
0.8886333,4831
0.8903,4712
0.8919666,4830
0.8936333,4716
0.8953,4527
0.8969667,4759
0.8986334,4735
0.9003,4542
0.9019667,4695
0.9036334,4605
0.9053,4516
0.9069667,4786
0.9086334,4787
0.9103,4789
0.9119667,4519
0.9136333,4820
0.9153,4304
0.9169667,4748
0.9186333,4446
0.9203,4227
0.9219667,4442
0.9236333,4235
0.9253,4372
0.9269667,3563
0.9286333,4053
0.9303,3850
0.9319667,3503
0.9336333,3454
0.9353,3652
0.9369667,3495
0.9386333,3250
0.9403,3371
0.9419667,3045
0.9436333,2921
0.9453,2763
0.9469666,2642
0.9486333,2170
0.9503,2433
0.9519666,2207
0.9536333,1960
0.9553,2152
0.9569666,1624
0.9586333,1610
0.9603,1726
0.9619667,1367
0.9636334,1354
0.9653,1057
0.9669667,1032
0.9686334,1189
0.9703,1046
0.9719667,1062
0.9736333,1078
0.9753,1012
0.9769667,1024
0.9786333,946
0.9803,1028
0.9819667,751
0.9836333,590
0.9853,903
0.9869667,851
0.9886333,708
0.9903,634
0.9919667,702
0.9936333,621
0.9953,739
0.9969667,699
0.9986333,660
1.0003,699
1.001967,698
1.003633,698
1.0053,646
1.006967,697
1.008633,777
1.0103,809
1.011967,845
1.013633,664
1.0153,882
1.016967,901
1.018633,947
1.0203,717
1.021967,650
1.023633,701
1.0253,817
1.026967,885
1.028633,819
1.0303,624
1.031967,851
1.033633,650
1.0353,770
1.036967,832
1.038633,701
1.0403,651
1.041967,748
1.043633,764
1.0453,676
1.046967,682
1.048633,687
1.0503,718
1.051967,749
1.053633,786
1.0553,823
1.056967,780
1.058633,738
1.0603,602
1.061967,871
1.063633,944
1.0653,649
1.066967,934
1.068633,870
1.0703,756
1.071967,697
1.073633,779
1.0753,672
1.076967,832
1.078633,787
1.0803,743
1.081967,685
1.083633,813
1.0853,770
1.086967,766
1.088633,763
1.0903,760
1.091967,731
1.093633,728
1.0953,725
1.096967,815
1.098633,587
1.1003,946
1.101967,926
1.103633,870
1.1053,933
1.106967,934
1.108633,844
1.1103,712
1.111967,765
1.113633,771
1.1153,837
1.116967,853
1.118633,748
1.1203,835
1.121967,804
1.123633,715
1.1253,815
1.126967,756
1.128633,724
1.1303,820
1.131967,847
1.133633,837
1.1353,849
1.136967,839
1.138633,829
1.1403,821
1.141967,810
1.143633,800
1.1453,817
1.146967,768
1.148633,842
1.1503,854
1.151967,866
1.153633,880
1.1553,893
1.156967,934
1.158633,975
1.1603,1104
1.161967,1102
1.163633,1076
1.1653,1157
1.166967,946
1.168633,958
1.1703,1081
1.171967,991
1.173633,1113
1.1753,1297
1.176967,1321
1.178633,1177
1.1803,1083
1.181967,1091
1.183633,1026
1.1853,1100
1.186967,1075
1.188633,1136
1.1903,1197
1.191967,904
1.193633,1002
1.1953,1038
1.196967,1159
1.198633,1102
