"SampleName","A2Rd2_01-14"
"Target Mass 1",
"Column Name","IA-3 (3um, 4.6X100)"
"Channel","QDa 1: SIR Ch2"
0.00195,552
0.003616667,622
0.005283333,909
0.00695,820
0.008616666,972
0.01028333,1075
0.01195,990
0.01361667,976
0.01528333,1006
0.01695,1036
0.01861667,1017
0.02028333,999
0.02195,1035
0.02361667,979
0.02528333,886
0.02695,924
0.02861667,1146
0.03028333,1205
0.03195,920
0.03361667,1072
0.03528333,1202
0.03695,936
0.03861667,1022
0.04028333,1053
0.04195,1109
0.04361667,1019
0.04528333,928
0.04695,923
0.04861667,958
0.05028334,908
0.05195,858
0.05361667,980
0.05528333,1063
0.05695,1153
0.05861667,1028
0.06028333,1143
0.06195,942
0.06361666,1061
0.06528334,1012
0.06695,1085
0.06861667,1025
0.07028333,1134
0.07195,914
0.07361667,888
0.07528333,886
0.07695,990
0.07861666,987
0.08028334,984
0.08195,952
0.08361667,980
0.08528333,1007
0.08695,1004
0.08861667,1001
0.09028333,1048
0.09195,1038
0.09361666,938
0.09528334,915
0.09695,891
0.09861667,998
0.1002833,954
0.10195,911
0.1036167,967
0.1052833,752
0.10695,967
0.1086167,996
0.1102833,957
0.11195,961
0.1136167,917
0.1152833,1040
0.11695,1006
0.1186167,930
0.1202833,964
0.12195,1010
0.1236167,1056
0.1252833,1105
0.12695,817
0.1286167,1014
0.1302833,984
0.13195,965
0.1336167,851
0.1352833,1119
0.13695,1080
0.1386167,1059
0.1402833,1008
0.14195,1084
0.1436167,996
0.1452833,1018
0.14695,1000
0.1486167,799
0.1502833,886
0.15195,1004
0.1536167,932
0.1552833,917
0.15695,995
0.1586167,883
0.1602833,906
0.16195,928
0.1636167,884
0.1652833,876
0.16695,868
0.1686167,881
0.1702833,895
0.17195,904
0.1736167,913
0.1752833,921
0.17695,752
0.1786167,839
0.1802833,944
0.18195,835
0.1836167,819
0.1852833,802
0.18695,855
0.1886167,908
0.1902833,916
0.19195,924
0.1936167,982
0.1952833,981
0.19695,956
0.1986167,883
0.2002833,1127
0.20195,1105
0.2036167,1109
0.2052833,1062
0.20695,1090
0.2086167,1117
0.2102833,1091
0.21195,1114
0.2136167,940
0.2152833,1018
0.21695,1308
0.2186167,1253
0.2202833,1402
0.22195,1215
0.2236167,1383
0.2252833,1368
0.22695,1353
0.2286167,1202
0.2302833,1172
0.23195,1392
0.2336167,1272
0.2352833,1436
0.23695,1372
0.2386167,1466
0.2402833,1444
0.24195,1422
0.2436167,1552
0.2453,1487
0.24695,1422
0.2486167,1563
0.2502833,1523
0.25195,1573
0.2536167,1564
0.2552833,1555
0.2569667,1516
0.2586167,1542
0.2602833,1310
0.26195,1512
0.2636333,1600
0.2652833,1270
0.26695,1491
0.2686167,1190
0.2702833,1489
0.27195,1452
0.2736167,1416
0.2752833,1302
0.27695,1318
0.2786167,1298
0.2803,1242
0.28195,1061
0.2836167,1406
0.2852833,1447
0.28695,1388
0.2886167,1287
0.2902833,1476
0.29195,1246
0.2936167,1146
0.2953,1328
0.29695,1233
0.2986333,1137
0.3002833,1236
0.30195,1061
0.3036167,1326
0.3052833,1298
0.3069667,1152
0.3086167,1322
0.3102833,1261
0.31195,1356
0.3136167,1230
0.3153,1338
0.31695,1260
0.3186167,1221
0.3202833,1116
0.32195,1104
0.3236333,1363
0.3252833,1502
0.32695,1450
0.3286167,1440
0.3302833,1450
0.33195,1275
0.3336333,1588
0.3352833,1715
0.33695,1533
0.3386167,1616
0.3403,1648
0.34195,1575
0.3436167,1503
0.3453,1393
0.34695,1486
0.3486167,1578
0.3503,1610
0.3519667,1587
0.3536333,1344
0.3553,1468
0.3569667,1429
0.3586167,1451
0.3602833,1474
0.36195,1752
0.3636333,3669
0.3652833,4543
0.3669667,5420
0.3686333,5729
0.3703,5770
0.37195,4565
0.3736333,4040
0.3752833,3071
0.3769667,2389
0.3786167,1709
0.3803,1630
0.38195,1100
0.3836333,1238
0.3853,824
0.3869667,774
0.3886333,764
0.3903,712
0.39195,750
0.3936333,652
0.3953,749
0.3969667,793
0.3986167,837
0.4002833,818
0.40195,800
0.4036333,775
0.4053,877
0.4069667,688
0.4086333,867
0.4103,803
0.4119667,811
0.4136333,823
0.4153,742
0.4169667,864
0.4186333,865
0.4203,871
0.4219667,588
0.4236333,790
0.4253,807
0.4269667,899
0.4286333,957
0.4303,731
0.4319667,968
0.4336333,829
0.4353,971
0.4369667,1076
0.4386333,1163
0.4403,1215
0.4419667,1203
0.4436333,1198
0.4453,1217
0.4469667,1212
0.4486333,1208
0.4503,1471
0.4519667,1450
0.4536333,1602
0.4553,1357
0.4569667,1776
0.4586333,1688
0.4603,1969
0.4619667,1870
0.4636333,1685
0.4653,1694
0.4669667,1757
0.4686333,1820
0.4703,1886
0.4719667,1936
0.4736333,1703
0.4753,1829
0.4769667,1852
0.4786333,1760
0.4803,1170
0.4819667,1671
0.4836333,1343
0.4853,1384
0.4869667,1404
0.4886333,1469
0.4903,1260
0.4919667,1294
0.4936333,1362
0.4953,1098
0.4969667,1444
0.4986333,987
0.5003,1233
0.5019667,1045
0.5036333,1156
0.5053,1200
0.5069667,1065
0.5086333,1070
0.5103,1075
0.5119666,1093
0.5136333,1109
0.5153,1046
0.5169666,902
0.5186333,1162
0.5203,981
0.5219667,971
0.5236334,952
0.5253,1152
0.5269667,1172
0.5286334,898
0.5303,978
0.5319667,1116
0.5336334,911
0.5353,1073
0.5369667,906
0.5386333,1142
0.5403,1163
0.5419667,1025
0.5436333,1054
0.5453,1012
0.5469667,1026
0.5486333,1040
0.5503,947
0.5519667,921
0.5536333,1057
0.5553,1103
0.5569667,1052
0.5586333,921
0.5603,958
0.5619667,996
0.5636333,979
0.5653,963
0.5669667,1023
0.5686333,1013
0.5703,1139
0.5719666,1105
0.5736333,1045
0.5753,1161
0.5769666,1126
0.5786333,931
0.5803,1114
0.5819666,790
0.5836333,1135
0.5853,1053
0.5869667,959
0.5886334,1035
0.5903,1198
0.5919667,1170
0.5936334,1293
0.5953,853
0.5969667,1274
0.5986333,1077
0.6003,1165
0.6019667,1160
0.6036333,829
0.6053,1157
0.6069667,944
0.6086333,979
0.6103,1002
0.6119667,933
0.6136333,1077
0.6153,1046
0.6169667,1011
0.6186333,907
0.6203,1099
0.6219667,974
0.6236333,956
0.6253,816
0.6269667,958
0.6286333,847
0.6303,736
0.6319667,876
0.6336333,911
0.6353,946
0.6369666,909
0.6386333,965
0.6403,1022
0.6419666,1032
0.6436333,878
0.6453,1004
0.6469667,1091
0.6486334,982
0.6503,1105
0.6519667,1147
0.6536334,991
0.6553,801
0.6569667,1047
0.6586334,1111
0.6603,834
0.6619667,916
0.6636333,983
0.6653,851
0.6669667,789
0.6686333,831
0.6703,936
0.6719667,947
0.6736333,907
0.6753,868
0.6769667,953
0.6786333,853
0.6803,844
0.6819667,950
0.6836333,889
0.6853,957
0.6869667,1056
0.6886333,770
0.6903,869
0.6919667,936
0.6936333,957
0.6953,977
0.6969666,1032
0.6986333,1087
0.7003,1103
0.7019666,906
0.7036333,1059
0.7053,1176
0.7069666,1146
0.7086333,1225
0.7103,1208
0.7119667,1169
0.7136334,991
0.7153,1041
0.7169667,985
0.7186334,914
0.7203,927
0.7219667,939
0.7236333,981
0.7253,964
0.7269667,948
0.7286333,855
0.7303,1000
0.7319667,1046
0.7336333,824
0.7353,893
0.7369667,883
0.7386333,928
0.7403,823
0.7419667,853
0.7436333,914
0.7453,691
0.7469667,800
0.7486333,819
0.7503,837
0.7519667,931
0.7536333,905
0.7553,879
0.7569667,847
0.7586333,816
0.7603,839
0.7619666,957
0.7636333,957
0.7653,957
0.7669666,899
0.7686333,941
0.7703,969
0.7719667,818
0.7736334,893
0.7753,771
0.7769667,788
0.7786334,865
0.7803,943
0.7819667,902
0.7836334,890
0.7853,897
0.7869667,961
0.7886333,712
0.7903,855
0.7919667,842
0.7936333,828
0.7953,942
0.7969667,1095
0.7986333,1186
0.8003,936
0.8019667,1185
0.8036333,1228
0.8053,1060
0.8069667,1251
0.8086333,1252
0.8103,1329
0.8119667,1277
0.8136333,1224
0.8153,1249
0.8169667,1231
0.8186333,1159
0.8203,1273
0.8219666,1123
0.8236333,1271
0.8253,1381
0.8269666,1076
0.8286333,1194
0.8303,967
0.8319666,1020
0.8336333,1011
0.8353,1052
0.8369667,1092
0.8386334,929
0.8403,869
0.8419667,931
0.8436334,916
0.8453,970
0.8469667,958
0.8486333,958
0.8503,828
0.8519667,894
0.8536333,960
0.8553,987
0.8569667,1074
0.8586333,1118
0.8603,943
0.8619667,1081
0.8636333,876
0.8653,920
0.8669667,958
0.8686333,924
0.8703,889
0.8719667,831
0.8736333,882
0.8753,780
0.8769667,928
0.8786333,1104
0.8803,1028
0.8819667,1204
0.8836333,1186
0.8853,1419
0.8869666,1449
0.8886333,1541
0.8903,1396
0.8919666,1424
0.8936333,1451
0.8953,1269
0.8969667,1528
0.8986334,1346
0.9003,1228
0.9019667,1307
0.9036334,1025
0.9053,1128
0.9069667,1231
0.9086334,1188
0.9103,1411
0.9119667,1454
0.9136333,1527
0.9153,1280
0.9169667,1363
0.9186333,1295
0.9203,1435
0.9219667,1492
0.9236333,1425
0.9253,1490
0.9269667,1528
0.9286333,1399
0.9303,1196
0.9319667,1570
0.9336333,1282
0.9353,1400
0.9369667,1242
0.9386333,1353
0.9403,1369
0.9419667,1272
0.9436333,1176
0.9453,1390
0.9469666,1217
0.9486333,1418
0.9503,1225
0.9519666,1057
0.9536333,1222
0.9553,1193
0.9569666,1048
0.9586333,1026
0.9603,1014
0.9619667,950
0.9636334,1205
0.9653,1155
0.9669667,1241
0.9686334,950
0.9703,913
0.9719667,904
0.9736333,957
0.9753,983
0.9769667,996
0.9786333,1107
0.9803,1090
0.9819667,992
0.9836333,882
0.9853,979
0.9869667,1044
0.9886333,1069
0.9903,1088
0.9919667,1052
0.9936333,1016
0.9953,1060
0.9969667,1045
0.9986333,1247
1.0003,1255
1.001967,1137
1.003633,1331
1.0053,1270
1.006967,1296
1.008633,1251
1.0103,1254
1.011967,1118
1.013633,1279
1.0153,1061
1.016967,1147
1.018633,1261
1.0203,1219
1.021967,1221
1.023633,1117
1.0253,1224
1.026967,948
1.028633,982
1.0303,1201
1.031967,906
1.033633,855
1.0353,1245
1.036967,996
1.038633,1018
1.0403,1172
1.041967,946
1.043633,916
1.0453,834
1.046967,1060
1.048633,1070
1.0503,882
1.051967,897
1.053633,914
1.0553,934
1.056967,953
1.058633,938
1.0603,923
1.061967,955
1.063633,987
1.0653,827
1.066967,883
1.068633,938
1.0703,665
1.071967,727
1.073633,790
1.0753,888
1.076967,1088
1.078633,1010
1.0803,1039
1.081967,957
1.083633,1152
1.0853,811
1.086967,1194
1.088633,1019
1.0903,1019
1.091967,876
1.093633,1148
1.0953,1127
1.096967,913
1.098633,1162
1.1003,1165
1.101967,846
1.103633,878
1.1053,851
1.106967,872
1.108633,894
1.1103,926
1.111967,820
1.113633,856
1.1153,892
1.116967,854
1.118633,739
1.1203,777
1.121967,759
1.123633,742
1.1253,843
1.126967,819
1.128633,795
1.1303,954
1.131967,875
1.133633,797
1.1353,886
1.136967,942
1.138633,1047
1.1403,977
1.141967,926
1.143633,965
1.1453,909
1.146967,895
1.148633,881
1.1503,689
1.151967,1037
1.153633,879
1.1553,809
1.156967,790
1.158633,917
1.1603,758
1.161967,1002
1.163633,961
1.1653,916
1.166967,803
1.168633,952
1.1703,746
1.171967,869
1.173633,829
1.1753,734
1.176967,844
1.178633,861
1.1803,809
1.181967,867
1.183633,925
1.1853,913
1.186967,940
1.188633,920
1.1903,900
1.191967,619
1.193633,686
1.1953,961
1.196967,937
1.198633,732
