"SampleName","A2Rd2_01-23"
"Target Mass 1",
"Column Name","IA-3 (3um, 4.6X100)"
"Channel","QDa 1: SIR Ch1"
0.00195,324
0.003616667,421
0.005283333,523
0.00695,571
0.008616666,566
0.01028333,423
0.01195,543
0.01361667,521
0.01528333,550
0.01695,575
0.01861667,469
0.02028333,631
0.02195,470
0.02361667,656
0.02528333,612
0.02695,683
0.02861667,521
0.03028333,719
0.03195,564
0.03361667,650
0.03528333,464
0.03695,449
0.03861667,628
0.04028333,566
0.04195,661
0.04361667,438
0.04528333,584
0.04695,605
0.04861667,614
0.05028334,523
0.05195,547
0.05361667,534
0.05528333,447
0.05695,542
0.05861667,470
0.06028333,515
0.06195,422
0.06361666,648
0.06528334,668
0.06695,720
0.06861667,651
0.07028333,527
0.07195,470
0.07361667,486
0.07528333,698
0.07695,642
0.07861666,582
0.08028334,464
0.08195,430
0.08361667,548
0.08528333,496
0.08695,444
0.08861667,543
0.09028333,656
0.09195,672
0.09361666,552
0.09528334,640
0.09695,615
0.09861667,591
0.1002833,536
0.10195,434
0.1036167,556
0.1052833,515
0.10695,594
0.1086167,454
0.1102833,501
0.11195,517
0.1136167,515
0.1152833,514
0.11695,484
0.1186167,513
0.1202833,542
0.12195,562
0.1236167,600
0.1252833,425
0.12695,590
0.1286167,662
0.1302833,534
0.13195,677
0.1336167,575
0.1352833,467
0.13695,558
0.1386167,563
0.1402833,569
0.14195,560
0.1436167,552
0.1452833,567
0.14695,583
0.1486167,590
0.1502833,494
0.15195,472
0.1536167,365
0.1552833,323
0.15695,577
0.1586167,606
0.1602833,598
0.16195,583
0.1636167,567
0.1652833,584
0.16695,616
0.1686167,639
0.1702833,640
0.17195,347
0.1736167,597
0.1752833,583
0.17695,646
0.1786167,584
0.1802833,524
0.18195,409
0.1836167,499
0.1852833,510
0.18695,566
0.1886167,517
0.1902833,483
0.19195,547
0.1936167,499
0.1952833,452
0.19695,408
0.1986167,522
0.2002833,445
0.20195,454
0.2036167,421
0.2052833,435
0.20695,432
0.2086167,544
0.2102833,518
0.21195,419
0.2136167,697
0.2152833,613
0.21695,494
0.2186167,548
0.2202833,520
0.22195,488
0.2236167,576
0.2252833,467
0.22695,526
0.2286167,506
0.2302833,485
0.23195,452
0.2336167,552
0.2352833,561
0.23695,571
0.2386167,464
0.2402833,632
0.24195,416
0.2436167,530
0.2452833,549
0.24695,538
0.2486167,527
0.2502833,500
0.25195,540
0.2536167,564
0.2552833,441
0.25695,484
0.2586167,506
0.2602833,485
0.26195,497
0.2636167,498
0.2652833,498
0.26695,564
0.2686167,622
0.2702833,596
0.27195,570
0.2736167,585
0.2752833,535
0.27695,513
0.2786167,513
0.2802833,513
0.2819667,548
0.2836167,535
0.2852833,523
0.28695,513
0.2886167,503
0.2902833,524
0.29195,545
0.2936167,577
0.2952833,572
0.29695,566
0.2986333,588
0.3002833,611
0.30195,629
0.3036167,630
0.3052833,626
0.30695,621
0.3086167,609
0.3102833,661
0.31195,431
0.3136167,616
0.3153,582
0.31695,551
0.3186167,580
0.3202833,542
0.32195,505
0.3236167,452
0.3252833,399
0.32695,469
0.3286167,588
0.3302833,544
0.3319667,512
0.3336333,616
0.3353,514
0.33695,558
0.3386167,389
0.3402833,504
0.34195,690
0.3436167,672
0.3452833,626
0.34695,520
0.3486167,519
0.3503,642
0.35195,587
0.3536333,584
0.3552833,628
0.35695,488
0.3586167,710
0.3602833,632
0.3619667,899
0.3636167,1578
0.3652833,3362
0.36695,5129
0.3686333,6025
0.3702833,7736
0.37195,6488
0.3736167,5138
0.3753,5033
0.37695,4470
0.3786333,3331
0.3802833,2696
0.3819667,2303
0.3836167,2160
0.3853,1656
0.38695,1592
0.3886167,1248
0.3903,1429
0.39195,1417
0.3936167,1171
0.3953,1386
0.39695,1544
0.3986167,1678
0.4002833,1925
0.4019667,2130
0.4036333,2296
0.4053,2035
0.40695,2058
0.4086333,2081
0.4102833,2022
0.4119667,1947
0.4136333,1872
0.4153,2031
0.41695,1863
0.4186333,1981
0.4203,1649
0.4219667,1966
0.4236167,1885
0.4253,1756
0.42695,2110
0.4286333,2081
0.4303,1745
0.4319667,2000
0.4336167,1885
0.4353,2126
0.43695,2644
0.4386333,3176
0.4403,4043
0.44195,5886
0.4436333,7803
0.4453,9996
0.4469667,14176
0.4486333,18332
0.4503,27188
0.4519667,36768
0.4536333,51408
0.4553,72688
0.4569667,96272
0.4586333,131712
0.4603,174144
0.4619667,229120
0.4636333,282944
0.4653,339008
0.4669667,386368
0.4686333,416000
0.4703,450816
0.4719667,445504
0.4736333,435968
0.4753,402880
0.4769667,365248
0.4786333,312896
0.4803,261888
0.4819667,216576
0.4836333,176576
0.4853,139072
0.4869667,110384
0.4886333,85040
0.4903,68960
0.4919667,54496
0.4936333,45072
0.4953,34560
0.4969667,29280
0.4986333,24836
0.5003,22176
0.5019667,17708
0.5036333,15772
0.5053,12640
0.5069667,11932
0.5086333,10944
0.5103,9184
0.5119666,7976
0.5136333,7716
0.5153,6508
0.5169666,6790
0.5186333,6024
0.5203,5812
0.5219667,5208
0.5236334,5591
0.5253,4690
0.5269667,4898
0.5286334,4606
0.5303,3952
0.5319667,4339
0.5336334,4275
0.5353,4190
0.5369667,3797
0.5386333,3475
0.5403,3428
0.5419667,3593
0.5436333,3229
0.5453,3064
0.5469667,3351
0.5486333,2984
0.5503,2778
0.5519667,2810
0.5536333,2715
0.5553,2317
0.5569667,2503
0.5586333,2447
0.5603,2235
0.5619667,2060
0.5636333,2064
0.5653,2068
0.5669667,2097
0.5686333,2080
0.5703,2063
0.5719666,2098
0.5736333,2030
0.5753,1833
0.5769666,1968
0.5786333,1733
0.5803,1881
0.5819666,1796
0.5836333,1792
0.5853,1789
0.5869667,1733
0.5886334,1746
0.5903,1758
0.5919667,1693
0.5936334,1528
0.5953,1572
0.5969667,1617
0.5986333,1728
0.6003,1780
0.6019667,1764
0.6036333,1728
0.6053,1693
0.6069667,1297
0.6086333,1604
0.6103,1748
0.6119667,1751
0.6136333,1680
0.6153,1732
0.6169667,1470
0.6186333,1495
0.6203,1394
0.6219667,1424
0.6236333,1398
0.6253,1443
0.6269667,1282
0.6286333,1317
0.6303,1287
0.6319667,1302
0.6336333,1175
0.6353,1299
0.6369666,1090
0.6386333,1222
0.6403,1169
0.6419666,1200
0.6436333,1152
0.6453,1112
0.6469667,1112
0.6486334,1254
0.6503,902
0.6519667,1042
0.6536334,1022
0.6553,1001
0.6569667,1009
0.6586334,1017
0.6603,969
0.6619667,981
0.6636333,992
0.6653,1103
0.6669667,1077
0.6686333,952
0.6703,1106
0.6719667,848
0.6736333,1088
0.6753,1275
0.6769667,1039
0.6786333,1284
0.6803,998
0.6819667,854
0.6836333,1036
0.6853,982
0.6869667,1095
0.6886333,1011
0.6903,1056
0.6919667,913
0.6936333,1105
0.6953,1048
0.6969666,1140
0.6986333,988
0.7003,860
0.7019666,1079
0.7036333,1065
0.7053,1010
0.7069666,1009
0.7086333,734
0.7103,827
0.7119667,797
0.7136334,965
0.7153,1023
0.7169667,1098
0.7186334,1065
0.7203,970
0.7219667,991
0.7236333,811
0.7253,914
0.7269667,750
0.7286333,885
0.7303,1020
0.7319667,1022
0.7336333,955
0.7353,1093
0.7369667,1070
0.7386333,860
0.7403,859
0.7419667,888
0.7436333,745
0.7453,806
0.7469667,867
0.7486333,878
0.7503,888
0.7519667,904
0.7536333,920
0.7553,989
0.7569667,924
0.7586333,858
0.7603,907
0.7619666,744
0.7636333,944
0.7653,849
0.7669666,874
0.7686333,735
0.7703,773
0.7719667,811
0.7736334,937
0.7753,883
0.7769667,786
0.7786334,898
0.7803,691
0.7819667,678
0.7836334,957
0.7853,951
0.7869667,842
0.7886333,768
0.7903,772
0.7919667,745
0.7936333,717
0.7953,777
0.7969667,779
0.7986333,781
0.8003,780
0.8019667,778
0.8036333,825
0.8053,871
0.8069667,879
0.8086333,747
0.8103,689
0.8119667,820
0.8136333,874
0.8153,766
0.8169667,851
0.8186333,787
0.8203,675
0.8219666,739
0.8236333,770
0.8253,971
0.8269666,1000
0.8286333,959
0.8303,719
0.8319666,820
0.8336333,963
0.8353,872
0.8369667,858
0.8386334,844
0.8403,817
0.8419667,872
0.8436334,906
0.8453,941
0.8469667,806
0.8486333,891
0.8503,800
0.8519667,836
0.8536333,831
0.8553,656
0.8569667,590
0.8586333,805
0.8603,776
0.8619667,956
0.8636333,1132
0.8653,1444
0.8669667,1799
0.8686333,2017
0.8703,2509
0.8719667,2776
0.8736333,3232
0.8753,3508
0.8769667,3461
0.8786333,3542
0.8803,3334
0.8819667,3125
0.8836333,3616
0.8853,3345
0.8869666,3223
0.8886333,3542
0.8903,3330
0.8919666,3123
0.8936333,3354
0.8953,2891
0.8969667,3382
0.8986334,3077
0.9003,3219
0.9019667,3293
0.9036334,3329
0.9053,3473
0.9069667,3484
0.9086334,3491
0.9103,3240
0.9119667,3372
0.9136333,3473
0.9153,3469
0.9169667,3528
0.9186333,3468
0.9203,3446
0.9219667,3424
0.9236333,2995
0.9253,3094
0.9269667,3185
0.9286333,3188
0.9303,3186
0.9319667,3185
0.9336333,2672
0.9353,2674
0.9369667,2810
0.9386333,2817
0.9403,2573
0.9419667,2348
0.9436333,2162
0.9453,2020
0.9469666,1859
0.9486333,1703
0.9503,1677
0.9519666,1793
0.9536333,1692
0.9553,1639
0.9569666,1548
0.9586333,1602
0.9603,1404
0.9619667,1073
0.9636334,1201
0.9653,1225
0.9669667,994
0.9686334,1025
0.9703,1080
0.9719667,957
0.9736333,965
0.9753,883
0.9769667,726
0.9786333,961
0.9803,847
0.9819667,724
0.9836333,684
0.9853,787
0.9869667,824
0.9886333,725
0.9903,542
0.9919667,630
0.9936333,650
0.9953,636
0.9969667,721
0.9986333,725
1.0003,659
1.001967,500
1.003633,697
1.0053,759
1.006967,772
1.008633,728
1.0103,716
1.011967,582
1.013633,713
1.0153,611
1.016967,664
1.018633,731
1.0203,719
1.021967,707
1.023633,618
1.0253,571
1.026967,680
1.028633,592
1.0303,661
1.031967,597
1.033633,532
1.0353,760
1.036967,709
1.038633,607
1.0403,727
1.041967,637
1.043633,628
1.0453,796
1.046967,810
1.048633,753
1.0503,736
1.051967,605
1.053633,615
1.0553,602
1.056967,708
1.058633,683
1.0603,801
1.061967,780
1.063633,740
1.0653,740
1.066967,598
1.068633,664
1.0703,677
1.071967,610
1.073633,683
1.0753,529
1.076967,567
1.078633,750
1.0803,756
1.081967,647
1.083633,606
1.0853,671
1.086967,603
1.088633,724
1.0903,708
1.091967,691
1.093633,719
1.0953,724
1.096967,682
1.098633,640
1.1003,610
1.101967,476
1.103633,663
1.1053,525
1.106967,657
1.108633,755
1.1103,676
1.111967,543
1.113633,636
1.1153,554
1.116967,558
1.118633,600
1.1203,613
1.121967,626
1.123633,633
1.1253,641
1.126967,644
1.128633,487
1.1303,728
1.131967,624
1.133633,707
1.1353,792
1.136967,772
1.138633,745
1.1403,741
1.141967,747
1.143633,753
1.1453,724
1.146967,647
1.148633,677
1.1503,655
1.151967,630
1.153633,578
1.1553,691
1.156967,672
1.158633,667
1.1603,682
1.161967,674
1.163633,666
1.1653,714
1.166967,649
1.168633,583
1.1703,652
1.171967,720
1.173633,784
1.1753,790
1.176967,672
1.178633,662
1.1803,721
1.181967,623
1.183633,691
1.1853,723
1.186967,756
1.188633,603
1.1903,804
1.191967,965
1.193633,882
1.1953,750
1.196967,704
1.198633,693
