"SampleName","A2Rd2_01-34"
"Target Mass 1",
"Column Name","IA-3 (3um, 4.6X100)"
"Channel","QDa 1: SIR Ch1"
0.00195,303
0.003616667,479
0.005283333,562
0.00695,544
0.008616666,597
0.01028333,600
0.01195,563
0.01361667,555
0.01528333,570
0.01695,606
0.01861667,473
0.02028333,402
0.02195,505
0.02361667,497
0.02528333,489
0.02695,439
0.02861667,472
0.03028333,467
0.03195,462
0.03361667,481
0.03528333,454
0.03695,536
0.03861667,573
0.04028333,542
0.04195,540
0.04361667,485
0.04528333,437
0.04695,468
0.04861667,448
0.05028334,428
0.05195,441
0.05361667,454
0.05528333,459
0.05695,465
0.05861667,484
0.06028333,502
0.06195,524
0.06361666,527
0.06528334,529
0.06695,504
0.06861667,480
0.07028333,485
0.07195,490
0.07361667,504
0.07528333,518
0.07695,446
0.07861666,511
0.08028334,499
0.08195,488
0.08361667,444
0.08528333,454
0.08695,464
0.08861667,438
0.09028333,470
0.09195,438
0.09361666,460
0.09528334,482
0.09695,388
0.09861667,395
0.1002833,492
0.10195,499
0.1036167,352
0.1052833,356
0.10695,360
0.1086167,382
0.1102833,403
0.11195,413
0.1136167,409
0.1152833,404
0.11695,380
0.1186167,355
0.1202833,439
0.12195,419
0.1236167,400
0.1252833,353
0.12695,463
0.1286167,440
0.1302833,355
0.13195,418
0.1336167,448
0.1352833,413
0.13695,377
0.1386167,496
0.1402833,502
0.14195,545
0.1436167,460
0.1452833,534
0.14695,491
0.1486167,417
0.1502833,531
0.15195,479
0.1536167,427
0.1552833,565
0.15695,425
0.1586167,494
0.1602833,452
0.16195,409
0.1636167,506
0.1652833,519
0.16695,459
0.1686167,432
0.1702833,442
0.17195,444
0.1736167,446
0.1752833,508
0.17695,458
0.1786167,408
0.1802833,448
0.18195,462
0.1836167,476
0.1852833,416
0.18695,451
0.1886167,487
0.1902833,458
0.19195,430
0.1936167,427
0.1952833,425
0.19695,302
0.1986167,438
0.2002833,451
0.20195,463
0.2036167,482
0.2052833,489
0.20695,443
0.2086167,455
0.2102833,466
0.21195,372
0.2136167,419
0.2152833,337
0.21695,362
0.2186167,387
0.2202833,393
0.22195,477
0.2236167,427
0.2252833,378
0.22695,477
0.2286167,456
0.2302833,435
0.23195,462
0.2336167,419
0.2352833,371
0.23695,432
0.2386167,415
0.2402833,398
0.24195,378
0.2436167,534
0.2452833,502
0.24695,460
0.2486167,432
0.2502833,495
0.25195,342
0.2536167,435
0.2552833,393
0.25695,388
0.2586167,382
0.2602833,452
0.26195,455
0.2636167,464
0.2653,431
0.26695,403
0.2686167,374
0.2703,421
0.27195,469
0.2736167,462
0.2752833,456
0.27695,469
0.2786167,482
0.2803,486
0.28195,489
0.2836167,443
0.2852833,489
0.28695,498
0.2886167,415
0.2902833,396
0.29195,343
0.2936167,362
0.2952833,382
0.29695,573
0.2986333,544
0.3002833,574
0.30195,483
0.3036333,413
0.3052833,494
0.3069667,336
0.3086167,495
0.3103,443
0.31195,410
0.3136167,434
0.3153,456
0.3169667,478
0.3186167,450
0.3203,421
0.32195,570
0.3236333,623
0.3252833,623
0.32695,604
0.3286167,584
0.3302833,513
0.3319667,467
0.3336333,616
0.3352833,653
0.33695,690
0.3386167,487
0.3403,468
0.34195,440
0.3436167,521
0.3452833,549
0.34695,520
0.3486333,491
0.3503,386
0.35195,561
0.3536167,529
0.3552833,385
0.3569667,432
0.3586167,479
0.3602833,437
0.36195,758
0.3636333,852
0.3653,1434
0.3669667,3433
0.3686333,5436
0.3703,7513
0.3719667,8704
0.3736333,8784
0.3752833,8876
0.3769667,6827
0.3786167,6028
0.3803,4864
0.3819667,4370
0.3836333,3401
0.3853,3872
0.3869667,3232
0.3886333,2917
0.3903,2110
0.3919667,1945
0.3936333,1411
0.3953,1280
0.3969667,1218
0.3986333,1215
0.4003,1001
0.4019667,1099
0.4036333,1025
0.4053,850
0.4069667,1031
0.4086333,1006
0.4103,929
0.4119667,851
0.4136333,876
0.4153,901
0.4169667,892
0.4186333,883
0.4203,1000
0.4219667,989
0.4236333,1018
0.4253,1047
0.4269667,1054
0.4286333,1056
0.4303,1114
0.4319667,1612
0.4336333,1847
0.4353,2789
0.4369667,4001
0.4386333,5208
0.4403,8244
0.4419667,9656
0.4436333,13168
0.4453,18444
0.4469667,25676
0.4486333,33600
0.4503,42384
0.4519667,56272
0.4536333,71296
0.4553,92768
0.4569667,111360
0.4586333,137344
0.4603,166144
0.4619667,195776
0.4636333,235072
0.4653,274432
0.4669667,304064
0.4686333,337536
0.4703,355712
0.4719667,363328
0.4736333,352704
0.4753,325376
0.4769667,299072
0.4786333,260736
0.4803,220288
0.4819667,178368
0.4836333,142464
0.4853,114016
0.4869667,84512
0.4886333,66144
0.4903,48144
0.4919667,37376
0.4936333,29292
0.4953,24348
0.4969667,18816
0.4986333,15204
0.5003,12516
0.5019667,11372
0.5036333,9232
0.5053,8280
0.5069667,7520
0.5086333,7224
0.5103,6143
0.5119666,5775
0.5136333,5256
0.5153,4671
0.5169666,4860
0.5186333,4443
0.5203,3683
0.5219667,3977
0.5236334,3656
0.5253,3541
0.5269667,3127
0.5286334,3287
0.5303,3019
0.5319667,2817
0.5336334,3199
0.5353,2858
0.5369667,2584
0.5386333,2639
0.5403,2411
0.5419667,2313
0.5436333,2481
0.5453,2319
0.5469667,2160
0.5486333,2098
0.5503,1828
0.5519667,1725
0.5536333,1857
0.5553,1767
0.5569667,1677
0.5586333,1448
0.5603,1419
0.5619667,1580
0.5636333,1639
0.5653,1598
0.5669667,1548
0.5686333,1270
0.5703,1242
0.5719666,1356
0.5736333,1159
0.5753,1206
0.5769666,1243
0.5786333,1315
0.5803,1286
0.5819666,1199
0.5836333,1018
0.5853,1021
0.5869667,1184
0.5886334,1155
0.5903,1126
0.5919667,1188
0.5936334,1088
0.5953,1082
0.5969667,1138
0.5986333,1194
0.6003,1169
0.6019667,1143
0.6036333,965
0.6053,1242
0.6069667,1058
0.6086333,1146
0.6103,1228
0.6119667,1123
0.6136333,1090
0.6153,1108
0.6169667,1110
0.6186333,1113
0.6203,1157
0.6219667,926
0.6236333,1067
0.6253,1177
0.6269667,838
0.6286333,839
0.6303,991
0.6319667,995
0.6336333,1049
0.6353,853
0.6369666,793
0.6386333,866
0.6403,828
0.6419666,815
0.6436333,725
0.6453,866
0.6469667,859
0.6486334,662
0.6503,626
0.6519667,884
0.6536334,815
0.6553,670
0.6569667,728
0.6586334,750
0.6603,759
0.6619667,730
0.6636333,725
0.6653,721
0.6669667,586
0.6686333,635
0.6703,535
0.6719667,532
0.6736333,530
0.6753,579
0.6769667,739
0.6786333,662
0.6803,584
0.6819667,757
0.6836333,615
0.6853,433
0.6869667,658
0.6886333,626
0.6903,510
0.6919667,708
0.6936333,548
0.6953,741
0.6969666,551
0.6986333,577
0.7003,529
0.7019666,592
0.7036333,645
0.7053,678
0.7069666,684
0.7086333,665
0.7103,646
0.7119667,543
0.7136334,522
0.7153,509
0.7169667,477
0.7186334,513
0.7203,478
0.7219667,443
0.7236333,462
0.7253,480
0.7269667,477
0.7286333,468
0.7303,459
0.7319667,614
0.7336333,554
0.7353,495
0.7369667,568
0.7386333,605
0.7403,637
0.7419667,611
0.7436333,630
0.7453,489
0.7469667,578
0.7486333,544
0.7503,405
0.7519667,632
0.7536333,528
0.7553,563
0.7569667,602
0.7586333,623
0.7603,482
0.7619666,555
0.7636333,523
0.7653,492
0.7669666,515
0.7686333,537
0.7703,569
0.7719667,499
0.7736334,428
0.7753,546
0.7769667,468
0.7786334,480
0.7803,596
0.7819667,540
0.7836334,536
0.7853,612
0.7869667,593
0.7886333,483
0.7903,589
0.7919667,669
0.7936333,687
0.7953,431
0.7969667,451
0.7986333,474
0.8003,508
0.8019667,542
0.8036333,506
0.8053,437
0.8069667,420
0.8086333,454
0.8103,487
0.8119667,492
0.8136333,498
0.8153,568
0.8169667,658
0.8186333,626
0.8203,526
0.8219666,532
0.8236333,608
0.8253,478
0.8269666,479
0.8286333,491
0.8303,479
0.8319666,526
0.8336333,514
0.8353,432
0.8369667,348
0.8386334,563
0.8403,392
0.8419667,548
0.8436334,440
0.8453,596
0.8469667,522
0.8486333,459
0.8503,545
0.8519667,437
0.8536333,391
0.8553,559
0.8569667,520
0.8586333,410
0.8603,507
0.8619667,386
0.8636333,325
0.8653,426
0.8669667,422
0.8686333,406
0.8703,415
0.8719667,423
0.8736333,380
0.8753,348
0.8769667,491
0.8786333,654
0.8803,650
0.8819667,853
0.8836333,869
0.8853,1031
0.8869666,1074
0.8886333,1254
0.8903,1235
0.8919666,1413
0.8936333,1557
0.8953,1619
0.8969667,1573
0.8986334,1565
0.9003,1616
0.9019667,1630
0.9036334,1462
0.9053,1570
0.9069667,1602
0.9086334,1495
0.9103,1487
0.9119667,1483
0.9136333,1624
0.9153,1726
0.9169667,1641
0.9186333,1501
0.9203,1387
0.9219667,1513
0.9236333,1663
0.9253,1669
0.9269667,1549
0.9286333,1429
0.9303,1552
0.9319667,1616
0.9336333,1445
0.9353,1412
0.9369667,1380
0.9386333,1433
0.9403,1384
0.9419667,1219
0.9436333,1282
0.9453,1344
0.9469666,1112
0.9486333,1178
0.9503,1297
0.9519666,1278
0.9536333,1213
0.9553,1125
0.9569666,1102
0.9586333,1087
0.9603,856
0.9619667,874
0.9636334,736
0.9653,824
0.9669667,705
0.9686334,756
0.9703,687
0.9719667,668
0.9736333,730
0.9753,485
0.9769667,481
0.9786333,447
0.9803,475
0.9819667,438
0.9836333,446
0.9853,454
0.9869667,442
0.9886333,409
0.9903,449
0.9919667,434
0.9936333,451
0.9953,442
0.9969667,407
0.9986333,407
1.0003,408
1.001967,382
1.003633,397
1.0053,412
1.006967,408
1.008633,338
1.0103,336
1.011967,352
1.013633,387
1.0153,426
1.016967,408
1.018633,390
1.0203,407
1.021967,433
1.023633,514
1.0253,482
1.026967,420
1.028633,349
1.0303,448
1.031967,400
1.033633,351
1.0353,431
1.036967,401
1.038633,402
1.0403,402
1.041967,439
1.043633,441
1.0453,434
1.046967,427
1.048633,372
1.0503,422
1.051967,477
1.053633,449
1.0553,471
1.056967,455
1.058633,487
1.0603,497
1.061967,426
1.063633,418
1.0653,397
1.066967,427
1.068633,456
1.0703,436
1.071967,415
1.073633,398
1.0753,382
1.076967,366
1.078633,381
1.0803,508
1.081967,529
1.083633,471
1.0853,412
1.086967,560
1.088633,514
1.0903,404
1.091967,431
1.093633,540
1.0953,461
1.096967,497
1.098633,560
1.1003,495
1.101967,488
1.103633,481
1.1053,399
1.106967,490
1.108633,425
1.1103,460
1.111967,426
1.113633,396
1.1153,400
1.116967,382
1.118633,531
1.1203,582
1.121967,360
1.123633,540
1.1253,468
1.126967,363
1.128633,388
1.1303,413
1.131967,561
1.133633,510
1.1353,459
1.136967,594
1.138633,445
1.1403,539
1.141967,608
1.143633,432
1.1453,414
1.146967,379
1.148633,524
1.1503,495
1.151967,545
1.153633,519
1.1553,516
1.156967,622
1.158633,605
1.1603,570
1.161967,449
1.163633,500
1.1653,571
1.166967,570
1.168633,465
1.1703,518
1.171967,601
1.173633,570
1.1753,467
1.176967,458
1.178633,583
1.1803,523
1.181967,416
1.183633,580
1.1853,611
1.186967,641
1.188633,390
1.1903,479
1.191967,458
1.193633,493
1.1953,529
1.196967,509
1.198633,489
