"SampleName","A2Rd2_01-32"
"Target Mass 1",
"Column Name","IA-3 (3um, 4.6X100)"
"Channel","QDa 1: SIR Ch2"
0.00195,555
0.003616667,774
0.005283333,672
0.00695,857
0.008616666,827
0.01028333,716
0.01195,839
0.01361667,742
0.01528333,867
0.01695,883
0.01861667,900
0.02028333,761
0.02195,864
0.02361667,820
0.02528333,809
0.02695,839
0.02861667,864
0.03028333,842
0.03195,820
0.03361667,1055
0.03528333,1021
0.03695,917
0.03861667,913
0.04028333,1046
0.04195,983
0.04361667,847
0.04528333,895
0.04695,874
0.04861667,909
0.05028334,850
0.05195,950
0.05361667,750
0.05528333,844
0.05695,718
0.05861667,772
0.06028333,827
0.06195,811
0.06361666,992
0.06528334,962
0.06695,815
0.06861667,775
0.07028333,944
0.07195,920
0.07361667,906
0.07528333,1014
0.07695,720
0.07861666,852
0.08028334,844
0.08195,742
0.08361667,796
0.08528333,850
0.08695,825
0.08861667,799
0.09028333,816
0.09195,833
0.09361666,744
0.09528334,780
0.09695,816
0.09861667,733
0.1002833,806
0.10195,733
0.1036167,875
0.1052833,880
0.10695,886
0.1086167,814
0.1102833,822
0.11195,916
0.1136167,836
0.1152833,755
0.11695,878
0.1186167,1011
0.1202833,1114
0.12195,920
0.1236167,854
0.1252833,873
0.12695,771
0.1286167,799
0.1302833,820
0.13195,841
0.1336167,838
0.1352833,917
0.13695,970
0.1386167,971
0.1402833,883
0.14195,752
0.1436167,741
0.1452833,762
0.14695,861
0.1486167,959
0.1502833,975
0.15195,823
0.1536167,845
0.1552833,906
0.15695,823
0.1586167,840
0.1602833,880
0.16195,675
0.1636167,827
0.1652833,902
0.16695,864
0.1686167,746
0.1702833,557
0.17195,837
0.1736167,841
0.1752833,855
0.17695,824
0.1786167,873
0.1802833,699
0.18195,757
0.1836167,752
0.1852833,787
0.18695,858
0.1886167,929
0.1902833,884
0.19195,839
0.1936167,850
0.1952833,861
0.19695,837
0.1986167,814
0.2002833,883
0.20195,857
0.2036167,832
0.2052833,1051
0.20695,1009
0.2086167,936
0.2102833,941
0.21195,963
0.2136167,1018
0.2152833,954
0.21695,890
0.2186167,964
0.2202833,905
0.22195,846
0.2236167,1070
0.2252833,1014
0.22695,997
0.2286167,1031
0.2302833,1065
0.23195,1056
0.2336167,1047
0.2352833,1037
0.23695,1027
0.2386167,1068
0.2402833,1108
0.24195,1243
0.2436167,1177
0.2452833,1111
0.24695,1248
0.2486167,993
0.2502833,1165
0.25195,1121
0.2536167,1078
0.2552833,980
0.25695,908
0.2586167,1117
0.2602833,1094
0.26195,896
0.2636333,1109
0.2652833,1032
0.2669667,985
0.2686167,1020
0.2702833,1056
0.27195,1040
0.2736167,1025
0.2752833,800
0.27695,853
0.2786167,1016
0.2803,1037
0.28195,973
0.2836167,1038
0.2852833,953
0.28695,914
0.2886167,1070
0.2902833,1015
0.29195,960
0.2936167,978
0.2952833,1012
0.2969667,1047
0.2986333,1055
0.3002833,1114
0.30195,1130
0.3036167,1025
0.3052833,994
0.30695,964
0.3086167,914
0.3102833,995
0.31195,1046
0.3136167,1107
0.3153,1081
0.3169667,1054
0.3186167,1004
0.3202833,954
0.32195,1029
0.3236167,1029
0.3252833,1029
0.32695,1030
0.3286167,1032
0.3303,1294
0.33195,1210
0.3336333,1126
0.3352833,1243
0.33695,1364
0.3386167,1401
0.3402833,1328
0.34195,1405
0.3436167,1195
0.3452833,1198
0.3469667,1427
0.3486333,1374
0.3503,1171
0.35195,1268
0.3536333,1165
0.3552833,1182
0.35695,1094
0.3586167,1429
0.3602833,1500
0.36195,1421
0.3636333,2514
0.3653,4045
0.3669667,4994
0.3686333,6003
0.3703,5785
0.3719667,4929
0.3736333,3711
0.3752833,3210
0.37695,2726
0.3786167,2069
0.3803,1533
0.3819667,1240
0.3836167,849
0.3853,661
0.38695,635
0.3886333,662
0.3902833,536
0.3919667,494
0.3936333,622
0.3952833,612
0.3969667,602
0.3986333,607
0.4003,761
0.40195,824
0.4036333,1006
0.4053,1202
0.4069667,1254
0.4086333,1317
0.4103,1345
0.41195,1093
0.4136333,1103
0.4153,967
0.4169667,923
0.4186333,1089
0.4203,964
0.4219667,906
0.4236333,905
0.4253,1011
0.4269667,1020
0.4286333,1027
0.4303,1033
0.4319667,1270
0.4336333,1139
0.4353,1009
0.4369667,1221
0.4386333,1362
0.4403,1320
0.4419667,1380
0.4436333,1433
0.4453,1431
0.4469667,1478
0.4486333,1525
0.4503,1726
0.4519667,2097
0.4536333,1994
0.4553,1858
0.4569667,2179
0.4586333,2020
0.4603,1860
0.4619667,2072
0.4636333,2251
0.4653,2183
0.4669667,2049
0.4686333,2058
0.4703,2042
0.4719667,1776
0.4736333,2279
0.4753,1373
0.4769667,1610
0.4786333,1981
0.4803,1623
0.4819667,1693
0.4836333,1416
0.4853,1521
0.4869667,1307
0.4886333,1420
0.4903,1308
0.4919667,1312
0.4936333,1316
0.4953,1173
0.4969667,1355
0.4986333,1153
0.5003,1098
0.5019667,1232
0.5036333,1231
0.5053,1231
0.5069667,1182
0.5086333,1257
0.5103,1076
0.5119666,1038
0.5136333,1155
0.5153,953
0.5169666,953
0.5186333,1175
0.5203,1034
0.5219667,1158
0.5236334,1135
0.5253,1040
0.5269667,1052
0.5286334,1064
0.5303,1115
0.5319667,1250
0.5336334,1423
0.5353,1467
0.5369667,1095
0.5386333,1047
0.5403,1185
0.5419667,1055
0.5436333,1271
0.5453,938
0.5469667,958
0.5486333,1118
0.5503,1066
0.5519667,1014
0.5536333,1133
0.5553,1217
0.5569667,778
0.5586333,849
0.5603,881
0.5619667,888
0.5636333,1069
0.5653,1042
0.5669667,1014
0.5686333,1055
0.5703,982
0.5719666,760
0.5736333,1122
0.5753,1058
0.5769666,966
0.5786333,1182
0.5803,1082
0.5819666,893
0.5836333,1079
0.5853,1025
0.5869667,1113
0.5886334,1053
0.5903,905
0.5919667,876
0.5936334,1145
0.5953,1170
0.5969667,1127
0.5986333,1188
0.6003,869
0.6019667,980
0.6036333,956
0.6053,1056
0.6069667,1011
0.6086333,958
0.6103,1055
0.6119667,1100
0.6136333,1051
0.6153,1015
0.6169667,779
0.6186333,890
0.6203,1024
0.6219667,979
0.6236333,1035
0.6253,1003
0.6269667,945
0.6286333,899
0.6303,852
0.6319667,911
0.6336333,924
0.6353,937
0.6369666,947
0.6386333,957
0.6403,927
0.6419666,897
0.6436333,883
0.6453,869
0.6469667,920
0.6486334,893
0.6503,866
0.6519667,889
0.6536334,882
0.6553,875
0.6569667,894
0.6586334,914
0.6603,867
0.6619667,821
0.6636333,749
0.6653,875
0.6669667,853
0.6686333,831
0.6703,809
0.6719667,774
0.6736333,852
0.6753,901
0.6769667,1006
0.6786333,982
0.6803,959
0.6819667,772
0.6836333,858
0.6853,810
0.6869667,791
0.6886333,772
0.6903,825
0.6919667,809
0.6936333,821
0.6953,827
0.6969666,628
0.6986333,1048
0.7003,919
0.7019666,896
0.7036333,927
0.7053,957
0.7069666,819
0.7086333,794
0.7103,940
0.7119667,822
0.7136334,693
0.7153,1000
0.7169667,754
0.7186334,888
0.7203,919
0.7219667,908
0.7236333,856
0.7253,995
0.7269667,768
0.7286333,745
0.7303,967
0.7319667,820
0.7336333,730
0.7353,801
0.7369667,859
0.7386333,816
0.7403,773
0.7419667,798
0.7436333,699
0.7453,929
0.7469667,967
0.7486333,1093
0.7503,906
0.7519667,872
0.7536333,963
0.7553,980
0.7569667,605
0.7586333,904
0.7603,759
0.7619666,886
0.7636333,909
0.7653,942
0.7669666,590
0.7686333,851
0.7703,917
0.7719667,1008
0.7736334,954
0.7753,1011
0.7769667,876
0.7786334,826
0.7803,827
0.7819667,951
0.7836334,991
0.7853,874
0.7869667,803
0.7886333,905
0.7903,896
0.7919667,860
0.7936333,815
0.7953,771
0.7969667,869
0.7986333,816
0.8003,1019
0.8019667,1072
0.8036333,1146
0.8053,924
0.8069667,924
0.8086333,925
0.8103,855
0.8119667,786
0.8136333,945
0.8153,731
0.8169667,994
0.8186333,786
0.8203,874
0.8219666,875
0.8236333,1036
0.8253,993
0.8269666,1038
0.8286333,1051
0.8303,853
0.8319666,753
0.8336333,896
0.8353,1059
0.8369667,1000
0.8386334,941
0.8403,835
0.8419667,1078
0.8436334,750
0.8453,814
0.8469667,796
0.8486333,915
0.8503,903
0.8519667,927
0.8536333,891
0.8553,825
0.8569667,673
0.8586333,974
0.8603,747
0.8619667,836
0.8636333,1085
0.8653,998
0.8669667,1022
0.8686333,1279
0.8703,1429
0.8719667,1449
0.8736333,1514
0.8753,1391
0.8769667,1557
0.8786333,1337
0.8803,1281
0.8819667,1483
0.8836333,1286
0.8853,1513
0.8869666,1474
0.8886333,1192
0.8903,1238
0.8919666,1442
0.8936333,1497
0.8953,1241
0.8969667,1347
0.8986334,1265
0.9003,1229
0.9019667,1361
0.9036334,1269
0.9053,1400
0.9069667,1528
0.9086334,1574
0.9103,1502
0.9119667,1360
0.9136333,1430
0.9153,1121
0.9169667,1398
0.9186333,1051
0.9203,1280
0.9219667,1391
0.9236333,1362
0.9253,1584
0.9269667,1574
0.9286333,1506
0.9303,1328
0.9319667,1349
0.9336333,1295
0.9353,1252
0.9369667,1422
0.9386333,1180
0.9403,1165
0.9419667,1150
0.9436333,1243
0.9453,1192
0.9469666,1141
0.9486333,1184
0.9503,1133
0.9519666,1081
0.9536333,1241
0.9553,1171
0.9569666,1207
0.9586333,927
0.9603,1128
0.9619667,1164
0.9636334,944
0.9653,997
0.9669667,962
0.9686334,1071
0.9703,1085
0.9719667,927
0.9736333,1188
0.9753,910
0.9769667,1074
0.9786333,872
0.9803,918
0.9819667,864
0.9836333,658
0.9853,817
0.9869667,879
0.9886333,817
0.9903,705
0.9919667,728
0.9936333,766
0.9953,742
0.9969667,719
0.9986333,787
1.0003,792
1.001967,797
1.003633,785
1.0053,773
1.006967,799
1.008633,788
1.0103,778
1.011967,835
1.013633,719
1.0153,780
1.016967,802
1.018633,771
1.0203,740
1.021967,997
1.023633,1018
1.0253,929
1.026967,861
1.028633,985
1.0303,880
1.031967,1038
1.033633,974
1.0353,910
1.036967,874
1.038633,738
1.0403,1010
1.041967,953
1.043633,736
1.0453,878
1.046967,878
1.048633,823
1.0503,766
1.051967,834
1.053633,903
1.0553,963
1.056967,939
1.058633,915
1.0603,982
1.061967,892
1.063633,864
1.0653,900
1.066967,727
1.068633,888
1.0703,731
1.071967,748
1.073633,814
1.0753,820
1.076967,827
1.078633,691
1.0803,870
1.081967,778
1.083633,686
1.0853,1030
1.086967,957
1.088633,872
1.0903,919
1.091967,713
1.093633,724
1.0953,896
1.096967,885
1.098633,728
1.1003,823
1.101967,923
1.103633,946
1.1053,969
1.106967,808
1.108633,859
1.1103,949
1.111967,888
1.113633,805
1.1153,732
1.116967,880
1.118633,846
1.1203,765
1.121967,729
1.123633,872
1.1253,931
1.126967,970
1.128633,672
1.1303,923
1.131967,973
1.133633,918
1.1353,745
1.136967,653
1.138633,855
1.1403,809
1.141967,841
1.143633,827
1.1453,884
1.146967,674
1.148633,826
1.1503,944
1.151967,932
1.153633,768
1.1553,898
1.156967,864
1.158633,792
1.1603,906
1.161967,924
1.163633,855
1.1653,741
1.166967,871
1.168633,806
1.1703,803
1.171967,870
1.173633,689
1.1753,736
1.176967,782
1.178633,730
1.1803,695
1.181967,701
1.183633,707
1.1853,801
1.186967,980
1.188633,914
1.1903,913
1.191967,890
1.193633,731
1.1953,796
1.196967,691
1.198633,755
