"SampleName","A2Rd2_01-42"
"Target Mass 1",
"Column Name","IA-3 (3um, 4.6X100)"
"Channel","QDa 1: SIR Ch2"
0.00195,663
0.003616667,709
0.005283333,675
0.00695,712
0.008616666,872
0.01028333,936
0.01195,732
0.01361667,819
0.01528333,809
0.01695,798
0.01861667,876
0.02028333,914
0.02195,967
0.02361667,784
0.02528333,746
0.02695,886
0.02861667,845
0.03028333,804
0.03195,832
0.03361667,655
0.03528333,971
0.03695,925
0.03861667,741
0.04028333,904
0.04195,1042
0.04361667,890
0.04528333,645
0.04695,1050
0.04861667,1104
0.05028334,916
0.05195,939
0.05361667,795
0.05528333,738
0.05695,733
0.05861667,895
0.06028333,945
0.06195,916
0.06361666,827
0.06528334,930
0.06695,981
0.06861667,934
0.07028333,869
0.07195,819
0.07361667,864
0.07528333,864
0.07695,837
0.07861666,799
0.08028334,786
0.08195,818
0.08361667,850
0.08528333,848
0.08695,845
0.08861667,867
0.09028333,874
0.09195,815
0.09361666,661
0.09528334,841
0.09695,873
0.09861667,904
0.1002833,835
0.10195,908
0.1036167,862
0.1052833,911
0.10695,837
0.1086167,865
0.1102833,892
0.11195,842
0.1136167,894
0.1152833,697
0.11695,883
0.1186167,845
0.1202833,807
0.12195,821
0.1236167,951
0.1252833,934
0.12695,779
0.1286167,818
0.1302833,943
0.13195,879
0.1336167,1030
0.1352833,1080
0.13695,1019
0.1386167,700
0.1402833,917
0.14195,862
0.1436167,942
0.1452833,921
0.14695,804
0.1486167,724
0.1502833,869
0.15195,787
0.1536167,837
0.1552833,769
0.15695,753
0.1586167,782
0.1602833,811
0.16195,815
0.1636167,892
0.1652833,913
0.16695,1005
0.1686167,647
0.1702833,905
0.17195,820
0.1736167,892
0.1752833,800
0.17695,797
0.1786167,908
0.1802833,905
0.18195,733
0.1836167,902
0.1852833,862
0.18695,852
0.1886167,885
0.1902833,917
0.19195,767
0.1936167,788
0.1952833,761
0.19695,849
0.1986167,860
0.2002833,872
0.20195,907
0.2036167,884
0.2052833,861
0.20695,907
0.2086167,891
0.2102833,876
0.21195,956
0.2136167,922
0.2152833,889
0.21695,843
0.2186167,922
0.2202833,985
0.22195,1105
0.2236167,1023
0.2252833,1041
0.22695,1058
0.2286167,1019
0.2302833,1029
0.23195,963
0.2336167,981
0.2352833,1013
0.23695,932
0.2386167,1160
0.2402833,1213
0.24195,1036
0.2436167,1007
0.2452833,848
0.24695,1118
0.2486167,1247
0.2502833,1084
0.25195,1218
0.2536167,1008
0.2552833,1266
0.25695,1363
0.2586167,900
0.2602833,1165
0.26195,1141
0.2636333,1197
0.2652833,917
0.26695,1056
0.2686167,1179
0.2702833,943
0.27195,1023
0.2736167,950
0.2752833,1020
0.27695,1063
0.2786167,1066
0.2803,1037
0.28195,1038
0.2836167,1039
0.2852833,899
0.28695,1106
0.2886167,1089
0.2902833,909
0.29195,1219
0.2936167,1109
0.2952833,1143
0.29695,1005
0.2986333,1086
0.3002833,1062
0.30195,995
0.3036167,929
0.3052833,947
0.30695,1067
0.3086167,1073
0.3102833,1079
0.31195,1037
0.3136167,886
0.3153,1092
0.31695,935
0.3186333,1211
0.3202833,1074
0.3219667,1164
0.3236167,1133
0.3252833,918
0.32695,945
0.3286167,972
0.3303,1067
0.33195,1240
0.3336333,1262
0.3352833,1278
0.33695,1295
0.3386333,1375
0.3402833,1075
0.34195,1348
0.3436167,1273
0.3452833,1466
0.3469667,1333
0.3486167,1215
0.3503,1177
0.35195,1296
0.3536333,1302
0.3553,1233
0.35695,1328
0.3586167,1343
0.3602833,1393
0.36195,1611
0.3636333,1919
0.3652833,3846
0.3669667,4140
0.3686333,5252
0.3703,5251
0.3719667,4460
0.3736333,4546
0.3752833,3760
0.3769667,2696
0.3786167,2010
0.3803,1847
0.3819667,1640
0.3836333,1024
0.3853,806
0.3869667,670
0.3886333,624
0.3903,636
0.3919667,582
0.3936333,544
0.3952833,442
0.3969667,533
0.3986333,507
0.4003,638
0.4019667,608
0.4036333,578
0.4053,759
0.4069667,835
0.4086167,958
0.4103,853
0.41195,897
0.4136333,834
0.4153,772
0.4169667,965
0.4186167,1007
0.4203,1013
0.4219667,983
0.4236333,801
0.4253,805
0.4269667,914
0.4286333,1023
0.4303,1112
0.4319667,1120
0.4336333,1115
0.4353,1111
0.4369667,1105
0.4386333,1100
0.4403,1132
0.4419667,1250
0.4436333,1369
0.4453,1276
0.4469667,1034
0.4486333,1195
0.4503,1356
0.4519667,1385
0.4536333,1291
0.4553,1324
0.4569667,1364
0.4586333,1403
0.4603,1651
0.4619667,1645
0.4636333,1441
0.4653,1517
0.4669667,1283
0.4686333,1664
0.4703,1705
0.4719667,1655
0.4736333,1399
0.4753,1440
0.4769667,1300
0.4786333,1485
0.4803,1492
0.4819667,1498
0.4836333,1101
0.4853,1506
0.4869667,1131
0.4886333,1280
0.4903,1169
0.4919667,1135
0.4936333,1080
0.4953,996
0.4969667,1171
0.4986333,1058
0.5003,944
0.5019667,1130
0.5036333,1104
0.5053,978
0.5069667,970
0.5086333,970
0.5103,970
0.5119666,989
0.5136333,824
0.5153,1100
0.5169666,1066
0.5186333,918
0.5203,1110
0.5219667,1020
0.5236334,1193
0.5253,922
0.5269667,978
0.5286334,1313
0.5303,1128
0.5319667,1227
0.5336334,950
0.5353,983
0.5369667,1219
0.5386333,1247
0.5403,1318
0.5419667,1052
0.5436333,1297
0.5453,1070
0.5469667,1115
0.5486333,1236
0.5503,1156
0.5519667,1231
0.5536333,1069
0.5553,1044
0.5569667,1006
0.5586333,1110
0.5603,937
0.5619667,1081
0.5636333,1065
0.5653,1132
0.5669667,855
0.5686333,1049
0.5703,828
0.5719666,860
0.5736333,991
0.5753,894
0.5769666,797
0.5786333,926
0.5803,875
0.5819666,999
0.5836333,919
0.5853,840
0.5869667,1052
0.5886334,940
0.5903,991
0.5919667,900
0.5936334,1016
0.5953,848
0.5969667,1219
0.5986333,1233
0.6003,963
0.6019667,1167
0.6036333,1111
0.6053,977
0.6069667,1130
0.6086333,1079
0.6103,1028
0.6119667,1088
0.6136333,1110
0.6153,939
0.6169667,1206
0.6186333,1218
0.6203,1110
0.6219667,1170
0.6236333,1262
0.6253,1217
0.6269667,1053
0.6286333,1212
0.6303,1158
0.6319667,1275
0.6336333,1239
0.6353,1220
0.6369666,1193
0.6386333,1165
0.6403,1152
0.6419666,1139
0.6436333,1168
0.6453,1220
0.6469667,1217
0.6486334,1158
0.6503,1093
0.6519667,1125
0.6536334,1009
0.6553,921
0.6569667,1042
0.6586334,973
0.6603,956
0.6619667,939
0.6636333,992
0.6653,1004
0.6669667,1016
0.6686333,905
0.6703,1073
0.6719667,1072
0.6736333,1152
0.6753,943
0.6769667,1106
0.6786333,1207
0.6803,1028
0.6819667,1148
0.6836333,1218
0.6853,1300
0.6869667,1387
0.6886333,1081
0.6903,1459
0.6919667,1754
0.6936333,1753
0.6953,2027
0.6969666,1884
0.6986333,2754
0.7003,2582
0.7019666,2493
0.7036333,2833
0.7053,3122
0.7069666,3059
0.7086333,3430
0.7103,3414
0.7119667,3972
0.7136334,3873
0.7153,4014
0.7169667,3832
0.7186334,3969
0.7203,3650
0.7219667,3935
0.7236333,3375
0.7253,2708
0.7269667,2647
0.7286333,2694
0.7303,2427
0.7319667,2298
0.7336333,1752
0.7353,1696
0.7369667,1925
0.7386333,1573
0.7403,1600
0.7419667,1253
0.7436333,1352
0.7453,1191
0.7469667,1197
0.7486333,1244
0.7503,1048
0.7519667,1209
0.7536333,1153
0.7553,1101
0.7569667,986
0.7586333,1010
0.7603,1014
0.7619666,1026
0.7636333,1039
0.7653,1060
0.7669666,1082
0.7686333,943
0.7703,1126
0.7719667,1064
0.7736334,1006
0.7753,1141
0.7769667,1097
0.7786334,947
0.7803,912
0.7819667,1134
0.7836334,1169
0.7853,1252
0.7869667,1563
0.7886333,1670
0.7903,2051
0.7919667,2263
0.7936333,2674
0.7953,2780
0.7969667,2924
0.7986333,3135
0.8003,4107
0.8019667,4279
0.8036333,4697
0.8053,5516
0.8069667,5940
0.8086333,5885
0.8103,6359
0.8119667,6856
0.8136333,7250
0.8153,7820
0.8169667,8200
0.8186333,7757
0.8203,7782
0.8219666,7806
0.8236333,7857
0.8253,7126
0.8269666,6759
0.8286333,6001
0.8303,6022
0.8319666,5043
0.8336333,5421
0.8353,3654
0.8369667,3692
0.8386334,3327
0.8403,2799
0.8419667,2965
0.8436334,2497
0.8453,2235
0.8469667,2004
0.8486333,1724
0.8503,1541
0.8519667,1594
0.8536333,1498
0.8553,1515
0.8569667,1152
0.8586333,1454
0.8603,1556
0.8619667,1384
0.8636333,1611
0.8653,1421
0.8669667,1757
0.8686333,1887
0.8703,2358
0.8719667,2430
0.8736333,2308
0.8753,2210
0.8769667,2165
0.8786333,2086
0.8803,1933
0.8819667,2055
0.8836333,1992
0.8853,1543
0.8869666,2000
0.8886333,1827
0.8903,1599
0.8919666,1849
0.8936333,1541
0.8953,1662
0.8969667,1656
0.8986334,1654
0.9003,1638
0.9019667,1621
0.9036334,1665
0.9053,1395
0.9069667,1779
0.9086334,1368
0.9103,1979
0.9119667,1668
0.9136333,1716
0.9153,1594
0.9169667,1687
0.9186333,1734
0.9203,1768
0.9219667,1813
0.9236333,1634
0.9253,1654
0.9269667,1908
0.9286333,1860
0.9303,1618
0.9319667,1700
0.9336333,1453
0.9353,1546
0.9369667,1577
0.9386333,1571
0.9403,1435
0.9419667,1812
0.9436333,1217
0.9453,1652
0.9469666,1536
0.9486333,1467
0.9503,1503
0.9519666,1504
0.9536333,1456
0.9553,1486
0.9569666,1513
0.9586333,1231
0.9603,1298
0.9619667,1585
0.9636334,1291
0.9653,1594
0.9669667,1644
0.9686334,1855
0.9703,2030
0.9719667,2380
0.9736333,2442
0.9753,2534
0.9769667,3143
0.9786333,3605
0.9803,3604
0.9819667,4219
0.9836333,4494
0.9853,4880
0.9869667,6002
0.9886333,6083
0.9903,7059
0.9919667,7349
0.9936333,7713
0.9953,8045
0.9969667,8768
0.9986333,9500
1.0003,9800
1.001967,10852
1.003633,10404
1.0053,10396
1.006967,10516
1.008633,10532
1.0103,10552
1.011967,10104
1.013633,9816
1.0153,9696
1.016967,8484
1.018633,8276
1.0203,7711
1.021967,7060
1.023633,6486
1.0253,5705
1.026967,4997
1.028633,4580
1.0303,3979
1.031967,3655
1.033633,3562
1.0353,3104
1.036967,3208
1.038633,2766
1.0403,2439
1.041967,2406
1.043633,2589
1.0453,2419
1.046967,2330
1.048633,2114
1.0503,1673
1.051967,1609
1.053633,1952
1.0553,1942
1.056967,1752
1.058633,1834
1.0603,1640
1.061967,1582
1.063633,1771
1.0653,1692
1.066967,1630
1.068633,1688
1.0703,1242
1.071967,1678
1.073633,1587
1.0753,1361
1.076967,1855
1.078633,1676
1.0803,1624
1.081967,1640
1.083633,1867
1.0853,1869
1.086967,1844
1.088633,1818
1.0903,1839
1.091967,1860
1.093633,1956
1.0953,1945
1.096967,1933
1.098633,2075
1.1003,2063
1.101967,2051
1.103633,2107
1.1053,2192
1.106967,2362
1.108633,2397
1.1103,2164
1.111967,2128
1.113633,1913
1.1153,2059
1.116967,2010
1.118633,1837
1.1203,1811
1.121967,1695
1.123633,1582
1.1253,1662
1.126967,1446
1.128633,1715
1.1303,1278
1.131967,1291
1.133633,1645
1.1353,1223
1.136967,1330
1.138633,1166
1.1403,1276
1.141967,1304
1.143633,942
1.1453,1209
1.146967,1377
1.148633,1089
1.1503,1023
1.151967,1030
1.153633,1006
1.1553,943
1.156967,1064
1.158633,955
1.1603,925
1.161967,967
1.163633,1024
1.1653,999
1.166967,956
1.168633,913
1.1703,876
1.171967,879
1.173633,799
1.1753,891
1.176967,836
1.178633,781
1.1803,962
1.181967,1070
1.183633,1023
1.1853,827
1.186967,911
1.188633,999
1.1903,1026
1.191967,930
1.193633,833
1.1953,1031
1.196967,1075
1.198633,1110
