"SampleName","A2Rd2_01-19"
"Target Mass 1",
"Column Name","IA-3 (3um, 4.6X100)"
"Channel","QDa 1: SIR Ch1"
0.00195,432
0.003616667,537
0.005283333,631
0.00695,631
0.008616666,609
0.01028333,597
0.01195,665
0.01361667,661
0.01528333,585
0.01695,698
0.01861667,693
0.02028333,757
0.02195,625
0.02361667,467
0.02528333,618
0.02695,685
0.02861667,610
0.03028333,562
0.03195,611
0.03361667,570
0.03528333,571
0.03695,558
0.03861667,642
0.04028333,593
0.04195,545
0.04361667,583
0.04528333,621
0.04695,616
0.04861667,611
0.05028334,622
0.05195,632
0.05361667,659
0.05528333,661
0.05695,569
0.05861667,496
0.06028333,541
0.06195,578
0.06361666,555
0.06528334,669
0.06695,682
0.06861667,626
0.07028333,569
0.07195,591
0.07361667,453
0.07528333,591
0.07695,485
0.07861666,587
0.08028334,607
0.08195,626
0.08361667,439
0.08528333,578
0.08695,714
0.08861667,442
0.09028333,560
0.09195,684
0.09361666,522
0.09528334,555
0.09695,660
0.09861667,627
0.1002833,577
0.10195,539
0.1036167,611
0.1052833,438
0.10695,603
0.1086167,511
0.1102833,554
0.11195,578
0.1136167,564
0.1152833,549
0.11695,446
0.1186167,558
0.1202833,487
0.12195,602
0.1236167,669
0.1252833,607
0.12695,705
0.1286167,484
0.1302833,603
0.13195,487
0.1336167,637
0.1352833,606
0.13695,575
0.1386167,671
0.1402833,445
0.14195,616
0.1436167,587
0.1452833,703
0.14695,489
0.1486167,438
0.1502833,527
0.15195,491
0.1536167,413
0.1552833,440
0.15695,449
0.1586167,457
0.1602833,486
0.16195,514
0.1636167,495
0.1652833,579
0.16695,574
0.1686167,569
0.1702833,436
0.17195,672
0.1736167,604
0.1752833,633
0.17695,692
0.1786167,697
0.1802833,607
0.18195,596
0.1836167,532
0.1852833,546
0.18695,423
0.1886167,439
0.1902833,542
0.19195,448
0.1936167,358
0.1952833,576
0.19695,570
0.1986167,548
0.2002833,437
0.20195,393
0.2036167,426
0.2052833,459
0.20695,534
0.2086167,514
0.2102833,431
0.21195,528
0.2136167,625
0.2152833,558
0.21695,480
0.2186167,627
0.2202833,638
0.22195,586
0.2236167,533
0.2252833,603
0.22695,560
0.2286167,518
0.2302833,571
0.23195,624
0.2336167,691
0.2352833,431
0.23695,505
0.2386167,620
0.2402833,430
0.24195,538
0.2436167,672
0.2452833,457
0.24695,509
0.2486167,544
0.2502833,546
0.25195,468
0.2536167,489
0.2552833,510
0.25695,489
0.2586167,467
0.2602833,541
0.26195,550
0.2636167,570
0.2653,500
0.26695,498
0.2686167,496
0.2702833,632
0.27195,738
0.2736167,693
0.2752833,578
0.27695,603
0.2786167,567
0.2803,463
0.28195,536
0.2836167,429
0.2852833,504
0.28695,453
0.2886167,483
0.2902833,512
0.29195,611
0.2936167,664
0.2952833,601
0.29695,515
0.2986333,620
0.3002833,442
0.30195,521
0.3036333,601
0.3052833,628
0.30695,557
0.3086167,633
0.3102833,606
0.31195,487
0.3136167,612
0.3153,537
0.31695,531
0.3186167,581
0.3202833,582
0.32195,583
0.3236167,568
0.3252833,509
0.32695,537
0.3286167,564
0.3302833,555
0.33195,549
0.3336333,565
0.3353,509
0.33695,453
0.3386333,428
0.3402833,553
0.34195,571
0.3436167,523
0.3452833,482
0.3469667,581
0.3486167,674
0.3503,647
0.35195,654
0.3536333,378
0.3552833,585
0.35695,644
0.3586167,516
0.3602833,517
0.36195,716
0.3636333,1190
0.3653,2467
0.3669667,4594
0.3686333,6635
0.3703,6861
0.3719667,6589
0.3736333,5733
0.3752833,4445
0.37695,4350
0.3786333,3875
0.3803,3102
0.38195,2522
0.3836167,2312
0.3853,2142
0.38695,1711
0.3886333,1511
0.3902833,1848
0.3919667,1560
0.3936167,1365
0.3953,1322
0.3969667,1957
0.3986167,2012
0.4002833,2500
0.40195,2671
0.4036333,3073
0.4053,2654
0.4069667,2752
0.4086333,2468
0.4102833,2367
0.4119667,2498
0.4136333,2250
0.4153,2372
0.41695,2405
0.4186167,2438
0.4203,1986
0.4219667,2139
0.4236333,1951
0.4253,1489
0.4269667,1927
0.4286333,1723
0.4303,1681
0.4319667,1660
0.4336333,1181
0.4353,1462
0.4369667,1422
0.4386333,1617
0.4403,2024
0.4419667,2421
0.4436333,3093
0.4453,4610
0.4469667,5699
0.4486333,8476
0.4503,12144
0.4519667,18436
0.4536333,26564
0.4553,42192
0.4569667,60960
0.4586333,92304
0.4603,133120
0.4619667,175424
0.4636333,232960
0.4653,291520
0.4669667,358656
0.4686333,402112
0.4703,429888
0.4719667,452096
0.4736333,448000
0.4753,417280
0.4769667,382400
0.4786333,332672
0.4803,283072
0.4819667,225600
0.4836333,180032
0.4853,147008
0.4869667,112640
0.4886333,89632
0.4903,69888
0.4919667,56976
0.4936333,45200
0.4953,37552
0.4969667,30880
0.4986333,26208
0.5003,21712
0.5019667,18468
0.5036333,15592
0.5053,13468
0.5069667,10876
0.5086333,9468
0.5103,8472
0.5119666,8052
0.5136333,7135
0.5153,6830
0.5169666,5745
0.5186333,5337
0.5203,5358
0.5219667,5376
0.5236334,5090
0.5253,4467
0.5269667,4901
0.5286334,4240
0.5303,3742
0.5319667,3911
0.5336334,3668
0.5353,3758
0.5369667,3530
0.5386333,3535
0.5403,3541
0.5419667,3481
0.5436333,2774
0.5453,3157
0.5469667,2743
0.5486333,2930
0.5503,2483
0.5519667,2879
0.5536333,2533
0.5553,2778
0.5569667,2426
0.5586333,2354
0.5603,2205
0.5619667,2174
0.5636333,2155
0.5653,2136
0.5669667,2095
0.5686333,2061
0.5703,2034
0.5719666,2007
0.5736333,2011
0.5753,2015
0.5769666,2002
0.5786333,2076
0.5803,2150
0.5819666,2310
0.5836333,2245
0.5853,2085
0.5869667,2232
0.5886334,2213
0.5903,2084
0.5919667,1956
0.5936334,1671
0.5953,2357
0.5969667,2314
0.5986333,2036
0.6003,2215
0.6019667,2047
0.6036333,1937
0.6053,2128
0.6069667,1980
0.6086333,1926
0.6103,2060
0.6119667,2079
0.6136333,2122
0.6153,2014
0.6169667,1856
0.6186333,2058
0.6203,2075
0.6219667,1714
0.6236333,1966
0.6253,1794
0.6269667,1713
0.6286333,1751
0.6303,1738
0.6319667,1701
0.6336333,1692
0.6353,1400
0.6369666,1552
0.6386333,1178
0.6403,1404
0.6419666,1350
0.6436333,1510
0.6453,1283
0.6469667,1436
0.6486334,1262
0.6503,1364
0.6519667,1255
0.6536334,1245
0.6553,1159
0.6569667,1129
0.6586334,1100
0.6603,1120
0.6619667,1141
0.6636333,1273
0.6653,1253
0.6669667,1048
0.6686333,1209
0.6703,1232
0.6719667,1080
0.6736333,1055
0.6753,1030
0.6769667,1035
0.6786333,1004
0.6803,1167
0.6819667,1159
0.6836333,1000
0.6853,1034
0.6869667,1068
0.6886333,1086
0.6903,1105
0.6919667,1067
0.6936333,1069
0.6953,1104
0.6969666,1040
0.6986333,975
0.7003,977
0.7019666,920
0.7036333,864
0.7053,1169
0.7069666,1166
0.7086333,985
0.7103,1235
0.7119667,1003
0.7136334,1041
0.7153,1069
0.7169667,1132
0.7186334,1090
0.7203,1002
0.7219667,1106
0.7236333,1094
0.7253,1036
0.7269667,958
0.7286333,880
0.7303,916
0.7319667,1095
0.7336333,1048
0.7353,1000
0.7369667,1166
0.7386333,919
0.7403,1068
0.7419667,946
0.7436333,1068
0.7453,895
0.7469667,956
0.7486333,1043
0.7503,1103
0.7519667,1118
0.7536333,1093
0.7553,1021
0.7569667,961
0.7586333,921
0.7603,1022
0.7619666,954
0.7636333,886
0.7653,1132
0.7669666,1080
0.7686333,1167
0.7703,1077
0.7719667,986
0.7736334,821
0.7753,1167
0.7769667,1082
0.7786334,1151
0.7803,938
0.7819667,1073
0.7836334,1198
0.7853,1097
0.7869667,1124
0.7886333,992
0.7903,1137
0.7919667,1105
0.7936333,985
0.7953,1040
0.7969667,832
0.7986333,864
0.8003,896
0.8019667,728
0.8036333,959
0.8053,948
0.8069667,996
0.8086333,1027
0.8103,1051
0.8119667,1027
0.8136333,1009
0.8153,1060
0.8169667,1088
0.8186333,1075
0.8203,1069
0.8219666,1114
0.8236333,884
0.8253,964
0.8269666,1070
0.8286333,923
0.8303,1009
0.8319666,1030
0.8336333,971
0.8353,1003
0.8369667,1013
0.8386334,1047
0.8403,1081
0.8419667,946
0.8436334,1108
0.8453,1183
0.8469667,923
0.8486333,992
0.8503,894
0.8519667,925
0.8536333,1081
0.8553,786
0.8569667,875
0.8586333,791
0.8603,761
0.8619667,873
0.8636333,985
0.8653,1487
0.8669667,1854
0.8686333,1812
0.8703,2516
0.8719667,3496
0.8736333,3934
0.8753,4810
0.8769667,4783
0.8786333,5212
0.8803,4393
0.8819667,4612
0.8836333,4388
0.8853,4239
0.8869666,3526
0.8886333,3911
0.8903,4420
0.8919666,4131
0.8936333,4243
0.8953,4219
0.8969667,3910
0.8986334,4018
0.9003,4126
0.9019667,4234
0.9036334,4481
0.9053,4391
0.9069667,4302
0.9086334,4431
0.9103,4560
0.9119667,4538
0.9136333,4517
0.9153,4260
0.9169667,4264
0.9186333,4267
0.9203,4243
0.9219667,4290
0.9236333,4336
0.9253,4000
0.9269667,4023
0.9286333,4104
0.9303,4025
0.9319667,3764
0.9336333,3490
0.9353,3518
0.9369667,3193
0.9386333,3213
0.9403,3104
0.9419667,2683
0.9436333,2563
0.9453,2579
0.9469666,2460
0.9486333,2122
0.9503,2041
0.9519666,1915
0.9536333,2025
0.9553,2006
0.9569666,1986
0.9586333,1449
0.9603,1483
0.9619667,1382
0.9636334,1483
0.9653,1150
0.9669667,1397
0.9686334,854
0.9703,1171
0.9719667,1105
0.9736333,925
0.9753,968
0.9769667,1140
0.9786333,813
0.9803,838
0.9819667,853
0.9836333,800
0.9853,751
0.9869667,885
0.9886333,782
0.9903,517
0.9919667,733
0.9936333,691
0.9953,827
0.9969667,697
0.9986333,748
1.0003,775
1.001967,672
1.003633,581
1.0053,606
1.006967,631
1.008633,685
1.0103,684
1.011967,683
1.013633,704
1.0153,857
1.016967,830
1.018633,707
1.0203,803
1.021967,635
1.023633,651
1.0253,666
1.026967,718
1.028633,738
1.0303,771
1.031967,825
1.033633,617
1.0353,700
1.036967,706
1.038633,825
1.0403,786
1.041967,746
1.043633,724
1.0453,800
1.046967,730
1.048633,659
1.0503,828
1.051967,601
1.053633,830
1.0553,826
1.056967,804
1.058633,732
1.0603,692
1.061967,583
1.063633,671
1.0653,644
1.066967,644
1.068633,709
1.0703,667
1.071967,624
1.073633,694
1.0753,764
1.076967,721
1.078633,769
1.0803,714
1.081967,658
1.083633,706
1.0853,725
1.086967,706
1.088633,687
1.0903,683
1.091967,679
1.093633,611
1.0953,543
1.096967,680
1.098633,662
1.1003,644
1.101967,595
1.103633,641
1.1053,686
1.106967,690
1.108633,791
1.1103,761
1.111967,672
1.113633,790
1.1153,731
1.116967,750
1.118633,706
1.1203,692
1.121967,687
1.123633,658
1.1253,628
1.126967,694
1.128633,698
1.1303,702
1.131967,696
1.133633,722
1.1353,704
1.136967,685
1.138633,745
1.1403,808
1.141967,772
1.143633,651
1.1453,885
1.146967,860
1.148633,738
1.1503,862
1.151967,735
1.153633,706
1.1553,700
1.156967,805
1.158633,755
1.1603,705
1.161967,765
1.163633,831
1.1653,893
1.166967,842
1.168633,792
1.1703,784
1.171967,777
1.173633,754
1.1753,731
1.176967,764
1.178633,751
1.1803,739
1.181967,752
1.183633,765
1.1853,932
1.186967,992
1.188633,1057
1.1903,823
1.191967,669
1.193633,788
1.1953,972
1.196967,892
1.198633,1044
