"SampleName","A2Rd2_01-8"
"Target Mass 1",
"Column Name","IA-3 (3um, 4.6X100)"
"Channel","QDa 1: SIR Ch2"
0.00195,588
0.003616667,677
0.005283333,954
0.00695,697
0.008616666,709
0.01028333,1029
0.01195,880
0.01361667,741
0.01528333,996
0.01695,944
0.01861667,929
0.02028333,803
0.02195,857
0.02361667,965
0.02528333,978
0.02695,1006
0.02861667,975
0.03028333,907
0.03195,881
0.03361667,898
0.03528333,915
0.03695,970
0.03861667,964
0.04028333,957
0.04195,984
0.04361667,1010
0.04528333,1024
0.04695,891
0.04861667,970
0.05028334,884
0.05195,987
0.05361667,869
0.05528333,823
0.05695,777
0.05861667,898
0.06028333,723
0.06195,803
0.06361666,909
0.06528334,863
0.06695,816
0.06861667,880
0.07028333,932
0.07195,972
0.07361667,856
0.07528333,999
0.07695,936
0.07861666,878
0.08028334,907
0.08195,858
0.08361667,811
0.08528333,648
0.08695,872
0.08861667,869
0.09028333,890
0.09195,849
0.09361666,809
0.09528334,934
0.09695,965
0.09861667,902
0.1002833,913
0.10195,856
0.1036167,1017
0.1052833,1086
0.10695,731
0.1086167,1002
0.1102833,867
0.11195,1025
0.1136167,859
0.1152833,843
0.11695,923
0.1186167,835
0.1202833,1095
0.12195,1128
0.1236167,904
0.1252833,1215
0.12695,843
0.1286167,1111
0.1302833,1008
0.13195,775
0.1336167,1117
0.1352833,1019
0.13695,791
0.1386167,775
0.1402833,850
0.14195,858
0.1436167,768
0.1452833,811
0.14695,854
0.1486167,801
0.1502833,747
0.15195,898
0.1536167,853
0.1552833,806
0.15695,809
0.1586167,791
0.1602833,838
0.16195,884
0.1636167,729
0.1652833,938
0.16695,764
0.1686167,835
0.1702833,827
0.17195,879
0.1736167,865
0.1752833,850
0.17695,833
0.1786167,761
0.1802833,828
0.18195,832
0.1836167,733
0.1852833,907
0.18695,853
0.1886167,859
0.1902833,845
0.19195,766
0.1936167,799
0.1952833,833
0.19695,894
0.1986167,864
0.2002833,833
0.20195,676
0.2036167,834
0.2052833,852
0.20695,786
0.2086167,1024
0.2102833,1071
0.21195,966
0.2136167,928
0.2152833,1062
0.21695,984
0.2186167,1078
0.2202833,769
0.22195,1035
0.2236167,1036
0.2252833,932
0.22695,1196
0.2286167,1163
0.2302833,1268
0.23195,1052
0.2336167,1287
0.2352833,1087
0.23695,1160
0.2386167,1129
0.2402833,1295
0.24195,1308
0.2436167,1228
0.2452833,1020
0.24695,964
0.2486167,1094
0.2502833,1199
0.25195,1233
0.2536167,862
0.2552833,1076
0.25695,1057
0.2586167,973
0.2602833,942
0.26195,1236
0.2636167,1193
0.2652833,1083
0.26695,1208
0.2686167,1082
0.2702833,1102
0.27195,1122
0.2736167,1124
0.2752833,1125
0.27695,1006
0.2786167,1063
0.2803,1035
0.28195,1002
0.2836167,970
0.2852833,974
0.28695,1021
0.2886167,1023
0.2902833,1026
0.2919667,923
0.2936167,865
0.2952833,808
0.29695,951
0.2986333,1095
0.3002833,1070
0.30195,1068
0.3036333,1066
0.3052833,1090
0.30695,1067
0.3086167,1045
0.3102833,1080
0.31195,1115
0.3136167,1098
0.3153,1112
0.31695,1094
0.3186167,1009
0.3202833,1071
0.32195,1132
0.3236167,1078
0.3252833,1023
0.32695,1024
0.3286167,1396
0.3302833,1369
0.33195,1371
0.3336333,1403
0.3353,1395
0.3369667,1388
0.3386167,1595
0.3403,1113
0.3419667,1357
0.3436333,1245
0.3452833,1310
0.34695,1375
0.3486167,1257
0.3503,1373
0.3519667,1417
0.3536167,1461
0.3553,1511
0.3569667,1561
0.3586167,1296
0.3603,1666
0.36195,4611
0.3636167,6000
0.3652833,6958
0.36695,6763
0.3686333,6410
0.3703,4565
0.3719667,3672
0.3736333,2714
0.3752833,2327
0.3769667,1994
0.3786167,1447
0.3802833,1388
0.38195,1218
0.3836167,1156
0.3853,1003
0.3869667,711
0.3886333,862
0.3903,734
0.3919667,729
0.3936333,890
0.3952833,1052
0.3969667,1182
0.3986167,1329
0.4003,1490
0.4019667,1299
0.4036333,1260
0.4053,1547
0.4069667,1349
0.4086167,1095
0.4103,1250
0.41195,1039
0.4136333,1149
0.4152833,1177
0.4169667,1054
0.4186333,1034
0.4203,1027
0.4219667,1065
0.4236333,1066
0.4253,1052
0.4269667,1038
0.4286333,1315
0.4303,1319
0.4319667,1265
0.4336333,1471
0.4353,1401
0.4369667,1331
0.4386333,1407
0.4403,1483
0.4419667,1462
0.4436333,1685
0.4453,1726
0.4469667,1553
0.4486333,1722
0.4503,1795
0.4519667,1938
0.4536333,1933
0.4553,1976
0.4569667,2019
0.4586333,2269
0.4603,2238
0.4619667,2055
0.4636333,2096
0.4653,2068
0.4669667,2039
0.4686333,1725
0.4703,2064
0.4719667,1848
0.4736333,1840
0.4753,1791
0.4769667,1701
0.4786333,1745
0.4803,1569
0.4819667,1735
0.4836333,1506
0.4853,1608
0.4869667,1572
0.4886333,1578
0.4903,1584
0.4919667,1605
0.4936333,1576
0.4953,1547
0.4969667,1323
0.4986333,1373
0.5003,1074
0.5019667,1287
0.5036333,1354
0.5053,1241
0.5069667,1256
0.5086333,1193
0.5103,1135
0.5119666,1244
0.5136333,1026
0.5153,1082
0.5169666,1147
0.5186333,1211
0.5203,1213
0.5219667,908
0.5236334,1239
0.5253,1219
0.5269667,1277
0.5286334,1292
0.5303,1273
0.5319667,1168
0.5336334,1343
0.5353,1358
0.5369667,1416
0.5386333,1355
0.5403,1393
0.5419667,1236
0.5436333,1472
0.5453,1227
0.5469667,1253
0.5486333,1444
0.5503,1119
0.5519667,1115
0.5536333,1070
0.5553,1246
0.5569667,932
0.5586333,972
0.5603,1042
0.5619667,867
0.5636333,1017
0.5653,906
0.5669667,872
0.5686333,1054
0.5703,1045
0.5719666,1022
0.5736333,999
0.5753,1152
0.5769666,1115
0.5786333,1052
0.5803,1190
0.5819666,1192
0.5836333,1194
0.5853,927
0.5869667,1047
0.5886334,1203
0.5903,955
0.5919667,955
0.5936334,1075
0.5953,1117
0.5969667,1158
0.5986333,1255
0.6003,1225
0.6019667,1223
0.6036333,1294
0.6053,1093
0.6069667,1289
0.6086333,1072
0.6103,1060
0.6119667,1355
0.6136333,1050
0.6153,1141
0.6169667,1022
0.6186333,1050
0.6203,919
0.6219667,1095
0.6236333,850
0.6253,985
0.6269667,974
0.6286333,964
0.6303,957
0.6319667,1170
0.6336333,1215
0.6353,1087
0.6369666,977
0.6386333,1251
0.6403,864
0.6419666,978
0.6436333,987
0.6453,988
0.6469667,961
0.6486334,791
0.6503,853
0.6519667,916
0.6536334,819
0.6553,997
0.6569667,993
0.6586334,1109
0.6603,850
0.6619667,806
0.6636333,1050
0.6653,972
0.6669667,1016
0.6686333,1097
0.6703,798
0.6719667,1058
0.6736333,1148
0.6753,789
0.6769667,956
0.6786333,1020
0.6803,958
0.6819667,984
0.6836333,843
0.6853,1001
0.6869667,919
0.6886333,883
0.6903,846
0.6919667,1021
0.6936333,997
0.6953,804
0.6969666,1013
0.6986333,879
0.7003,1042
0.7019666,1008
0.7036333,834
0.7053,887
0.7069666,884
0.7086333,876
0.7103,867
0.7119667,791
0.7136334,1004
0.7153,986
0.7169667,848
0.7186334,796
0.7203,832
0.7219667,771
0.7236333,709
0.7253,783
0.7269667,857
0.7286333,1095
0.7303,1042
0.7319667,940
0.7336333,963
0.7353,1028
0.7369667,953
0.7386333,943
0.7403,985
0.7419667,973
0.7436333,951
0.7453,708
0.7469667,1110
0.7486333,781
0.7503,1125
0.7519667,997
0.7536333,735
0.7553,900
0.7569667,865
0.7586333,1027
0.7603,942
0.7619666,859
0.7636333,829
0.7653,874
0.7669666,842
0.7686333,810
0.7703,831
0.7719667,782
0.7736334,734
0.7753,821
0.7769667,1009
0.7786334,1068
0.7803,952
0.7819667,1049
0.7836334,902
0.7853,821
0.7869667,930
0.7886333,742
0.7903,815
0.7919667,835
0.7936333,904
0.7953,972
0.7969667,941
0.7986333,784
0.8003,823
0.8019667,890
0.8036333,932
0.8053,897
0.8069667,856
0.8086333,900
0.8103,903
0.8119667,909
0.8136333,914
0.8153,951
0.8169667,987
0.8186333,823
0.8203,1048
0.8219666,904
0.8236333,1096
0.8253,936
0.8269666,907
0.8286333,845
0.8303,900
0.8319666,873
0.8336333,903
0.8353,758
0.8369667,887
0.8386334,988
0.8403,1033
0.8419667,848
0.8436334,826
0.8453,922
0.8469667,887
0.8486333,852
0.8503,917
0.8519667,912
0.8536333,946
0.8553,944
0.8569667,942
0.8586333,1051
0.8603,1240
0.8619667,1249
0.8636333,1283
0.8653,1317
0.8669667,1378
0.8686333,1439
0.8703,1623
0.8719667,1678
0.8736333,1267
0.8753,1376
0.8769667,1355
0.8786333,1437
0.8803,1106
0.8819667,1537
0.8836333,1369
0.8853,1422
0.8869666,1199
0.8886333,1516
0.8903,1253
0.8919666,1138
0.8936333,1440
0.8953,1203
0.8969667,1424
0.8986334,1229
0.9003,1379
0.9019667,1482
0.9036334,1412
0.9053,1232
0.9069667,1384
0.9086334,1348
0.9103,1643
0.9119667,1639
0.9136333,1471
0.9153,1191
0.9169667,1515
0.9186333,1388
0.9203,1444
0.9219667,1393
0.9236333,1337
0.9253,1282
0.9269667,1340
0.9286333,1416
0.9303,1421
0.9319667,1426
0.9336333,1402
0.9353,1378
0.9369667,1391
0.9386333,1410
0.9403,1403
0.9419667,1395
0.9436333,1302
0.9453,1288
0.9469666,1415
0.9486333,1497
0.9503,1413
0.9519666,1329
0.9536333,1325
0.9553,1173
0.9569666,1116
0.9586333,1035
0.9603,997
0.9619667,1043
0.9636334,957
0.9653,1001
0.9669667,1046
0.9686334,914
0.9703,1076
0.9719667,806
0.9736333,1025
0.9753,950
0.9769667,1064
0.9786333,864
0.9803,805
0.9819667,1022
0.9836333,993
0.9853,971
0.9869667,925
0.9886333,878
0.9903,944
0.9919667,878
0.9936333,909
0.9953,940
0.9969667,994
0.9986333,1121
1.0003,1135
1.001967,847
1.003633,850
1.0053,838
1.006967,996
1.008633,971
1.0103,954
1.011967,886
1.013633,856
1.0153,903
1.016967,1083
1.018633,1061
1.0203,1085
1.021967,956
1.023633,1045
1.0253,1034
1.026967,1062
1.028633,1047
1.0303,1054
1.031967,1062
1.033633,1093
1.0353,1125
1.036967,1000
1.038633,914
1.0403,1031
1.041967,794
1.043633,1002
1.0453,879
1.046967,1020
1.048633,974
1.0503,926
1.051967,810
1.053633,845
1.0553,881
1.056967,1004
1.058633,1039
1.0603,986
1.061967,929
1.063633,982
1.0653,989
1.066967,997
1.068633,991
1.0703,932
1.071967,872
1.073633,879
1.0753,940
1.076967,945
1.078633,951
1.0803,927
1.081967,925
1.083633,987
1.0853,730
1.086967,829
1.088633,1015
1.0903,992
1.091967,758
1.093633,883
1.0953,867
1.096967,918
1.098633,879
1.1003,856
1.101967,833
1.103633,888
1.1053,889
1.106967,890
1.108633,911
1.1103,889
1.111967,866
1.113633,972
1.1153,925
1.116967,878
1.118633,993
1.1203,850
1.121967,872
1.123633,865
1.1253,835
1.126967,805
1.128633,797
1.1303,788
1.131967,676
1.133633,792
1.1353,809
1.136967,826
1.138633,1069
1.1403,1042
1.141967,919
1.143633,854
1.1453,763
1.146967,842
1.148633,877
1.1503,957
1.151967,884
1.153633,927
1.1553,1037
1.156967,977
1.158633,918
1.1603,1026
1.161967,874
1.163633,959
1.1653,977
1.166967,1005
1.168633,922
1.1703,847
1.171967,761
1.173633,816
1.1753,872
1.176967,870
1.178633,895
1.1803,919
1.181967,896
1.183633,873
1.1853,819
1.186967,766
1.188633,741
1.1903,941
1.191967,1047
1.193633,894
1.1953,971
1.196967,772
1.198633,933
