"SampleName","A2Rd2_01-36"
"Target Mass 1",
"Column Name","IA-3 (3um, 4.6X100)"
"Channel","QDa 1: SIR Ch1"
0.00195,401
0.003616667,360
0.005283333,605
0.00695,683
0.008616666,588
0.01028333,653
0.01195,713
0.01361667,409
0.01528333,592
0.01695,599
0.01861667,671
0.02028333,573
0.02195,578
0.02361667,542
0.02528333,456
0.02695,565
0.02861667,490
0.03028333,563
0.03195,507
0.03361667,538
0.03528333,560
0.03695,481
0.03861667,480
0.04028333,510
0.04195,499
0.04361667,480
0.04528333,529
0.04695,538
0.04861667,547
0.05028334,457
0.05195,488
0.05361667,519
0.05528333,521
0.05695,512
0.05861667,503
0.06028333,453
0.06195,479
0.06361666,564
0.06528334,540
0.06695,548
0.06861667,541
0.07028333,534
0.07195,620
0.07361667,632
0.07528333,469
0.07695,484
0.07861666,474
0.08028334,522
0.08195,520
0.08361667,536
0.08528333,518
0.08695,490
0.08861667,532
0.09028333,527
0.09195,611
0.09361666,599
0.09528334,516
0.09695,490
0.09861667,515
0.1002833,466
0.10195,515
0.1036167,498
0.1052833,480
0.10695,525
0.1086167,520
0.1102833,515
0.11195,436
0.1136167,356
0.1152833,670
0.11695,582
0.1186167,365
0.1202833,579
0.12195,604
0.1236167,501
0.1252833,576
0.12695,528
0.1286167,491
0.1302833,624
0.13195,435
0.1336167,458
0.1352833,415
0.13695,434
0.1386167,454
0.1402833,450
0.14195,645
0.1436167,648
0.1452833,566
0.14695,588
0.1486167,537
0.1502833,471
0.15195,485
0.1536167,532
0.1552833,509
0.15695,450
0.1586167,432
0.1602833,414
0.16195,476
0.1636167,457
0.1652833,454
0.16695,452
0.1686167,452
0.1702833,451
0.17195,319
0.1736167,314
0.1752833,309
0.17695,670
0.1786167,713
0.1802833,583
0.18195,536
0.1836167,595
0.1852833,476
0.18695,468
0.1886167,393
0.1902833,560
0.19195,571
0.1936333,553
0.1952833,570
0.19695,585
0.1986167,450
0.2002833,622
0.20195,358
0.2036167,542
0.2052833,370
0.20695,456
0.2086167,577
0.2103,568
0.21195,367
0.2136167,554
0.2152833,526
0.21695,541
0.2186167,485
0.2202833,501
0.22195,510
0.2236167,461
0.2252833,536
0.2269667,545
0.2286333,567
0.2302833,608
0.23195,546
0.2336167,484
0.2352833,400
0.23695,417
0.2386167,435
0.2402833,384
0.24195,586
0.2436167,601
0.2453,477
0.24695,571
0.2486167,554
0.2502833,538
0.25195,410
0.2536333,541
0.2552833,561
0.25695,537
0.2586167,475
0.2602833,514
0.26195,498
0.2636333,483
0.2652833,469
0.26695,495
0.2686167,597
0.2703,602
0.2719667,555
0.2736167,486
0.2752833,531
0.2769667,488
0.2786333,488
0.2803,489
0.28195,350
0.2836167,457
0.2852833,475
0.2869667,622
0.2886167,635
0.2903,584
0.29195,521
0.2936167,546
0.2953,450
0.29695,452
0.2986333,491
0.3003,664
0.30195,617
0.3036333,571
0.3053,421
0.3069667,560
0.3086167,629
0.3103,595
0.3119667,580
0.3136333,519
0.3153,616
0.3169667,679
0.3186333,676
0.3203,542
0.3219667,734
0.3236333,617
0.3252833,452
0.3269667,647
0.3286333,551
0.3303,698
0.3319667,475
0.3336333,589
0.3353,443
0.3369667,590
0.3386333,493
0.3403,613
0.3419667,654
0.3436333,560
0.3453,502
0.3469667,579
0.3486333,574
0.3503,499
0.3519667,501
0.3536333,422
0.3553,501
0.3569667,475
0.3586333,449
0.3603,671
0.3619667,735
0.3636333,1002
0.3653,1452
0.3669667,2963
0.3686333,4631
0.3703,7255
0.3719667,9468
0.3736333,9484
0.3753,9208
0.3769667,8576
0.3786333,7246
0.3803,6184
0.3819667,4732
0.3836333,4946
0.3853,4458
0.3869667,3273
0.3886333,2887
0.3903,3032
0.3919667,2067
0.3936333,1495
0.3953,1796
0.3969667,1308
0.3986333,1228
0.4003,1583
0.4019667,1457
0.4036333,1493
0.4053,1312
0.4069667,1413
0.4086333,1480
0.4103,1547
0.4119667,1496
0.4136333,1511
0.4153,1670
0.4169667,1775
0.4186333,1881
0.4203,1903
0.4219667,1707
0.4236333,2098
0.4253,1547
0.4269667,1522
0.4286333,1782
0.4303,1368
0.4319667,1301
0.4336333,1471
0.4353,1437
0.4369667,1798
0.4386333,2315
0.4403,3409
0.4419667,4343
0.4436333,7100
0.4453,9388
0.4469667,13048
0.4486333,17696
0.4503,25592
0.4519667,34272
0.4536333,45344
0.4553,58144
0.4569667,74272
0.4586333,92592
0.4603,115312
0.4619667,139328
0.4636333,164736
0.4653,204608
0.4669667,233856
0.4686333,267520
0.4703,305792
0.4719667,328576
0.4736333,345856
0.4753,345152
0.4769667,336448
0.4786333,306368
0.4803,274880
0.4819667,241920
0.4836333,198656
0.4853,161152
0.4869667,127088
0.4886333,100960
0.4903,76512
0.4919667,58544
0.4936333,44256
0.4953,34080
0.4969667,26960
0.4986333,19192
0.5003,15752
0.5019667,13708
0.5036333,11044
0.5053,10352
0.5069667,8532
0.5086333,7441
0.5103,7050
0.5119666,6496
0.5136333,5197
0.5153,5203
0.5169666,4653
0.5186333,5003
0.5203,4244
0.5219667,3840
0.5236334,3828
0.5253,3726
0.5269667,3660
0.5286334,3757
0.5303,3381
0.5319667,3329
0.5336334,2659
0.5353,2798
0.5369667,2783
0.5386333,2718
0.5403,2723
0.5419667,2727
0.5436333,2360
0.5453,2387
0.5469667,2326
0.5486333,2159
0.5503,2293
0.5519667,2102
0.5536333,1653
0.5553,1622
0.5569667,1759
0.5586333,1826
0.5603,1779
0.5619667,1856
0.5636333,1500
0.5653,1694
0.5669667,1491
0.5686333,1333
0.5703,1393
0.5719666,1516
0.5736333,1350
0.5753,1411
0.5769666,1337
0.5786333,1347
0.5803,1419
0.5819666,1321
0.5836333,1223
0.5853,1261
0.5869667,1318
0.5886334,1220
0.5903,1307
0.5919667,1352
0.5936334,1338
0.5953,1324
0.5969667,1165
0.5986333,1346
0.6003,1165
0.6019667,1342
0.6036333,1239
0.6053,1313
0.6069667,1344
0.6086333,1376
0.6103,1342
0.6119667,1356
0.6136333,1370
0.6153,1410
0.6169667,1370
0.6186333,1330
0.6203,1158
0.6219667,1278
0.6236333,1135
0.6253,1157
0.6269667,1192
0.6286333,1148
0.6303,1235
0.6319667,1219
0.6336333,1006
0.6353,1078
0.6369666,787
0.6386333,1013
0.6403,844
0.6419666,950
0.6436333,754
0.6453,829
0.6469667,904
0.6486334,852
0.6503,951
0.6519667,937
0.6536334,935
0.6553,724
0.6569667,933
0.6586334,739
0.6603,853
0.6619667,918
0.6636333,914
0.6653,958
0.6669667,752
0.6686333,744
0.6703,668
0.6719667,709
0.6736333,756
0.6753,723
0.6769667,693
0.6786333,742
0.6803,790
0.6819667,775
0.6836333,686
0.6853,755
0.6869667,825
0.6886333,691
0.6903,706
0.6919667,705
0.6936333,860
0.6953,812
0.6969666,763
0.6986333,495
0.7003,828
0.7019666,548
0.7036333,638
0.7053,728
0.7069666,640
0.7086333,672
0.7103,707
0.7119667,731
0.7136334,755
0.7153,647
0.7169667,542
0.7186334,625
0.7203,636
0.7219667,698
0.7236333,731
0.7253,573
0.7269667,727
0.7286333,632
0.7303,769
0.7319667,621
0.7336333,680
0.7353,667
0.7369667,642
0.7386333,617
0.7403,566
0.7419667,605
0.7436333,595
0.7453,585
0.7469667,655
0.7486333,725
0.7503,758
0.7519667,711
0.7536333,665
0.7553,775
0.7569667,663
0.7586333,700
0.7603,638
0.7619666,573
0.7636333,629
0.7653,775
0.7669666,729
0.7686333,571
0.7703,661
0.7719667,598
0.7736334,759
0.7753,721
0.7769667,682
0.7786334,751
0.7803,542
0.7819667,705
0.7836334,668
0.7853,585
0.7869667,584
0.7886333,583
0.7903,603
0.7919667,623
0.7936333,427
0.7953,713
0.7969667,524
0.7986333,705
0.8003,544
0.8019667,633
0.8036333,597
0.8053,562
0.8069667,655
0.8086333,580
0.8103,613
0.8119667,624
0.8136333,686
0.8153,701
0.8169667,681
0.8186333,679
0.8203,678
0.8219666,669
0.8236333,659
0.8253,649
0.8269666,641
0.8286333,634
0.8303,606
0.8319666,683
0.8336333,760
0.8353,821
0.8369667,881
0.8386334,900
0.8403,864
0.8419667,828
0.8436334,780
0.8453,884
0.8469667,834
0.8486333,815
0.8503,804
0.8519667,655
0.8536333,851
0.8553,849
0.8569667,897
0.8586333,745
0.8603,699
0.8619667,832
0.8636333,669
0.8653,885
0.8669667,706
0.8686333,806
0.8703,481
0.8719667,611
0.8736333,639
0.8753,712
0.8769667,731
0.8786333,831
0.8803,1044
0.8819667,1438
0.8836333,1773
0.8853,1880
0.8869666,2309
0.8886333,2765
0.8903,2692
0.8919666,3179
0.8936333,3171
0.8953,3323
0.8969667,3551
0.8986334,3762
0.9003,3578
0.9019667,3586
0.9036334,3265
0.9053,3016
0.9069667,3108
0.9086334,3286
0.9103,3463
0.9119667,3454
0.9136333,3399
0.9153,3071
0.9169667,2914
0.9186333,3537
0.9203,3138
0.9219667,3319
0.9236333,3120
0.9253,2884
0.9269667,3253
0.9286333,3046
0.9303,3033
0.9319667,2927
0.9336333,3077
0.9353,3042
0.9369667,3007
0.9386333,2818
0.9403,2631
0.9419667,2761
0.9436333,2196
0.9453,2778
0.9469666,2617
0.9486333,2199
0.9503,2330
0.9519666,2122
0.9536333,2045
0.9553,2126
0.9569666,2134
0.9586333,1727
0.9603,1598
0.9619667,1759
0.9636334,1567
0.9653,1495
0.9669667,1319
0.9686334,1255
0.9703,1304
0.9719667,1021
0.9736333,956
0.9753,921
0.9769667,905
0.9786333,933
0.9803,699
0.9819667,607
0.9836333,605
0.9853,630
0.9869667,654
0.9886333,511
0.9903,690
0.9919667,564
0.9936333,597
0.9953,520
0.9969667,505
0.9986333,527
1.0003,549
1.001967,448
1.003633,474
1.0053,500
1.006967,536
1.008633,521
1.0103,507
1.011967,530
1.013633,524
1.0153,506
1.016967,636
1.018633,623
1.0203,440
1.021967,540
1.023633,495
1.0253,516
1.026967,496
1.028633,501
1.0303,512
1.031967,592
1.033633,556
1.0353,519
1.036967,404
1.038633,472
1.0403,484
1.041967,604
1.043633,597
1.0453,517
1.046967,617
1.048633,631
1.0503,553
1.051967,596
1.053633,472
1.0553,424
1.056967,480
1.058633,536
1.0603,516
1.061967,539
1.063633,560
1.0653,582
1.066967,473
1.068633,637
1.0703,533
1.071967,643
1.073633,622
1.0753,601
1.076967,497
1.078633,585
1.0803,557
1.081967,563
1.083633,545
1.0853,527
1.086967,525
1.088633,523
1.0903,549
1.091967,575
1.093633,555
1.0953,535
1.096967,342
1.098633,547
1.1003,629
1.101967,489
1.103633,672
1.1053,613
1.106967,668
1.108633,643
1.1103,619
1.111967,594
1.113633,587
1.1153,492
1.116967,628
1.118633,637
1.1203,502
1.121967,438
1.123633,633
1.1253,595
1.126967,618
1.128633,560
1.1303,502
1.131967,614
1.133633,746
1.1353,739
1.136967,565
1.138633,626
1.1403,574
1.141967,638
1.143633,597
1.1453,625
1.146967,666
1.148633,512
1.1503,545
1.151967,692
1.153633,665
1.1553,638
1.156967,622
1.158633,605
1.1603,572
1.161967,593
1.163633,614
1.1653,615
1.166967,616
1.168633,739
1.1703,747
1.171967,649
1.173633,810
1.1753,903
1.176967,953
1.178633,753
1.1803,964
1.181967,748
1.183633,617
1.1853,808
1.186967,769
1.188633,748
1.1903,785
1.191967,822
1.193633,806
1.1953,875
1.196967,943
1.198633,900
