"SampleName","A2Rd2_01-93"
"Target Mass 1",
"Column Name","IA-3 (3um, 4.6X100)"
"Channel","QDa 1: SIR Ch1"
0.00195,351
0.003616667,449
0.005283333,616
0.00695,577
0.008616666,509
0.01028333,582
0.01195,537
0.01361667,493
0.01528333,607
0.01695,469
0.01861667,543
0.02028333,622
0.02195,566
0.02361667,656
0.02528333,488
0.02695,650
0.02861667,485
0.03028333,492
0.03195,578
0.03361667,601
0.03528333,583
0.03695,561
0.03861667,475
0.04028333,504
0.04195,434
0.04361667,477
0.04528333,486
0.04695,495
0.04861667,539
0.05028334,582
0.05195,411
0.05361667,519
0.05528333,572
0.05695,473
0.05861667,618
0.06028333,434
0.06195,471
0.06361666,534
0.06528334,538
0.06695,541
0.06861667,468
0.07028333,450
0.07195,355
0.07361667,526
0.07528333,447
0.07695,368
0.07861666,531
0.08028334,490
0.08195,497
0.08361667,502
0.08528333,506
0.08695,487
0.08861667,467
0.09028333,595
0.09195,567
0.09361666,540
0.09528334,412
0.09695,426
0.09861667,460
0.1002833,345
0.10195,503
0.1036167,484
0.1052833,465
0.10695,511
0.1086167,557
0.1102833,490
0.11195,422
0.1136167,479
0.1152833,454
0.11695,526
0.1186167,570
0.1202833,381
0.12195,490
0.1236167,563
0.1252833,457
0.12695,350
0.1286167,391
0.1302833,475
0.13195,480
0.1336167,467
0.1352833,455
0.13695,478
0.1386167,476
0.1402833,474
0.14195,409
0.1436167,598
0.1452833,572
0.14695,540
0.1486167,500
0.1502833,404
0.15195,517
0.1536167,604
0.1552833,522
0.15695,564
0.1586167,574
0.1602833,484
0.16195,514
0.1636167,518
0.1652833,530
0.16695,479
0.1686167,512
0.1702833,529
0.17195,551
0.1736167,505
0.1752833,516
0.17695,524
0.1786167,519
0.1802833,514
0.18195,520
0.1836167,403
0.1852833,587
0.18695,519
0.1886167,451
0.1902833,491
0.19195,493
0.1936167,495
0.1952833,384
0.19695,531
0.1986167,472
0.2002833,476
0.20195,454
0.2036167,432
0.2052833,490
0.20695,429
0.2086167,496
0.2103,490
0.21195,484
0.2136167,490
0.2152833,492
0.21695,495
0.2186167,444
0.2202833,392
0.22195,483
0.2236167,478
0.2252833,474
0.22695,492
0.2286167,511
0.2302833,509
0.23195,513
0.2336167,394
0.2352833,508
0.23695,641
0.2386167,626
0.2402833,387
0.24195,495
0.2436167,464
0.2453,493
0.24695,502
0.2486167,445
0.2502833,426
0.25195,379
0.2536167,396
0.2552833,412
0.25695,540
0.2586167,561
0.2602833,521
0.26195,536
0.2636333,551
0.2652833,501
0.26695,450
0.2686167,511
0.2702833,446
0.27195,413
0.2736167,442
0.2752833,471
0.27695,477
0.2786167,484
0.2803,371
0.28195,557
0.2836167,528
0.2852833,500
0.28695,473
0.2886167,531
0.2902833,502
0.29195,474
0.2936333,500
0.2952833,463
0.29695,485
0.2986333,506
0.3002833,490
0.3019667,483
0.3036167,546
0.3053,524
0.30695,503
0.3086167,474
0.3102833,445
0.31195,429
0.3136333,516
0.3153,476
0.31695,437
0.3186333,494
0.3202833,546
0.3219667,559
0.3236167,502
0.3252833,463
0.32695,443
0.3286167,478
0.3303,502
0.3319667,538
0.3336333,532
0.3353,525
0.3369667,593
0.3386333,601
0.3402833,610
0.34195,549
0.3436167,361
0.3452833,599
0.34695,380
0.3486167,422
0.3503,586
0.3519667,519
0.3536333,573
0.3553,564
0.35695,520
0.3586333,573
0.3602833,519
0.3619667,552
0.3636167,916
0.3653,1345
0.36695,2562
0.3686333,3732
0.3703,4733
0.3719667,5377
0.3736333,6149
0.3753,7159
0.3769667,7765
0.3786333,8012
0.3803,8432
0.38195,6798
0.3836333,5026
0.3853,4965
0.3869667,3734
0.3886333,3555
0.3903,3185
0.3919667,1999
0.3936333,1898
0.3953,1389
0.3969667,1217
0.3986333,1006
0.4003,1088
0.4019667,858
0.4036333,1061
0.4053,953
0.4069667,913
0.4086333,901
0.4103,878
0.4119667,855
0.4136333,939
0.4153,951
0.4169667,958
0.4186333,978
0.4203,1037
0.4219667,1041
0.4236333,1045
0.4253,1112
0.4269667,1120
0.4286333,1129
0.4303,1034
0.4319667,1427
0.4336333,1629
0.4353,2613
0.4369667,3467
0.4386333,6243
0.4403,9360
0.4419667,13688
0.4436333,20748
0.4453,31180
0.4469667,41552
0.4486333,58464
0.4503,71936
0.4519667,87136
0.4536333,104944
0.4553,118464
0.4569667,135168
0.4586333,146048
0.4603,161472
0.4619667,173504
0.4636333,185088
0.4653,196608
0.4669667,211264
0.4686333,226752
0.4703,244352
0.4719667,258304
0.4736333,268288
0.4753,274752
0.4769667,262208
0.4786333,261056
0.4803,246208
0.4819667,224448
0.4836333,198272
0.4853,175872
0.4869667,151232
0.4886333,125728
0.4903,101776
0.4919667,83136
0.4936333,67248
0.4953,54896
0.4969667,42320
0.4986333,31772
0.5003,26420
0.5019667,21372
0.5036333,17220
0.5053,14020
0.5069667,11436
0.5086333,9956
0.5103,7520
0.5119666,7363
0.5136333,6407
0.5153,5676
0.5169666,5351
0.5186333,4890
0.5203,4914
0.5219667,4850
0.5236334,3950
0.5253,3346
0.5269667,3886
0.5286334,3491
0.5303,3532
0.5319667,3030
0.5336334,2898
0.5353,2701
0.5369667,2469
0.5386333,2792
0.5403,2368
0.5419667,2652
0.5436333,2269
0.5453,2299
0.5469667,2249
0.5486333,2061
0.5503,2079
0.5519667,2050
0.5536333,1749
0.5553,1741
0.5569667,1758
0.5586333,1786
0.5603,1813
0.5619667,1417
0.5636333,1645
0.5653,1581
0.5669667,1423
0.5686333,1597
0.5703,1671
0.5719666,1486
0.5736333,1570
0.5753,1456
0.5769666,1288
0.5786333,1346
0.5803,1289
0.5819666,1313
0.5836333,1337
0.5853,1329
0.5869667,1321
0.5886334,1304
0.5903,1269
0.5919667,1484
0.5936334,1514
0.5953,1365
0.5969667,1341
0.5986333,1359
0.6003,1263
0.6019667,1087
0.6036333,1343
0.6053,1414
0.6069667,1246
0.6086333,1199
0.6103,1250
0.6119667,998
0.6136333,1105
0.6153,1082
0.6169667,1075
0.6186333,1068
0.6203,1096
0.6219667,1124
0.6236333,1013
0.6253,1017
0.6269667,832
0.6286333,957
0.6303,928
0.6319667,899
0.6336333,865
0.6353,830
0.6369666,1056
0.6386333,1005
0.6403,839
0.6419666,966
0.6436333,771
0.6453,815
0.6469667,1023
0.6486334,778
0.6503,970
0.6519667,860
0.6536334,995
0.6553,944
0.6569667,836
0.6586334,956
0.6603,995
0.6619667,679
0.6636333,899
0.6653,804
0.6669667,837
0.6686333,862
0.6703,736
0.6719667,744
0.6736333,820
0.6753,782
0.6769667,743
0.6786333,818
0.6803,967
0.6819667,982
0.6836333,834
0.6853,687
0.6869667,861
0.6886333,753
0.6903,917
0.6919667,797
0.6936333,807
0.6953,745
0.6969666,865
0.6986333,638
0.7003,730
0.7019666,661
0.7036333,707
0.7053,553
0.7069666,621
0.7086333,648
0.7103,674
0.7119667,552
0.7136334,709
0.7153,775
0.7169667,758
0.7186334,643
0.7203,817
0.7219667,766
0.7236333,784
0.7253,715
0.7269667,702
0.7286333,689
0.7303,676
0.7319667,662
0.7336333,706
0.7353,550
0.7369667,690
0.7386333,798
0.7403,682
0.7419667,720
0.7436333,757
0.7453,676
0.7469667,844
0.7486333,844
0.7503,743
0.7519667,814
0.7536333,835
0.7553,741
0.7569667,792
0.7586333,682
0.7603,706
0.7619666,690
0.7636333,673
0.7653,690
0.7669666,675
0.7686333,700
0.7703,726
0.7719667,716
0.7736334,818
0.7753,829
0.7769667,640
0.7786334,600
0.7803,749
0.7819667,834
0.7836334,872
0.7853,722
0.7869667,676
0.7886333,762
0.7903,835
0.7919667,824
0.7936333,653
0.7953,817
0.7969667,731
0.7986333,596
0.8003,751
0.8019667,648
0.8036333,606
0.8053,663
0.8069667,689
0.8086333,715
0.8103,702
0.8119667,717
0.8136333,740
0.8153,777
0.8169667,796
0.8186333,824
0.8203,851
0.8219666,871
0.8236333,901
0.8253,893
0.8269666,828
0.8286333,962
0.8303,951
0.8319666,941
0.8336333,977
0.8353,921
0.8369667,856
0.8386334,809
0.8403,853
0.8419667,718
0.8436334,898
0.8453,745
0.8469667,713
0.8486333,852
0.8503,738
0.8519667,871
0.8536333,862
0.8553,865
0.8569667,881
0.8586333,843
0.8603,797
0.8619667,838
0.8636333,715
0.8653,835
0.8669667,647
0.8686333,591
0.8703,735
0.8719667,763
0.8736333,732
0.8753,869
0.8769667,1120
0.8786333,1462
0.8803,1804
0.8819667,2169
0.8836333,2761
0.8853,2804
0.8869666,2876
0.8886333,3016
0.8903,3156
0.8919666,3178
0.8936333,3099
0.8953,3011
0.8969667,3111
0.8986334,3573
0.9003,3580
0.9019667,3390
0.9036334,3071
0.9053,3213
0.9069667,3394
0.9086334,3305
0.9103,3249
0.9119667,3354
0.9136333,3259
0.9153,2918
0.9169667,3058
0.9186333,3198
0.9203,3253
0.9219667,3151
0.9236333,3196
0.9253,3013
0.9269667,3368
0.9286333,2796
0.9303,3533
0.9319667,3297
0.9336333,3139
0.9353,2979
0.9369667,3042
0.9386333,2746
0.9403,2986
0.9419667,2669
0.9436333,2677
0.9453,2898
0.9469666,2719
0.9486333,2392
0.9503,2317
0.9519666,2118
0.9536333,1908
0.9553,2195
0.9569666,1752
0.9586333,2281
0.9603,1895
0.9619667,1601
0.9636334,1422
0.9653,1414
0.9669667,1698
0.9686334,1217
0.9703,1370
0.9719667,1124
0.9736333,1135
0.9753,799
0.9769667,1064
0.9786333,969
0.9803,1007
0.9819667,910
0.9836333,742
0.9853,950
0.9869667,773
0.9886333,783
0.9903,761
0.9919667,787
0.9936333,821
0.9953,727
0.9969667,598
0.9986333,461
1.0003,655
1.001967,544
1.003633,684
1.0053,609
1.006967,669
1.008633,633
1.0103,558
1.011967,546
1.013633,416
1.0153,431
1.016967,605
1.018633,620
1.0203,585
1.021967,566
1.023633,592
1.0253,538
1.026967,608
1.028633,591
1.0303,571
1.031967,606
1.033633,641
1.0353,763
1.036967,744
1.038633,695
1.0403,581
1.041967,668
1.043633,614
1.0453,517
1.046967,753
1.048633,779
1.0503,738
1.051967,621
1.053633,769
1.0553,871
1.056967,501
1.058633,556
1.0603,607
1.061967,646
1.063633,770
1.0653,761
1.066967,623
1.068633,715
1.0703,502
1.071967,666
1.073633,691
1.0753,791
1.076967,777
1.078633,580
1.0803,744
1.081967,666
1.083633,730
1.0853,657
1.086967,629
1.088633,741
1.0903,544
1.091967,617
1.093633,713
1.0953,654
1.096967,698
1.098633,634
1.1003,570
1.101967,682
1.103633,629
1.1053,740
1.106967,733
1.108633,508
1.1103,768
1.111967,766
1.113633,637
1.1153,779
1.116967,610
1.118633,795
1.1203,749
1.121967,696
1.123633,601
1.1253,600
1.126967,665
1.128633,646
1.1303,628
1.131967,583
1.133633,649
1.1353,618
1.136967,587
1.138633,642
1.1403,624
1.141967,605
1.143633,633
1.1453,660
1.146967,766
1.148633,747
1.1503,621
1.151967,788
1.153633,718
1.1553,752
1.156967,606
1.158633,685
1.1603,743
1.161967,752
1.163633,799
1.1653,752
1.166967,772
1.168633,810
1.1703,742
1.171967,782
1.173633,656
1.1753,693
1.176967,730
1.178633,763
1.1803,750
1.181967,737
1.183633,813
1.1853,822
1.186967,751
1.188633,681
1.1903,664
1.191967,685
1.193633,707
1.1953,762
1.196967,817
1.198633,874
