"SampleName","A2Rd2_01-16"
"Target Mass 1",
"Column Name","IA-3 (3um, 4.6X100)"
"Channel","QDa 1: SIR Ch2"
0.00195,652
0.003616667,606
0.005283333,700
0.00695,815
0.008616666,962
0.01028333,954
0.01195,942
0.01361667,1000
0.01528333,1059
0.01695,1101
0.01861667,1023
0.02028333,1199
0.02195,760
0.02361667,904
0.02528333,936
0.02695,951
0.02861667,947
0.03028333,688
0.03195,896
0.03361667,944
0.03528333,1046
0.03695,844
0.03861667,870
0.04028333,896
0.04195,907
0.04361667,918
0.04528333,897
0.04695,981
0.04861667,992
0.05028334,873
0.05195,856
0.05361667,829
0.05528333,785
0.05695,835
0.05861667,885
0.06028333,971
0.06195,1051
0.06361666,982
0.06528334,905
0.06695,989
0.06861667,950
0.07028333,877
0.07195,914
0.07361667,941
0.07528333,963
0.07695,850
0.07861666,878
0.08028334,881
0.08195,885
0.08361667,943
0.08528333,929
0.08695,844
0.08861667,887
0.09028333,852
0.09195,857
0.09361666,862
0.09528334,840
0.09695,818
0.09861667,829
0.1002833,840
0.10195,881
0.1036167,1035
0.1052833,1031
0.10695,856
0.1086167,806
0.1102833,798
0.11195,877
0.1136167,757
0.1152833,796
0.11695,836
0.1186167,794
0.1202833,945
0.12195,905
0.1236167,812
0.1252833,794
0.12695,786
0.1286167,803
0.1302833,820
0.13195,804
0.1336167,787
0.1352833,781
0.13695,775
0.1386167,792
0.1402833,728
0.14195,1154
0.1436167,1166
0.1452833,817
0.14695,1210
0.1486167,859
0.1502833,864
0.15195,926
0.1536167,906
0.1552833,886
0.15695,822
0.1586167,939
0.1602833,972
0.16195,807
0.1636167,818
0.1652833,986
0.16695,765
0.1686167,849
0.1702833,938
0.17195,801
0.1736167,960
0.1752833,905
0.17695,866
0.1786167,823
0.1802833,779
0.18195,817
0.1836167,801
0.1852833,785
0.18695,759
0.1886167,734
0.1902833,813
0.19195,819
0.1936167,825
0.1952833,813
0.19695,790
0.1986167,801
0.2002833,812
0.20195,833
0.2036167,853
0.2052833,984
0.20695,1026
0.2086167,1004
0.2102833,1048
0.21195,890
0.2136167,965
0.2152833,1041
0.21695,978
0.2186167,915
0.2202833,1065
0.22195,1108
0.2236167,1002
0.2252833,1089
0.22695,956
0.2286167,966
0.2302833,976
0.23195,1104
0.2336167,1193
0.2352833,1244
0.23695,1276
0.2386167,935
0.2402833,1043
0.24195,1224
0.2436167,1113
0.2452833,1003
0.24695,1138
0.2486167,1235
0.2502833,1230
0.25195,1064
0.2536167,1338
0.2552833,1136
0.25695,1272
0.2586167,1057
0.2602833,1032
0.26195,1048
0.2636167,1086
0.2652833,1052
0.26695,1018
0.2686167,1058
0.2702833,1078
0.27195,1090
0.2736167,1103
0.2752833,941
0.27695,1055
0.2786167,1137
0.2802833,1112
0.28195,841
0.2836167,999
0.2852833,933
0.28695,993
0.2886167,1208
0.2902833,1191
0.29195,1064
0.2936167,1279
0.2952833,1336
0.29695,1075
0.2986333,1442
0.3002833,1332
0.30195,1291
0.3036167,1139
0.3052833,1177
0.30695,1076
0.3086167,1192
0.3102833,1286
0.31195,1031
0.3136167,1230
0.3153,1157
0.31695,1188
0.3186167,1295
0.3202833,1196
0.3219667,1097
0.3236167,1143
0.3252833,1188
0.32695,1450
0.3286167,1378
0.3302833,1582
0.33195,1502
0.3336333,1464
0.3352833,1530
0.33695,1418
0.3386167,1525
0.3402833,1323
0.34195,1672
0.3436167,1552
0.3452833,1527
0.34695,1329
0.3486167,1425
0.3503,1520
0.35195,1467
0.3536333,1286
0.3552833,1365
0.35695,1505
0.3586167,1897
0.3602833,1859
0.3619667,3247
0.3636167,5209
0.3652833,5513
0.36695,5756
0.3686333,5817
0.3703,4400
0.37195,3414
0.3736167,2899
0.3753,2056
0.37695,1876
0.3786333,1715
0.3802833,1222
0.38195,1034
0.3836167,730
0.3853,768
0.3869667,671
0.3886167,763
0.3902833,626
0.39195,677
0.3936167,727
0.3953,671
0.39695,790
0.3986167,909
0.4002833,1076
0.40195,1045
0.4036333,1049
0.4053,1053
0.4069667,1021
0.4086333,1054
0.4102833,1088
0.4119667,932
0.4136167,1117
0.4153,896
0.4169667,995
0.4186333,1060
0.4203,984
0.4219667,828
0.4236333,1081
0.4253,990
0.4269667,900
0.4286333,1076
0.4302833,1010
0.4319667,1033
0.4336333,1191
0.4353,1246
0.4369667,1265
0.4386333,1356
0.4403,1442
0.4419667,1432
0.4436333,1423
0.4453,1265
0.4469667,1591
0.4486333,1666
0.4503,1752
0.4519667,1765
0.4536333,1622
0.4553,1500
0.4569667,1709
0.4586333,1804
0.4603,1810
0.4619667,1907
0.4636333,1615
0.4653,1371
0.4669667,1593
0.4686333,1601
0.4703,1710
0.4719667,1599
0.4736333,1620
0.4753,1642
0.4769667,1411
0.4786333,1724
0.4803,1537
0.4819667,1251
0.4836333,1112
0.4853,1473
0.4869667,1310
0.4886333,1361
0.4903,1213
0.4919667,1098
0.4936333,1243
0.4953,1277
0.4969667,1095
0.4986333,1260
0.5003,1138
0.5019667,1060
0.5036333,1033
0.5053,1017
0.5069667,1001
0.5086333,979
0.5103,1066
0.5119666,1153
0.5136333,1103
0.5153,1134
0.5169666,918
0.5186333,939
0.5203,961
0.5219667,997
0.5236334,1033
0.5253,1052
0.5269667,1072
0.5286334,1123
0.5303,1174
0.5319667,980
0.5336334,1171
0.5353,1174
0.5369667,945
0.5386333,1267
0.5403,1067
0.5419667,1118
0.5436333,1030
0.5453,1138
0.5469667,1195
0.5486333,1254
0.5503,1163
0.5519667,1156
0.5536333,1129
0.5553,984
0.5569667,1316
0.5586333,1198
0.5603,1243
0.5619667,1009
0.5636333,1188
0.5653,1061
0.5669667,1103
0.5686333,842
0.5703,997
0.5719666,1222
0.5736333,1005
0.5753,1250
0.5769666,1058
0.5786333,1414
0.5803,802
0.5819666,1301
0.5836333,1071
0.5853,1048
0.5869667,913
0.5886334,1132
0.5903,1049
0.5919667,961
0.5936334,1004
0.5953,1018
0.5969667,1150
0.5986333,1204
0.6003,1095
0.6019667,1036
0.6036333,1002
0.6053,968
0.6069667,1112
0.6086333,1076
0.6103,1150
0.6119667,1024
0.6136333,1088
0.6153,1106
0.6169667,1193
0.6186333,1151
0.6203,1148
0.6219667,1178
0.6236333,1208
0.6253,1231
0.6269667,1255
0.6286333,1241
0.6303,1228
0.6319667,1336
0.6336333,1114
0.6353,1450
0.6369666,1390
0.6386333,1296
0.6403,1367
0.6419666,1333
0.6436333,1113
0.6453,1089
0.6469667,1066
0.6486334,1131
0.6503,1139
0.6519667,1147
0.6536334,1103
0.6553,1059
0.6569667,1181
0.6586334,918
0.6603,1040
0.6619667,954
0.6636333,1020
0.6653,1086
0.6669667,1083
0.6686333,1161
0.6703,1217
0.6719667,935
0.6736333,1241
0.6753,1199
0.6769667,952
0.6786333,1262
0.6803,1178
0.6819667,1266
0.6836333,1088
0.6853,1230
0.6869667,1604
0.6886333,1681
0.6903,2007
0.6919667,2059
0.6936333,2393
0.6953,3242
0.6969666,3981
0.6986333,4953
0.7003,5539
0.7019666,7222
0.7036333,7832
0.7053,9364
0.7069666,10496
0.7086333,11108
0.7103,12348
0.7119667,13188
0.7136334,13984
0.7153,13608
0.7169667,12516
0.7186334,12784
0.7203,11808
0.7219667,10400
0.7236333,9660
0.7253,8204
0.7269667,7122
0.7286333,6471
0.7303,6090
0.7319667,4822
0.7336333,3727
0.7353,3288
0.7369667,3237
0.7386333,2906
0.7403,2390
0.7419667,2454
0.7436333,2726
0.7453,2177
0.7469667,1843
0.7486333,1834
0.7503,1548
0.7519667,1628
0.7536333,1783
0.7553,1489
0.7569667,1450
0.7586333,1433
0.7603,1352
0.7619666,1351
0.7636333,1444
0.7653,1517
0.7669666,1108
0.7686333,1215
0.7703,1191
0.7719667,1244
0.7736334,1375
0.7753,1333
0.7769667,1128
0.7786334,1222
0.7803,1466
0.7819667,1360
0.7836334,1438
0.7853,1660
0.7869667,1593
0.7886333,2129
0.7903,2337
0.7919667,2755
0.7936333,3018
0.7953,4217
0.7969667,5008
0.7986333,5805
0.8003,7084
0.8019667,8976
0.8036333,10848
0.8053,12208
0.8069667,15548
0.8086333,17860
0.8103,19412
0.8119667,22892
0.8136333,23944
0.8153,24388
0.8169667,25708
0.8186333,25820
0.8203,25220
0.8219666,23284
0.8236333,20728
0.8253,20160
0.8269666,16992
0.8286333,14688
0.8303,13228
0.8319666,11672
0.8336333,9416
0.8353,8492
0.8369667,7390
0.8386334,6220
0.8403,5631
0.8419667,5006
0.8436334,4022
0.8453,3914
0.8469667,3240
0.8486333,3248
0.8503,3288
0.8519667,2728
0.8536333,2440
0.8553,1981
0.8569667,2735
0.8586333,2371
0.8603,1879
0.8619667,1946
0.8636333,2336
0.8653,2215
0.8669667,2333
0.8686333,2548
0.8703,2684
0.8719667,2947
0.8736333,2868
0.8753,2728
0.8769667,2588
0.8786333,2592
0.8803,2353
0.8819667,2239
0.8836333,2316
0.8853,2220
0.8869666,2319
0.8886333,2452
0.8903,1760
0.8919666,2335
0.8936333,2213
0.8953,2096
0.8969667,2049
0.8986334,2017
0.9003,2240
0.9019667,2345
0.9036334,1807
0.9053,2465
0.9069667,2121
0.9086334,1859
0.9103,1855
0.9119667,1849
0.9136333,1775
0.9153,1702
0.9169667,1909
0.9186333,1902
0.9203,1953
0.9219667,1949
0.9236333,1945
0.9253,1833
0.9269667,1970
0.9286333,1716
0.9303,2022
0.9319667,1721
0.9336333,1939
0.9353,2033
0.9369667,1637
0.9386333,1734
0.9403,1696
0.9419667,1622
0.9436333,1623
0.9453,1598
0.9469666,1586
0.9486333,1574
0.9503,1529
0.9519666,1484
0.9536333,1510
0.9553,1497
0.9569666,1484
0.9586333,1569
0.9603,1654
0.9619667,1821
0.9636334,1956
0.9653,2005
0.9669667,2343
0.9686334,2441
0.9703,3365
0.9719667,3416
0.9736333,4804
0.9753,5681
0.9769667,6936
0.9786333,7994
0.9803,10628
0.9819667,12692
0.9836333,15804
0.9853,18248
0.9869667,22272
0.9886333,27156
0.9903,32944
0.9919667,36608
0.9936333,42496
0.9953,46416
0.9969667,50912
0.9986333,52416
1.0003,55472
1.001967,60192
1.003633,60288
1.0053,61872
1.006967,60992
1.008633,59744
1.0103,55200
1.011967,52256
1.013633,48704
1.0153,43424
1.016967,39776
1.018633,35216
1.0203,32668
1.021967,29248
1.023633,24980
1.0253,22072
1.026967,18864
1.028633,15724
1.0303,15352
1.031967,14168
1.033633,11964
1.0353,11052
1.036967,9708
1.038633,9860
1.0403,9124
1.041967,8652
1.043633,7976
1.0453,7524
1.046967,6772
1.048633,7931
1.0503,7757
1.051967,6909
1.053633,7405
1.0553,6745
1.056967,5825
1.058633,6333
1.0603,5408
1.061967,5009
1.063633,5299
1.0653,4870
1.066967,4796
1.068633,4420
1.0703,4639
1.071967,4673
1.073633,4637
1.0753,4707
1.076967,4777
1.078633,5648
1.0803,5469
1.081967,6161
1.083633,6679
1.0853,7446
1.086967,7807
1.088633,8620
1.0903,9196
1.091967,10128
1.093633,10028
1.0953,10844
1.096967,10272
1.098633,10996
1.1003,11216
1.101967,11644
1.103633,11640
1.1053,10972
1.106967,11896
1.108633,10496
1.1103,11016
1.111967,10328
1.113633,10228
1.1153,9056
1.116967,8592
1.118633,7945
1.1203,8384
1.121967,7048
1.123633,6315
1.1253,5738
1.126967,6235
1.128633,4529
1.1303,5232
1.131967,4224
1.133633,3446
1.1353,3778
1.136967,3771
1.138633,3399
1.1403,3225
1.141967,3392
1.143633,2521
1.1453,2927
1.146967,2325
1.148633,2594
1.1503,2427
1.151967,2033
1.153633,2095
1.1553,2257
1.156967,2172
1.158633,2004
1.1603,2085
1.161967,2121
1.163633,2014
1.1653,1734
1.166967,2059
1.168633,1945
1.1703,1741
1.171967,1636
1.173633,1548
1.1753,1673
1.176967,1442
1.178633,1515
1.1803,1266
1.181967,1580
1.183633,1591
1.1853,1750
1.186967,1673
1.188633,1344
1.1903,1883
1.191967,1897
1.193633,1626
1.1953,1587
1.196967,1447
1.198633,1272
