"SampleName","A2Rd2_01-78"
"Target Mass 1",
"Column Name","IA-3 (3um, 4.6X100)"
"Channel","QDa 1: SIR Ch1"
0.00195,244
0.003616667,605
0.005283333,581
0.00695,573
0.008616666,575
0.01028333,444
0.01195,629
0.01361667,473
0.01528333,531
0.01695,572
0.01861667,625
0.02028333,585
0.02195,426
0.02361667,497
0.02528333,470
0.02695,499
0.02861667,527
0.03028333,510
0.03195,561
0.03361667,439
0.03528333,573
0.03695,565
0.03861667,500
0.04028333,584
0.04195,572
0.04361667,630
0.04528333,605
0.04695,522
0.04861667,682
0.05028334,573
0.05195,511
0.05361667,583
0.05528333,425
0.05695,600
0.05861667,447
0.06028333,485
0.06195,611
0.06361666,454
0.06528334,478
0.06695,369
0.06861667,615
0.07028333,597
0.07195,486
0.07361667,484
0.07528333,569
0.07695,446
0.07861666,617
0.08028334,540
0.08195,543
0.08361667,483
0.08528333,486
0.08695,461
0.08861667,467
0.09028333,467
0.09195,467
0.09361666,521
0.09528334,528
0.09695,534
0.09861667,412
0.1002833,410
0.10195,510
0.1036167,532
0.1052833,507
0.10695,501
0.1086167,414
0.1102833,534
0.11195,530
0.1136167,477
0.1152833,573
0.11695,417
0.1186167,399
0.1202833,416
0.12195,455
0.1236167,493
0.1252833,511
0.12695,457
0.1286167,483
0.1302833,508
0.13195,601
0.1336167,562
0.1352833,557
0.13695,621
0.1386167,491
0.1402833,521
0.14195,450
0.1436167,355
0.1452833,397
0.14695,440
0.1486167,410
0.1502833,450
0.15195,418
0.1536167,386
0.1552833,467
0.15695,469
0.1586167,471
0.1602833,490
0.16195,465
0.1636167,440
0.1652833,447
0.16695,454
0.1686167,384
0.1702833,438
0.17195,492
0.1736167,514
0.1752833,544
0.17695,519
0.1786167,495
0.1802833,494
0.18195,523
0.1836167,577
0.1852833,601
0.18695,548
0.1886167,644
0.1902833,616
0.19195,559
0.1936167,484
0.1952833,417
0.19695,501
0.1986167,452
0.2002833,441
0.20195,555
0.2036167,551
0.2052833,432
0.20695,447
0.2086167,431
0.2102833,438
0.21195,445
0.2136167,458
0.2152833,491
0.21695,524
0.2186167,359
0.2202833,444
0.22195,530
0.2236167,438
0.2252833,481
0.22695,525
0.2286333,543
0.2302833,531
0.23195,564
0.2336167,565
0.2352833,386
0.23695,631
0.2386167,504
0.2402833,495
0.24195,636
0.2436167,494
0.2453,518
0.24695,393
0.2486167,435
0.2502833,392
0.25195,349
0.2536167,422
0.2552833,447
0.25695,471
0.2586167,495
0.2602833,519
0.26195,393
0.2636333,462
0.2652833,459
0.26695,386
0.2686167,449
0.2702833,448
0.27195,446
0.2736167,453
0.2752833,408
0.27695,363
0.2786167,432
0.2803,500
0.28195,479
0.2836167,458
0.2852833,461
0.2869667,612
0.2886167,648
0.2902833,561
0.29195,515
0.2936167,411
0.2952833,572
0.29695,519
0.2986333,466
0.3002833,492
0.30195,546
0.3036167,663
0.3052833,615
0.30695,568
0.3086167,556
0.3102833,395
0.31195,685
0.3136167,524
0.3153,638
0.31695,513
0.3186167,559
0.3202833,572
0.32195,608
0.3236167,461
0.3252833,595
0.32695,506
0.3286333,628
0.3302833,517
0.3319667,473
0.3336333,547
0.3353,586
0.33695,451
0.3386333,601
0.3402833,381
0.3419667,600
0.3436333,463
0.3453,472
0.3469667,481
0.3486333,446
0.3503,523
0.3519667,534
0.3536333,544
0.3553,480
0.3569667,482
0.3586333,483
0.3602833,601
0.3619667,732
0.3636167,921
0.3653,1360
0.3669667,2226
0.3686333,3849
0.3703,5159
0.3719667,5937
0.3736333,6758
0.3753,8496
0.3769667,7995
0.3786333,7619
0.3803,7417
0.3819667,5142
0.3836333,4865
0.3853,4221
0.3869667,3824
0.3886333,3536
0.3903,2643
0.3919667,2060
0.3936333,1987
0.3953,1250
0.3969667,1117
0.3986333,942
0.4003,1213
0.4019667,1129
0.4036333,949
0.4053,941
0.4069667,868
0.4086333,1031
0.4103,978
0.4119667,1011
0.4136333,1045
0.4153,1018
0.4169667,991
0.4186333,1102
0.4203,893
0.4219667,974
0.4236333,1056
0.4253,1145
0.4269667,1190
0.4286333,956
0.4303,1157
0.4319667,1157
0.4336333,1576
0.4353,2033
0.4369667,3291
0.4386333,4586
0.4403,7118
0.4419667,11876
0.4436333,17572
0.4453,24340
0.4469667,34496
0.4486333,47472
0.4503,61264
0.4519667,74992
0.4536333,90624
0.4553,102032
0.4569667,115712
0.4586333,130608
0.4603,147712
0.4619667,157376
0.4636333,172672
0.4653,191808
0.4669667,207552
0.4686333,223168
0.4703,241856
0.4719667,257216
0.4736333,266944
0.4753,273920
0.4769667,263296
0.4786333,255872
0.4803,229952
0.4819667,209344
0.4836333,181568
0.4853,156096
0.4869667,130848
0.4886333,109392
0.4903,88832
0.4919667,68448
0.4936333,54048
0.4953,42944
0.4969667,34352
0.4986333,26652
0.5003,20816
0.5019667,15804
0.5036333,13192
0.5053,10444
0.5069667,9388
0.5086333,8051
0.5103,7022
0.5119666,5993
0.5136333,5779
0.5153,4674
0.5169666,4878
0.5186333,3850
0.5203,4269
0.5219667,3762
0.5236334,3797
0.5253,3466
0.5269667,3041
0.5286334,3316
0.5303,3118
0.5319667,3114
0.5336334,3030
0.5353,2439
0.5369667,2493
0.5386333,2771
0.5403,2374
0.5419667,2301
0.5436333,2262
0.5453,2205
0.5469667,1806
0.5486333,2387
0.5503,1716
0.5519667,1788
0.5536333,1860
0.5553,1875
0.5569667,1821
0.5586333,1750
0.5603,1565
0.5619667,1449
0.5636333,1495
0.5653,1340
0.5669667,1397
0.5686333,1449
0.5703,1240
0.5719666,1448
0.5736333,1519
0.5753,1136
0.5769666,1390
0.5786333,1304
0.5803,1362
0.5819666,1153
0.5836333,1143
0.5853,1207
0.5869667,1193
0.5886334,1179
0.5903,1221
0.5919667,1084
0.5936334,1132
0.5953,1179
0.5969667,1254
0.5986333,1276
0.6003,1076
0.6019667,1184
0.6036333,1291
0.6053,1261
0.6069667,1378
0.6086333,1513
0.6103,970
0.6119667,935
0.6136333,964
0.6153,1206
0.6169667,1247
0.6186333,1140
0.6203,1147
0.6219667,1024
0.6236333,1115
0.6253,1061
0.6269667,1114
0.6286333,808
0.6303,1090
0.6319667,858
0.6336333,745
0.6353,752
0.6369666,742
0.6386333,733
0.6403,848
0.6419666,890
0.6436333,1019
0.6453,993
0.6469667,828
0.6486334,899
0.6503,913
0.6519667,796
0.6536334,804
0.6553,793
0.6569667,780
0.6586334,790
0.6603,800
0.6619667,792
0.6636333,784
0.6653,766
0.6669667,748
0.6686333,741
0.6703,734
0.6719667,736
0.6736333,737
0.6753,714
0.6769667,648
0.6786333,693
0.6803,644
0.6819667,577
0.6836333,650
0.6853,729
0.6869667,714
0.6886333,744
0.6903,720
0.6919667,729
0.6936333,651
0.6953,794
0.6969666,815
0.6986333,717
0.7003,706
0.7019666,622
0.7036333,686
0.7053,654
0.7069666,660
0.7086333,639
0.7103,618
0.7119667,644
0.7136334,671
0.7153,667
0.7169667,666
0.7186334,707
0.7203,592
0.7219667,538
0.7236333,482
0.7253,753
0.7269667,815
0.7286333,678
0.7303,641
0.7319667,552
0.7336333,572
0.7353,650
0.7369667,585
0.7386333,521
0.7403,579
0.7419667,542
0.7436333,505
0.7453,578
0.7469667,651
0.7486333,736
0.7503,829
0.7519667,822
0.7536333,564
0.7553,555
0.7569667,698
0.7586333,680
0.7603,685
0.7619666,684
0.7636333,683
0.7653,631
0.7669666,571
0.7686333,706
0.7703,711
0.7719667,681
0.7736334,692
0.7753,715
0.7769667,710
0.7786334,706
0.7803,500
0.7819667,841
0.7836334,781
0.7853,551
0.7869667,583
0.7886333,711
0.7903,628
0.7919667,545
0.7936333,756
0.7953,641
0.7969667,646
0.7986333,595
0.8003,677
0.8019667,633
0.8036333,779
0.8053,774
0.8069667,734
0.8086333,654
0.8103,678
0.8119667,644
0.8136333,610
0.8153,644
0.8169667,762
0.8186333,776
0.8203,902
0.8219666,978
0.8236333,590
0.8253,814
0.8269666,861
0.8286333,801
0.8303,607
0.8319666,821
0.8336333,849
0.8353,830
0.8369667,710
0.8386334,687
0.8403,856
0.8419667,819
0.8436334,797
0.8453,869
0.8469667,782
0.8486333,891
0.8503,901
0.8519667,724
0.8536333,772
0.8553,743
0.8569667,772
0.8586333,801
0.8603,836
0.8619667,626
0.8636333,717
0.8653,797
0.8669667,688
0.8686333,712
0.8703,736
0.8719667,599
0.8736333,640
0.8753,723
0.8769667,883
0.8786333,1161
0.8803,1353
0.8819667,1738
0.8836333,1862
0.8853,2433
0.8869666,2754
0.8886333,2801
0.8903,2866
0.8919666,2973
0.8936333,2954
0.8953,2935
0.8969667,3117
0.8986334,3300
0.9003,3341
0.9019667,3050
0.9036334,3282
0.9053,3386
0.9069667,3053
0.9086334,3172
0.9103,3045
0.9119667,3114
0.9136333,3358
0.9153,3449
0.9169667,3280
0.9186333,2984
0.9203,2741
0.9219667,2780
0.9236333,2817
0.9253,2854
0.9269667,3231
0.9286333,3260
0.9303,3027
0.9319667,3199
0.9336333,3187
0.9353,2754
0.9369667,2752
0.9386333,2820
0.9403,2638
0.9419667,2636
0.9436333,2488
0.9453,2313
0.9469666,2611
0.9486333,2516
0.9503,2420
0.9519666,2135
0.9536333,2020
0.9553,2199
0.9569666,2119
0.9586333,1712
0.9603,1698
0.9619667,1796
0.9636334,1442
0.9653,1480
0.9669667,1424
0.9686334,1396
0.9703,1244
0.9719667,1264
0.9736333,1195
0.9753,1078
0.9769667,997
0.9786333,1117
0.9803,1026
0.9819667,928
0.9836333,784
0.9853,653
0.9869667,776
0.9886333,622
0.9903,727
0.9919667,648
0.9936333,615
0.9953,582
0.9969667,464
0.9986333,583
1.0003,660
1.001967,635
1.003633,552
1.0053,602
1.006967,455
1.008633,520
1.0103,555
1.011967,488
1.013633,490
1.0153,527
1.016967,627
1.018633,593
1.0203,622
1.021967,633
1.023633,422
1.0253,656
1.026967,507
1.028633,574
1.0303,653
1.031967,582
1.033633,593
1.0353,597
1.036967,601
1.038633,589
1.0403,600
1.041967,611
1.043633,558
1.0453,408
1.046967,722
1.048633,778
1.0503,657
1.051967,628
1.053633,675
1.0553,633
1.056967,591
1.058633,699
1.0603,634
1.061967,627
1.063633,637
1.0653,644
1.066967,672
1.068633,645
1.0703,618
1.071967,639
1.073633,589
1.0753,594
1.076967,680
1.078633,678
1.0803,679
1.081967,692
1.083633,719
1.0853,674
1.086967,629
1.088633,652
1.0903,682
1.091967,660
1.093633,639
1.0953,624
1.096967,696
1.098633,715
1.1003,672
1.101967,387
1.103633,729
1.1053,643
1.106967,723
1.108633,537
1.1103,590
1.111967,589
1.113633,589
1.1153,474
1.116967,541
1.118633,608
1.1203,674
1.121967,635
1.123633,595
1.1253,627
1.126967,760
1.128633,726
1.1303,638
1.131967,597
1.133633,621
1.1353,641
1.136967,662
1.138633,643
1.1403,612
1.141967,580
1.143633,729
1.1453,678
1.146967,626
1.148633,670
1.1503,714
1.151967,536
1.153633,770
1.1553,799
1.156967,746
1.158633,755
1.1603,724
1.161967,619
1.163633,649
1.1653,728
1.166967,668
1.168633,608
1.1703,710
1.171967,734
1.173633,758
1.1753,769
1.176967,779
1.178633,693
1.1803,620
1.181967,723
1.183633,713
1.1853,703
1.186967,699
1.188633,695
1.1903,754
1.191967,805
1.193633,799
1.1953,862
1.196967,867
1.198633,809
