"SampleName","A2Rd2_01-80"
"Target Mass 1",
"Column Name","IA-3 (3um, 4.6X100)"
"Channel","QDa 1: SIR Ch2"
0.00195,596
0.003616667,702
0.005283333,551
0.00695,695
0.008616666,866
0.01028333,1018
0.01195,936
0.01361667,1137
0.01528333,749
0.01695,1082
0.01861667,895
0.02028333,915
0.02195,747
0.02361667,739
0.02528333,704
0.02695,621
0.02861667,754
0.03028333,745
0.03195,736
0.03361667,734
0.03528333,864
0.03695,925
0.03861667,828
0.04028333,808
0.04195,1004
0.04361667,948
0.04528333,904
0.04695,798
0.04861667,830
0.05028334,870
0.05195,854
0.05361667,838
0.05528333,816
0.05695,796
0.05861667,677
0.06028333,826
0.06195,852
0.06361666,884
0.06528334,743
0.06695,903
0.06861667,670
0.07028333,852
0.07195,698
0.07361667,916
0.07528333,884
0.07695,809
0.07861666,874
0.08028334,763
0.08195,824
0.08361667,884
0.08528333,646
0.08695,905
0.08861667,904
0.09028333,912
0.09195,731
0.09361666,853
0.09528334,796
0.09695,877
0.09861667,971
0.1002833,682
0.10195,684
0.1036167,720
0.1052833,753
0.10695,856
0.1086167,845
0.1102833,852
0.11195,941
0.1136167,956
0.1152833,758
0.11695,605
0.1186167,781
0.1202833,947
0.12195,856
0.1236167,686
0.1252833,878
0.12695,830
0.1286167,783
0.1302833,602
0.13195,805
0.1336167,822
0.1352833,847
0.13695,837
0.1386167,847
0.1402833,820
0.14195,793
0.1436167,780
0.1452833,704
0.14695,970
0.1486167,996
0.1502833,808
0.15195,903
0.1536167,914
0.1552833,587
0.15695,775
0.1586167,1034
0.1602833,709
0.16195,799
0.1636167,672
0.1652833,864
0.16695,833
0.1686167,645
0.1702833,813
0.17195,927
0.1736167,794
0.1752833,811
0.17695,774
0.1786167,699
0.1802833,703
0.18195,727
0.1836167,713
0.1852833,699
0.18695,727
0.1886167,754
0.1902833,843
0.19195,872
0.1936167,984
0.1952833,1010
0.19695,1008
0.1986167,1033
0.2002833,791
0.20195,990
0.2036167,836
0.2052833,834
0.20695,777
0.2086167,949
0.2103,998
0.21195,852
0.2136167,963
0.2152833,1028
0.21695,830
0.2186167,935
0.2202833,878
0.22195,1065
0.2236167,1100
0.2252833,985
0.22695,956
0.2286167,927
0.2302833,905
0.23195,884
0.2336167,1175
0.2352833,1114
0.23695,1094
0.2386167,1095
0.2402833,1072
0.24195,1112
0.2436167,1143
0.2452833,1175
0.24695,1071
0.2486167,1084
0.2502833,1014
0.25195,944
0.2536167,964
0.2552833,984
0.25695,1023
0.2586167,1061
0.2602833,1020
0.26195,979
0.2636333,1053
0.2652833,921
0.26695,935
0.2686167,1047
0.2702833,955
0.27195,921
0.2736167,886
0.2753,1035
0.27695,994
0.2786167,871
0.2803,969
0.28195,1089
0.2836167,1126
0.2852833,993
0.28695,830
0.2886167,882
0.2902833,934
0.29195,907
0.2936167,881
0.2952833,860
0.29695,1059
0.2986333,1045
0.3002833,1173
0.30195,888
0.3036333,1262
0.3052833,1028
0.30695,1224
0.3086167,1021
0.3102833,1263
0.31195,1158
0.3136167,1146
0.3153,1179
0.31695,1227
0.3186167,1230
0.3202833,1257
0.3219667,1063
0.3236167,1181
0.3253,1012
0.32695,1130
0.3286167,1184
0.3302833,1090
0.33195,1162
0.3336333,1233
0.3352833,1293
0.3369667,1245
0.3386333,1197
0.3402833,1224
0.34195,1229
0.3436167,1235
0.3452833,1161
0.34695,1087
0.3486167,1211
0.3503,1184
0.3519667,1156
0.3536333,1358
0.3553,1399
0.35695,1333
0.3586333,1274
0.3602833,1329
0.36195,1188
0.3636167,1501
0.3653,2273
0.36695,4143
0.3686333,4347
0.3703,4717
0.3719667,4328
0.3736167,4450
0.3753,4656
0.3769667,4777
0.3786167,4111
0.3802833,3469
0.38195,3229
0.3836167,2729
0.3853,2671
0.3869667,1827
0.3886333,1451
0.3903,1067
0.3919667,727
0.3936167,689
0.3952833,770
0.3969667,687
0.3986167,573
0.4003,623
0.4019667,577
0.4036333,628
0.4053,550
0.4069667,548
0.4086333,668
0.4103,612
0.4119667,657
0.4136333,702
0.4153,683
0.4169667,665
0.4186333,788
0.4203,766
0.4219667,855
0.4236333,937
0.4253,667
0.4269667,718
0.4286333,834
0.4303,654
0.4319667,823
0.4336333,670
0.4353,778
0.4369667,972
0.4386333,1048
0.4403,1055
0.4419667,905
0.4436333,1115
0.4453,1220
0.4469667,1196
0.4486333,1143
0.4503,1267
0.4519667,1258
0.4536333,1250
0.4553,1349
0.4569667,1468
0.4586333,1628
0.4603,1615
0.4619667,1513
0.4636333,1808
0.4653,1718
0.4669667,1628
0.4686333,1898
0.4703,1884
0.4719667,2030
0.4736333,1730
0.4753,1723
0.4769667,1718
0.4786333,1697
0.4803,1676
0.4819667,1737
0.4836333,1667
0.4853,1087
0.4869667,1611
0.4886333,1694
0.4903,1209
0.4919667,1529
0.4936333,1328
0.4953,1297
0.4969667,1103
0.4986333,1141
0.5003,1041
0.5019667,905
0.5036333,1061
0.5053,1006
0.5069667,1076
0.5086333,964
0.5103,1045
0.5119666,1053
0.5136333,1008
0.5153,963
0.5169666,995
0.5186333,877
0.5203,953
0.5219667,820
0.5236334,951
0.5253,1070
0.5269667,1109
0.5286334,972
0.5303,850
0.5319667,946
0.5336334,999
0.5353,882
0.5369667,1116
0.5386333,1198
0.5403,893
0.5419667,805
0.5436333,1133
0.5453,838
0.5469667,894
0.5486333,869
0.5503,906
0.5519667,794
0.5536333,780
0.5553,779
0.5569667,779
0.5586333,721
0.5603,663
0.5619667,920
0.5636333,949
0.5653,884
0.5669667,855
0.5686333,799
0.5703,743
0.5719666,858
0.5736333,831
0.5753,804
0.5769666,893
0.5786333,932
0.5803,972
0.5819666,810
0.5836333,1125
0.5853,1067
0.5869667,1046
0.5886334,825
0.5903,886
0.5919667,894
0.5936334,884
0.5953,972
0.5969667,932
0.5986333,891
0.6003,964
0.6019667,884
0.6036333,853
0.6053,990
0.6069667,970
0.6086333,923
0.6103,876
0.6119667,950
0.6136333,734
0.6153,1067
0.6169667,960
0.6186333,986
0.6203,949
0.6219667,813
0.6236333,901
0.6253,1001
0.6269667,920
0.6286333,929
0.6303,977
0.6319667,999
0.6336333,956
0.6353,964
0.6369666,973
0.6386333,831
0.6403,841
0.6419666,911
0.6436333,931
0.6453,1021
0.6469667,638
0.6486334,797
0.6503,899
0.6519667,1021
0.6536334,846
0.6553,931
0.6569667,830
0.6586334,882
0.6603,834
0.6619667,816
0.6636333,832
0.6653,782
0.6669667,808
0.6686333,834
0.6703,785
0.6719667,897
0.6736333,884
0.6753,871
0.6769667,888
0.6786333,914
0.6803,837
0.6819667,844
0.6836333,822
0.6853,836
0.6869667,787
0.6886333,814
0.6903,813
0.6919667,759
0.6936333,773
0.6953,787
0.6969666,745
0.6986333,688
0.7003,883
0.7019666,849
0.7036333,788
0.7053,814
0.7069666,840
0.7086333,757
0.7103,796
0.7119667,836
0.7136334,805
0.7153,850
0.7169667,888
0.7186334,851
0.7203,815
0.7219667,802
0.7236333,885
0.7253,878
0.7269667,917
0.7286333,915
0.7303,887
0.7319667,809
0.7336333,847
0.7353,661
0.7369667,987
0.7386333,1021
0.7403,856
0.7419667,665
0.7436333,847
0.7453,949
0.7469667,935
0.7486333,714
0.7503,868
0.7519667,854
0.7536333,808
0.7553,836
0.7569667,707
0.7586333,833
0.7603,723
0.7619666,868
0.7636333,720
0.7653,695
0.7669666,815
0.7686333,776
0.7703,737
0.7719667,817
0.7736334,785
0.7753,753
0.7769667,744
0.7786334,793
0.7803,718
0.7819667,746
0.7836334,773
0.7853,765
0.7869667,694
0.7886333,712
0.7903,770
0.7919667,827
0.7936333,801
0.7953,917
0.7969667,923
0.7986333,929
0.8003,978
0.8019667,855
0.8036333,884
0.8053,895
0.8069667,897
0.8086333,886
0.8103,838
0.8119667,769
0.8136333,814
0.8153,750
0.8169667,951
0.8186333,916
0.8203,887
0.8219666,922
0.8236333,957
0.8253,925
0.8269666,893
0.8286333,847
0.8303,838
0.8319666,829
0.8336333,936
0.8353,683
0.8369667,937
0.8386334,870
0.8403,810
0.8419667,854
0.8436334,898
0.8453,938
0.8469667,681
0.8486333,1054
0.8503,805
0.8519667,987
0.8536333,786
0.8553,832
0.8569667,1039
0.8586333,910
0.8603,1012
0.8619667,793
0.8636333,862
0.8653,942
0.8669667,903
0.8686333,826
0.8703,628
0.8719667,790
0.8736333,801
0.8753,925
0.8769667,954
0.8786333,883
0.8803,990
0.8819667,1020
0.8836333,952
0.8853,913
0.8869666,1117
0.8886333,1130
0.8903,1128
0.8919666,1057
0.8936333,1152
0.8953,1057
0.8969667,1064
0.8986334,970
0.9003,1103
0.9019667,1124
0.9036334,917
0.9053,1107
0.9069667,1084
0.9086334,1066
0.9103,1006
0.9119667,1254
0.9136333,1264
0.9153,844
0.9169667,1212
0.9186333,1069
0.9203,1204
0.9219667,987
0.9236333,1066
0.9253,1296
0.9269667,1215
0.9286333,1147
0.9303,1162
0.9319667,977
0.9336333,1172
0.9353,1052
0.9369667,1022
0.9386333,1039
0.9403,1034
0.9419667,1030
0.9436333,1058
0.9453,1085
0.9469666,1126
0.9486333,1160
0.9503,1151
0.9519666,1143
0.9536333,900
0.9553,1109
0.9569666,1104
0.9586333,973
0.9603,1125
0.9619667,1085
0.9636334,753
0.9653,962
0.9669667,949
0.9686334,861
0.9703,662
0.9719667,721
0.9736333,780
0.9753,704
0.9769667,628
0.9786333,931
0.9803,934
0.9819667,823
0.9836333,840
0.9853,802
0.9869667,790
0.9886333,779
0.9903,847
0.9919667,859
0.9936333,871
0.9953,816
0.9969667,790
0.9986333,764
1.0003,1045
1.001967,1003
1.003633,836
1.0053,786
1.006967,828
1.008633,846
1.0103,865
1.011967,851
1.013633,845
1.0153,839
1.016967,856
1.018633,873
1.0203,812
1.021967,703
1.023633,810
1.0253,952
1.026967,904
1.028633,857
1.0303,936
1.031967,861
1.033633,786
1.0353,867
1.036967,757
1.038633,722
1.0403,823
1.041967,956
1.043633,882
1.0453,808
1.046967,846
1.048633,883
1.0503,792
1.051967,871
1.053633,800
1.0553,867
1.056967,855
1.058633,880
1.0603,731
1.061967,861
1.063633,849
1.0653,837
1.066967,828
1.068633,674
1.0703,1007
1.071967,923
1.073633,725
1.0753,787
1.076967,909
1.078633,855
1.0803,961
1.081967,673
1.083633,676
1.0853,735
1.086967,903
1.088633,930
1.0903,957
1.091967,865
1.093633,847
1.0953,909
1.096967,861
1.098633,813
1.1003,697
1.101967,800
1.103633,908
1.1053,1003
1.106967,864
1.108633,980
1.1103,899
1.111967,743
1.113633,810
1.1153,797
1.116967,840
1.118633,789
1.1203,720
1.121967,733
1.123633,745
1.1253,719
1.126967,733
1.128633,709
1.1303,684
1.131967,927
1.133633,972
1.1353,826
1.136967,928
1.138633,787
1.1403,913
1.141967,857
1.143633,932
1.1453,860
1.146967,975
1.148633,704
1.1503,886
1.151967,818
1.153633,873
1.1553,842
1.156967,810
1.158633,908
1.1603,939
1.161967,762
1.163633,765
1.1653,723
1.166967,664
1.168633,654
1.1703,793
1.171967,812
1.173633,703
1.1753,702
1.176967,701
1.178633,718
1.1803,734
1.181967,724
1.183633,713
1.1853,853
1.186967,828
1.188633,765
1.1903,876
1.191967,855
1.193633,907
1.1953,790
1.196967,782
1.198633,853
