"SampleName","A2Rd2_01-28"
"Target Mass 1",
"Column Name","IA-3 (3um, 4.6X100)"
"Channel","QDa 1: SIR Ch2"
0.00195,525
0.003616667,776
0.005283333,754
0.00695,799
0.008616666,868
0.01028333,850
0.01195,833
0.01361667,870
0.01528333,864
0.01695,857
0.01861667,895
0.02028333,881
0.02195,867
0.02361667,943
0.02528333,1066
0.02695,1012
0.02861667,980
0.03028333,1000
0.03195,1020
0.03361667,1031
0.03528333,900
0.03695,893
0.03861667,858
0.04028333,923
0.04195,987
0.04361667,986
0.04528333,985
0.04695,998
0.04861667,1010
0.05028334,932
0.05195,1105
0.05361667,768
0.05528333,806
0.05695,942
0.05861667,890
0.06028333,995
0.06195,963
0.06361666,673
0.06528334,995
0.06695,976
0.06861667,1006
0.07028333,831
0.07195,990
0.07361667,935
0.07528333,915
0.07695,887
0.07861666,859
0.08028334,769
0.08195,930
0.08361667,922
0.08528333,817
0.08695,814
0.08861667,946
0.09028333,900
0.09195,714
0.09361666,780
0.09528334,848
0.09695,681
0.09861667,723
0.1002833,765
0.10195,743
0.1036167,902
0.1052833,838
0.10695,774
0.1086167,805
0.1102833,795
0.11195,786
0.1136167,860
0.1152833,836
0.11695,813
0.1186167,1022
0.1202833,1059
0.12195,653
0.1236167,813
0.1252833,932
0.12695,936
0.1286167,912
0.1302833,973
0.13195,803
0.1336167,834
0.1352833,974
0.13695,866
0.1386167,758
0.1402833,913
0.14195,832
0.1436167,752
0.1452833,736
0.14695,833
0.1486167,706
0.1502833,804
0.15195,683
0.1536167,841
0.1552833,840
0.15695,862
0.1586167,814
0.1602833,765
0.16195,781
0.1636167,798
0.1652833,825
0.16695,955
0.1686167,958
0.1702833,991
0.17195,915
0.1736167,886
0.1752833,714
0.17695,859
0.1786167,811
0.1802833,816
0.18195,830
0.1836167,811
0.1852833,806
0.18695,802
0.1886167,879
0.1902833,844
0.19195,808
0.1936167,863
0.1952833,917
0.19695,994
0.1986167,1060
0.2002833,646
0.20195,927
0.2036167,884
0.2052833,706
0.20695,909
0.2086167,857
0.2102833,937
0.21195,916
0.2136167,895
0.2152833,897
0.21695,899
0.2186167,881
0.2202833,862
0.22195,1064
0.2236167,1115
0.2252833,897
0.22695,1147
0.2286167,908
0.2302833,1048
0.23195,1236
0.2336167,1128
0.2352833,1162
0.23695,1116
0.2386167,995
0.2402833,1147
0.24195,1026
0.2436167,1029
0.2452833,1032
0.24695,1230
0.2486167,1157
0.2502833,1084
0.25195,1205
0.2536167,1083
0.2552833,1032
0.25695,1263
0.2586167,1036
0.2602833,1116
0.26195,1006
0.2636167,1004
0.2652833,1098
0.26695,1009
0.2686167,1086
0.2702833,955
0.27195,993
0.2736167,959
0.2752833,929
0.27695,913
0.2786167,897
0.2803,831
0.28195,843
0.2836167,854
0.2852833,941
0.28695,1106
0.2886167,1071
0.2902833,951
0.29195,924
0.2936167,1064
0.2952833,896
0.29695,1025
0.2986333,1037
0.3002833,1114
0.30195,1067
0.3036333,1020
0.3052833,866
0.30695,1003
0.3086167,964
0.3102833,925
0.31195,1077
0.3136167,1110
0.3153,1090
0.31695,1073
0.3186167,1057
0.3203,1051
0.32195,1044
0.3236167,1145
0.3252833,1119
0.32695,1093
0.3286167,1157
0.3302833,1222
0.33195,1239
0.3336333,1226
0.3353,1213
0.33695,1254
0.3386333,1294
0.3403,1201
0.34195,1107
0.3436167,1393
0.3452833,1263
0.34695,1250
0.3486333,1244
0.3503,1165
0.35195,1250
0.3536333,1294
0.3552833,1167
0.3569667,1185
0.3586167,1120
0.3602833,1375
0.36195,1436
0.3636167,2767
0.3653,4287
0.36695,5027
0.3686333,5735
0.3703,5170
0.37195,4141
0.3736333,3216
0.3752833,2687
0.37695,2002
0.3786167,1640
0.3802833,1173
0.3819667,883
0.3836333,1005
0.3853,841
0.3869667,616
0.3886333,608
0.3903,500
0.3919667,506
0.3936167,615
0.3952833,567
0.39695,668
0.3986333,990
0.4002833,977
0.4019667,1143
0.4036333,1294
0.4053,1350
0.4069667,1261
0.4086333,1323
0.4103,991
0.41195,913
0.4136167,1023
0.4153,1056
0.4169667,968
0.4186333,944
0.4203,1004
0.4219667,1015
0.4236333,1018
0.4253,1005
0.4269667,992
0.4286333,1013
0.4303,1054
0.4319667,1051
0.4336333,986
0.4353,1103
0.4369667,1162
0.4386333,1362
0.4403,1269
0.4419667,1184
0.4436333,1424
0.4453,1298
0.4469667,1420
0.4486333,1457
0.4503,1493
0.4519667,1476
0.4536333,1459
0.4553,1624
0.4569667,1787
0.4586333,2011
0.4603,1953
0.4619667,1887
0.4636333,1719
0.4653,1759
0.4669667,1800
0.4686333,1801
0.4703,1802
0.4719667,1577
0.4736333,1717
0.4753,1490
0.4769667,1547
0.4786333,1407
0.4803,1512
0.4819667,1617
0.4836333,1440
0.4853,1290
0.4869667,1214
0.4886333,1255
0.4903,1289
0.4919667,1303
0.4936333,1087
0.4953,1218
0.4969667,1175
0.4986333,1255
0.5003,1129
0.5019667,1145
0.5036333,1101
0.5053,948
0.5069667,1261
0.5086333,884
0.5103,1128
0.5119666,954
0.5136333,1027
0.5153,1126
0.5169666,1185
0.5186333,1044
0.5203,1183
0.5219667,1122
0.5236334,1025
0.5253,1182
0.5269667,973
0.5286334,1042
0.5303,1190
0.5319667,1008
0.5336334,945
0.5353,1266
0.5369667,1138
0.5386333,1227
0.5403,1133
0.5419667,1026
0.5436333,1106
0.5453,1154
0.5469667,1082
0.5486333,1030
0.5503,979
0.5519667,1029
0.5536333,1146
0.5553,1108
0.5569667,1101
0.5586333,1094
0.5603,992
0.5619667,806
0.5636333,876
0.5653,911
0.5669667,946
0.5686333,981
0.5703,1059
0.5719666,1018
0.5736333,978
0.5753,981
0.5769666,984
0.5786333,987
0.5803,964
0.5819666,942
0.5836333,981
0.5853,919
0.5869667,974
0.5886334,1030
0.5903,1021
0.5919667,1011
0.5936334,949
0.5953,890
0.5969667,889
0.5986333,957
0.6003,980
0.6019667,874
0.6036333,1184
0.6053,1138
0.6069667,919
0.6086333,1210
0.6103,1111
0.6119667,997
0.6136333,856
0.6153,909
0.6169667,910
0.6186333,983
0.6203,956
0.6219667,930
0.6236333,990
0.6253,857
0.6269667,1012
0.6286333,1075
0.6303,1095
0.6319667,808
0.6336333,900
0.6353,1016
0.6369666,932
0.6386333,847
0.6403,896
0.6419666,945
0.6436333,1133
0.6453,1133
0.6469667,1057
0.6486334,915
0.6503,933
0.6519667,955
0.6536334,978
0.6553,963
0.6569667,949
0.6586334,1082
0.6603,772
0.6619667,914
0.6636333,780
0.6653,983
0.6669667,915
0.6686333,984
0.6703,1053
0.6719667,1051
0.6736333,994
0.6753,1051
0.6769667,968
0.6786333,820
0.6803,1050
0.6819667,972
0.6836333,1163
0.6853,1327
0.6869667,1304
0.6886333,1386
0.6903,1913
0.6919667,1833
0.6936333,2482
0.6953,2291
0.6969666,3065
0.6986333,3380
0.7003,3534
0.7019666,4116
0.7036333,4341
0.7053,5286
0.7069666,5421
0.7086333,5692
0.7103,5502
0.7119667,5935
0.7136334,5932
0.7153,5929
0.7169667,6065
0.7186334,6064
0.7203,5266
0.7219667,5067
0.7236333,4821
0.7253,4134
0.7269667,3821
0.7286333,3554
0.7303,3010
0.7319667,2681
0.7336333,2095
0.7353,2180
0.7369667,1864
0.7386333,1754
0.7403,1565
0.7419667,1651
0.7436333,1196
0.7453,1183
0.7469667,1221
0.7486333,1224
0.7503,1226
0.7519667,1066
0.7536333,1197
0.7553,904
0.7569667,1070
0.7586333,1083
0.7603,1205
0.7619666,1194
0.7636333,1111
0.7653,912
0.7669666,1140
0.7686333,1012
0.7703,807
0.7719667,1083
0.7736334,987
0.7753,916
0.7769667,905
0.7786334,782
0.7803,1133
0.7819667,1205
0.7836334,1226
0.7853,1515
0.7869667,1605
0.7886333,1812
0.7903,2112
0.7919667,2226
0.7936333,3095
0.7953,2837
0.7969667,3287
0.7986333,4276
0.8003,4362
0.8019667,5166
0.8036333,6747
0.8053,7228
0.8069667,8628
0.8086333,8992
0.8103,10568
0.8119667,11252
0.8136333,12136
0.8153,12576
0.8169667,13404
0.8186333,13008
0.8203,11924
0.8219666,11540
0.8236333,11232
0.8253,9536
0.8269666,9652
0.8286333,9096
0.8303,7301
0.8319666,7054
0.8336333,5442
0.8353,5369
0.8369667,4395
0.8386334,3825
0.8403,3683
0.8419667,3123
0.8436334,2610
0.8453,2277
0.8469667,2127
0.8486333,1947
0.8503,1842
0.8519667,1711
0.8536333,1706
0.8553,1732
0.8569667,1622
0.8586333,1512
0.8603,1301
0.8619667,1427
0.8636333,1769
0.8653,1669
0.8669667,2051
0.8686333,1949
0.8703,1910
0.8719667,2137
0.8736333,2162
0.8753,1856
0.8769667,1949
0.8786333,1738
0.8803,1878
0.8819667,2001
0.8836333,1780
0.8853,1972
0.8869666,1536
0.8886333,1799
0.8903,1856
0.8919666,1701
0.8936333,1723
0.8953,1745
0.8969667,1710
0.8986334,1676
0.9003,1577
0.9019667,1553
0.9036334,1596
0.9053,1638
0.9069667,1683
0.9086334,1626
0.9103,1424
0.9119667,1752
0.9136333,1634
0.9153,1699
0.9169667,1518
0.9186333,1556
0.9203,1638
0.9219667,1693
0.9236333,1702
0.9253,1590
0.9269667,1486
0.9286333,1359
0.9303,1571
0.9319667,1384
0.9336333,1370
0.9353,1511
0.9369667,1467
0.9386333,1423
0.9403,1313
0.9419667,1565
0.9436333,1147
0.9453,1399
0.9469666,1049
0.9486333,1347
0.9503,1302
0.9519666,1647
0.9536333,1466
0.9553,1366
0.9569666,1366
0.9586333,1465
0.9603,1337
0.9619667,1436
0.9636334,1433
0.9653,1556
0.9669667,1746
0.9686334,2162
0.9703,2288
0.9719667,2692
0.9736333,2680
0.9753,2939
0.9769667,4359
0.9786333,4508
0.9803,5105
0.9819667,5434
0.9836333,6552
0.9853,7520
0.9869667,8360
0.9886333,8548
0.9903,10352
0.9919667,11220
0.9936333,13848
0.9953,14960
0.9969667,16064
0.9986333,17416
1.0003,17824
1.001967,17976
1.003633,18440
1.0053,18796
1.006967,19152
1.008633,19280
1.0103,18372
1.011967,17524
1.013633,16132
1.0153,16308
1.016967,14040
1.018633,13032
1.0203,12340
1.021967,10856
1.023633,9356
1.0253,8576
1.026967,7283
1.028633,6312
1.0303,5770
1.031967,5252
1.033633,4534
1.0353,4532
1.036967,4148
1.038633,3542
1.0403,3717
1.041967,3221
1.043633,2810
1.0453,2951
1.046967,2931
1.048633,2723
1.0503,3000
1.051967,2540
1.053633,2727
1.0553,2766
1.056967,2195
1.058633,2346
1.0603,2473
1.061967,2187
1.063633,2432
1.0653,2474
1.066967,2273
1.068633,2537
1.0703,2253
1.071967,2107
1.073633,2388
1.0753,2443
1.076967,2595
1.078633,2816
1.0803,2750
1.081967,3075
1.083633,3128
1.0853,3592
1.086967,3586
1.088633,3851
1.0903,4167
1.091967,4573
1.093633,4563
1.0953,4239
1.096967,4896
1.098633,4991
1.1003,4957
1.101967,5014
1.103633,5072
1.1053,4972
1.106967,4871
1.108633,4952
1.1103,5021
1.111967,4785
1.113633,5239
1.1153,4394
1.116967,3910
1.118633,3676
1.1203,3652
1.121967,3478
1.123633,3466
1.1253,2821
1.126967,2845
1.128633,2663
1.1303,2436
1.131967,2763
1.133633,2335
1.1353,2058
1.136967,2126
1.138633,1903
1.1403,1629
1.141967,1843
1.143633,1568
1.1453,1738
1.146967,1493
1.148633,1349
1.1503,1393
1.151967,1421
1.153633,1386
1.1553,1352
1.156967,1395
1.158633,1288
1.1603,1262
1.161967,1065
1.163633,1232
1.1653,1258
1.166967,1284
1.168633,1120
1.1703,1216
1.171967,1351
1.173633,954
1.1753,1183
1.176967,1042
1.178633,1158
1.1803,1087
1.181967,1015
1.183633,808
1.1853,1007
1.186967,1061
1.188633,1179
1.1903,1125
1.191967,1037
1.193633,1078
1.1953,1089
1.196967,1072
1.198633,1054
