"SampleName","A2Rd2_01-70"
"Target Mass 1",
"Column Name","IA-3 (3um, 4.6X100)"
"Channel","QDa 1: SIR Ch1"
0.00195,367
0.003616667,533
0.005283333,494
0.00695,464
0.008616666,496
0.01028333,528
0.01195,469
0.01361667,410
0.01528333,494
0.01695,550
0.01861667,557
0.02028333,438
0.02195,539
0.02361667,596
0.02528333,508
0.02695,545
0.02861667,498
0.03028333,402
0.03195,424
0.03361667,447
0.03528333,470
0.03695,494
0.03861667,501
0.04028333,508
0.04195,546
0.04361667,585
0.04528333,581
0.04695,523
0.04861667,563
0.05028334,425
0.05195,483
0.05361667,442
0.05528333,520
0.05695,598
0.05861667,564
0.06028333,445
0.06195,556
0.06361666,517
0.06528334,528
0.06695,498
0.06861667,510
0.07028333,523
0.07195,518
0.07361667,512
0.07528333,554
0.07695,568
0.07861666,529
0.08028334,535
0.08195,512
0.08361667,489
0.08528333,557
0.08695,470
0.08861667,571
0.09028333,504
0.09195,543
0.09361666,382
0.09528334,440
0.09695,639
0.09861667,615
0.1002833,404
0.10195,542
0.1036167,551
0.1052833,631
0.10695,542
0.1086167,431
0.1102833,485
0.11195,478
0.1136167,470
0.1152833,452
0.11695,505
0.1186167,512
0.1202833,519
0.12195,555
0.1236167,592
0.1252833,575
0.12695,558
0.1286167,580
0.1302833,541
0.13195,587
0.1336167,598
0.1352833,507
0.13695,455
0.1386167,581
0.1402833,568
0.14195,428
0.1436167,543
0.1452833,496
0.14695,490
0.1486167,485
0.1502833,473
0.15195,461
0.1536167,479
0.1552833,446
0.15695,414
0.1586167,408
0.1602833,460
0.16195,440
0.1636167,420
0.1652833,462
0.16695,506
0.1686167,481
0.1702833,455
0.17195,518
0.1736167,521
0.1752833,525
0.17695,472
0.1786167,534
0.1802833,475
0.18195,484
0.1836167,516
0.1852833,526
0.18695,499
0.1886167,472
0.1902833,434
0.19195,497
0.1936167,513
0.1952833,532
0.19695,383
0.1986167,681
0.2002833,613
0.20195,443
0.2036167,444
0.2052833,527
0.20695,540
0.2086167,471
0.2102833,615
0.21195,714
0.2136167,656
0.2152833,424
0.21695,533
0.2186167,464
0.2202833,549
0.22195,445
0.2236167,453
0.2252833,554
0.22695,442
0.2286167,497
0.2302833,572
0.23195,442
0.2336167,496
0.2352833,549
0.23695,526
0.2386167,511
0.2402833,484
0.24195,456
0.2436167,510
0.2452833,450
0.24695,510
0.2486167,465
0.2502833,486
0.25195,506
0.2536167,446
0.2552833,475
0.25695,552
0.2586167,399
0.2602833,501
0.26195,537
0.2636167,430
0.2652833,463
0.26695,312
0.2686167,541
0.2702833,556
0.27195,528
0.2736167,471
0.2752833,560
0.27695,538
0.2786167,516
0.2803,535
0.28195,524
0.2836167,513
0.2852833,512
0.28695,504
0.2886167,496
0.2902833,487
0.29195,398
0.2936167,426
0.2952833,512
0.29695,509
0.2986333,665
0.3002833,618
0.30195,571
0.3036167,566
0.3052833,579
0.30695,597
0.3086167,492
0.3102833,463
0.31195,607
0.3136167,534
0.3153,448
0.31695,515
0.3186167,566
0.3202833,696
0.3219667,629
0.3236167,636
0.3253,509
0.32695,590
0.3286167,360
0.3302833,412
0.33195,551
0.3336333,572
0.3352833,481
0.33695,446
0.3386167,458
0.3402833,470
0.3419667,544
0.3436333,545
0.3452833,363
0.34695,515
0.3486167,460
0.3503,396
0.35195,516
0.3536167,524
0.3552833,532
0.3569667,515
0.3586167,484
0.3602833,575
0.36195,654
0.3636167,758
0.3652833,1346
0.36695,2163
0.3686333,3049
0.3703,4988
0.37195,5951
0.3736167,6672
0.3752833,6586
0.37695,6969
0.3786167,6851
0.3802833,6734
0.38195,5036
0.3836167,4035
0.3853,4316
0.38695,3988
0.3886333,3293
0.3902833,2942
0.3919667,2544
0.3936167,2515
0.3952833,1561
0.39695,1491
0.3986167,1303
0.4002833,1235
0.40195,1002
0.4036333,1216
0.4053,1237
0.4069667,1282
0.4086333,1171
0.4102833,1090
0.4119667,1696
0.4136167,1593
0.4152833,1428
0.41695,1785
0.4186167,1809
0.4203,1445
0.4219667,1523
0.4236333,1353
0.4253,1535
0.4269667,1404
0.4286333,1273
0.4303,1618
0.4319667,1599
0.4336333,1910
0.4353,2527
0.4369667,3017
0.4386333,5226
0.4403,7090
0.4419667,10084
0.4436333,15324
0.4453,20404
0.4469667,29420
0.4486333,40624
0.4503,51632
0.4519667,64944
0.4536333,79008
0.4553,94304
0.4569667,111232
0.4586333,127056
0.4603,145216
0.4619667,161728
0.4636333,178560
0.4653,197696
0.4669667,221120
0.4686333,245632
0.4703,262592
0.4719667,276608
0.4736333,276608
0.4753,278336
0.4769667,269696
0.4786333,252672
0.4803,224960
0.4819667,200064
0.4836333,166272
0.4853,141696
0.4869667,113168
0.4886333,92544
0.4903,72480
0.4919667,56960
0.4936333,42192
0.4953,32048
0.4969667,24556
0.4986333,20252
0.5003,15804
0.5019667,12664
0.5036333,10044
0.5053,8644
0.5069667,7448
0.5086333,6695
0.5103,6141
0.5119666,5105
0.5136333,4349
0.5153,4300
0.5169666,4086
0.5186333,3807
0.5203,3547
0.5219667,3489
0.5236334,3367
0.5253,3260
0.5269667,3123
0.5286334,2986
0.5303,2814
0.5319667,2587
0.5336334,2726
0.5353,2312
0.5369667,2299
0.5386333,2360
0.5403,2180
0.5419667,2406
0.5436333,2099
0.5453,2163
0.5469667,1964
0.5486333,2286
0.5503,1815
0.5519667,1691
0.5536333,1443
0.5553,1862
0.5569667,1861
0.5586333,1813
0.5603,1588
0.5619667,1586
0.5636333,1262
0.5653,1555
0.5669667,1385
0.5686333,1430
0.5703,1208
0.5719666,1476
0.5736333,1234
0.5753,1297
0.5769666,1106
0.5786333,1284
0.5803,1166
0.5819666,1216
0.5836333,1351
0.5853,1052
0.5869667,1379
0.5886334,1247
0.5903,1258
0.5919667,1390
0.5936334,1327
0.5953,1153
0.5969667,1124
0.5986333,1049
0.6003,1026
0.6019667,1003
0.6036333,1062
0.6053,1121
0.6069667,1162
0.6086333,1380
0.6103,1393
0.6119667,1316
0.6136333,1311
0.6153,1173
0.6169667,1324
0.6186333,1056
0.6203,1370
0.6219667,1212
0.6236333,988
0.6253,1180
0.6269667,1037
0.6286333,1188
0.6303,958
0.6319667,935
0.6336333,899
0.6353,728
0.6369666,820
0.6386333,953
0.6403,871
0.6419666,883
0.6436333,788
0.6453,918
0.6469667,853
0.6486334,784
0.6503,888
0.6519667,820
0.6536334,912
0.6553,980
0.6569667,898
0.6586334,817
0.6603,696
0.6619667,718
0.6636333,747
0.6653,741
0.6669667,792
0.6686333,765
0.6703,738
0.6719667,727
0.6736333,715
0.6753,674
0.6769667,633
0.6786333,818
0.6803,875
0.6819667,684
0.6836333,676
0.6853,748
0.6869667,653
0.6886333,619
0.6903,585
0.6919667,715
0.6936333,672
0.6953,629
0.6969666,703
0.6986333,667
0.7003,630
0.7019666,699
0.7036333,708
0.7053,717
0.7069666,646
0.7086333,672
0.7103,593
0.7119667,624
0.7136334,605
0.7153,603
0.7169667,617
0.7186334,632
0.7203,736
0.7219667,719
0.7236333,648
0.7253,530
0.7269667,674
0.7286333,654
0.7303,690
0.7319667,779
0.7336333,515
0.7353,694
0.7369667,661
0.7386333,729
0.7403,677
0.7419667,485
0.7436333,588
0.7453,544
0.7469667,531
0.7486333,603
0.7503,674
0.7519667,692
0.7536333,545
0.7553,561
0.7569667,576
0.7586333,598
0.7603,619
0.7619666,593
0.7636333,566
0.7653,524
0.7669666,693
0.7686333,697
0.7703,595
0.7719667,631
0.7736334,667
0.7753,713
0.7769667,529
0.7786334,564
0.7803,592
0.7819667,663
0.7836334,705
0.7853,883
0.7869667,831
0.7886333,631
0.7903,594
0.7919667,638
0.7936333,601
0.7953,565
0.7969667,564
0.7986333,570
0.8003,619
0.8019667,618
0.8036333,616
0.8053,569
0.8069667,609
0.8086333,546
0.8103,511
0.8119667,476
0.8136333,646
0.8153,634
0.8169667,591
0.8186333,802
0.8203,763
0.8219666,651
0.8236333,681
0.8253,569
0.8269666,676
0.8286333,703
0.8303,697
0.8319666,607
0.8336333,506
0.8353,567
0.8369667,627
0.8386334,668
0.8403,651
0.8419667,647
0.8436334,644
0.8453,657
0.8469667,750
0.8486333,764
0.8503,659
0.8519667,680
0.8536333,660
0.8553,618
0.8569667,635
0.8586333,545
0.8603,608
0.8619667,488
0.8636333,548
0.8653,609
0.8669667,575
0.8686333,541
0.8703,627
0.8719667,644
0.8736333,591
0.8753,659
0.8769667,492
0.8786333,655
0.8803,757
0.8819667,1086
0.8836333,1151
0.8853,1438
0.8869666,1562
0.8886333,1827
0.8903,2156
0.8919666,2734
0.8936333,2563
0.8953,3027
0.8969667,3040
0.8986334,2830
0.9003,3250
0.9019667,3254
0.9036334,3168
0.9053,3164
0.9069667,2996
0.9086334,3062
0.9103,2941
0.9119667,3034
0.9136333,3263
0.9153,3170
0.9169667,3077
0.9186333,3039
0.9203,3194
0.9219667,3318
0.9236333,2879
0.9253,3047
0.9269667,2902
0.9286333,2973
0.9303,3006
0.9319667,2580
0.9336333,2920
0.9353,2603
0.9369667,2463
0.9386333,2733
0.9403,2532
0.9419667,2695
0.9436333,2552
0.9453,2290
0.9469666,2630
0.9486333,2393
0.9503,2158
0.9519666,1985
0.9536333,1993
0.9553,1927
0.9569666,1691
0.9586333,1812
0.9603,1757
0.9619667,1460
0.9636334,1379
0.9653,1246
0.9669667,1200
0.9686334,1048
0.9703,1095
0.9719667,1119
0.9736333,1108
0.9753,953
0.9769667,759
0.9786333,681
0.9803,901
0.9819667,658
0.9836333,572
0.9853,707
0.9869667,570
0.9886333,586
0.9903,433
0.9919667,582
0.9936333,687
0.9953,448
0.9969667,645
0.9986333,619
1.0003,609
1.001967,579
1.003633,662
1.0053,508
1.006967,434
1.008633,504
1.0103,501
1.011967,464
1.013633,428
1.0153,517
1.016967,539
1.018633,560
1.0203,540
1.021967,494
1.023633,515
1.0253,553
1.026967,514
1.028633,606
1.0303,602
1.031967,607
1.033633,612
1.0353,524
1.036967,536
1.038633,527
1.0403,361
1.041967,422
1.043633,482
1.0453,514
1.046967,519
1.048633,562
1.0503,514
1.051967,466
1.053633,596
1.0553,599
1.056967,555
1.058633,553
1.0603,515
1.061967,555
1.063633,418
1.0653,567
1.066967,660
1.068633,367
1.0703,605
1.071967,497
1.073633,705
1.0753,692
1.076967,625
1.078633,682
1.0803,485
1.081967,537
1.083633,707
1.0853,499
1.086967,687
1.088633,712
1.0903,547
1.091967,570
1.093633,472
1.0953,496
1.096967,521
1.098633,483
1.1003,570
1.101967,581
1.103633,494
1.1053,488
1.106967,482
1.108633,510
1.1103,537
1.111967,508
1.113633,479
1.1153,510
1.116967,688
1.118633,684
1.1203,647
1.121967,531
1.123633,584
1.1253,704
1.126967,641
1.128633,680
1.1303,608
1.131967,586
1.133633,610
1.1353,619
1.136967,556
1.138633,558
1.1403,709
1.141967,661
1.143633,542
1.1453,645
1.146967,436
1.148633,652
1.1503,575
1.151967,666
1.153633,545
1.1553,565
1.156967,561
1.158633,459
1.1603,563
1.161967,510
1.163633,554
1.1653,598
1.166967,567
1.168633,535
1.1703,594
1.171967,592
1.173633,597
1.1753,650
1.176967,642
1.178633,591
1.1803,433
1.181967,545
1.183633,689
1.1853,773
1.186967,489
1.188633,634
1.1903,591
1.191967,559
1.193633,592
1.1953,588
1.196967,585
1.198633,638
