"SampleName","A2Rd2_01-9"
"Target Mass 1",
"Column Name","IA-3 (3um, 4.6X100)"
"Channel","QDa 1: SIR Ch2"
0.00195,623
0.003616667,582
0.005283333,616
0.00695,822
0.008616666,773
0.01028333,723
0.01195,806
0.01361667,889
0.01528333,961
0.01695,933
0.01861667,905
0.02028333,828
0.02195,702
0.02361667,844
0.02528333,987
0.02695,1007
0.02861667,750
0.03028333,983
0.03195,837
0.03361667,878
0.03528333,806
0.03695,788
0.03861667,771
0.04028333,733
0.04195,925
0.04361667,999
0.04528333,1140
0.04695,706
0.04861667,783
0.05028334,832
0.05195,1072
0.05361667,1049
0.05528333,664
0.05695,892
0.05861667,910
0.06028333,841
0.06195,822
0.06361666,802
0.06528334,929
0.06695,996
0.06861667,952
0.07028333,951
0.07195,870
0.07361667,895
0.07528333,919
0.07695,938
0.07861666,958
0.08028334,870
0.08195,981
0.08361667,1025
0.08528333,727
0.08695,756
0.08861667,1122
0.09028333,927
0.09195,881
0.09361666,1030
0.09528334,950
0.09695,926
0.09861667,970
0.1002833,902
0.10195,925
0.1036167,718
0.1052833,864
0.10695,912
0.1086167,999
0.1102833,730
0.11195,789
0.1136167,1032
0.1152833,856
0.11695,916
0.1186167,871
0.1202833,914
0.12195,920
0.1236167,834
0.1252833,782
0.12695,811
0.1286167,841
0.1302833,847
0.13195,819
0.1336167,790
0.1352833,894
0.13695,903
0.1386167,912
0.1402833,786
0.14195,708
0.1436167,1018
0.1452833,873
0.14695,857
0.1486167,687
0.1502833,793
0.15195,678
0.1536167,737
0.1552833,796
0.15695,800
0.1586167,805
0.1602833,799
0.16195,814
0.1636167,829
0.1652833,856
0.16695,883
0.1686167,671
0.1702833,847
0.17195,932
0.1736167,698
0.1752833,731
0.17695,943
0.1786167,814
0.1802833,860
0.18195,748
0.1836167,908
0.1852833,749
0.18695,841
0.1886167,895
0.1902833,921
0.19195,871
0.1936167,892
0.1952833,888
0.19695,831
0.1986167,773
0.2002833,857
0.20195,706
0.2036167,741
0.2052833,771
0.20695,801
0.2086167,1075
0.2102833,1008
0.21195,1104
0.2136167,1009
0.2152833,853
0.21695,788
0.2186167,1015
0.2202833,1088
0.22195,981
0.2236167,1030
0.2252833,1027
0.22695,909
0.2286167,1049
0.2302833,1077
0.23195,1070
0.2336167,1115
0.2352833,1159
0.23695,1170
0.2386167,1088
0.2402833,1238
0.24195,1190
0.2436167,1275
0.2452833,1156
0.24695,1063
0.2486167,1162
0.2502833,1070
0.25195,1031
0.2536167,1059
0.2552833,1086
0.25695,900
0.2586167,1013
0.2602833,1209
0.26195,1123
0.2636333,1173
0.2652833,1037
0.26695,1011
0.2686167,1031
0.2702833,880
0.27195,1106
0.2736167,906
0.2752833,1187
0.27695,1008
0.2786167,1041
0.2803,1050
0.28195,1008
0.2836167,1039
0.2852833,1099
0.28695,1009
0.2886167,920
0.2902833,831
0.29195,1057
0.2936167,897
0.2952833,894
0.2969667,1084
0.2986333,1047
0.3002833,1011
0.30195,1010
0.3036333,819
0.3052833,787
0.30695,1033
0.3086167,1089
0.3102833,951
0.31195,975
0.3136167,1132
0.3153,863
0.31695,1024
0.3186333,1183
0.3203,1107
0.32195,1029
0.3236333,1158
0.3252833,1115
0.32695,1072
0.3286167,1234
0.3302833,1193
0.3319667,1152
0.3336333,1198
0.3352833,1261
0.3369667,1271
0.3386167,1281
0.3402833,1444
0.34195,1528
0.3436333,1406
0.3453,1315
0.3469667,1341
0.3486333,1503
0.3503,1454
0.3519667,1416
0.3536333,1360
0.3552833,1126
0.3569667,1328
0.3586167,1337
0.3602833,1416
0.36195,1873
0.3636333,3068
0.3653,4276
0.3669667,5485
0.3686333,5521
0.3703,4958
0.3719667,4106
0.3736333,3733
0.3753,3161
0.3769667,2148
0.3786333,2022
0.3803,1459
0.3819667,1398
0.3836333,959
0.3853,1214
0.3869667,956
0.3886333,844
0.3903,687
0.3919667,879
0.3936333,899
0.3953,911
0.3969667,923
0.3986333,909
0.4003,895
0.4019667,771
0.4036333,556
0.4053,690
0.4069667,756
0.4086333,700
0.4103,632
0.4119667,627
0.4136333,605
0.4153,633
0.4169667,744
0.4186333,662
0.4203,581
0.4219667,626
0.4236333,753
0.4253,863
0.4269667,816
0.4286333,1020
0.4303,1044
0.4319667,983
0.4336333,1022
0.4353,1080
0.4369667,1077
0.4386333,1073
0.4403,1068
0.4419667,1062
0.4436333,1056
0.4453,1050
0.4469667,951
0.4486333,1080
0.4503,1113
0.4519667,1147
0.4536333,1200
0.4553,1186
0.4569667,1225
0.4586333,1228
0.4603,1230
0.4619667,1251
0.4636333,1476
0.4653,1452
0.4669667,1492
0.4686333,1465
0.4703,1300
0.4719667,1186
0.4736333,1371
0.4753,1270
0.4769667,1352
0.4786333,1173
0.4803,1059
0.4819667,1438
0.4836333,894
0.4853,1038
0.4869667,1045
0.4886333,1113
0.4903,1032
0.4919667,1065
0.4936333,864
0.4953,901
0.4969667,1003
0.4986333,1035
0.5003,909
0.5019667,924
0.5036333,1047
0.5053,1008
0.5069667,856
0.5086333,1044
0.5103,815
0.5119666,754
0.5136333,838
0.5153,849
0.5169666,860
0.5186333,847
0.5203,829
0.5219667,832
0.5236334,818
0.5253,782
0.5269667,854
0.5286334,851
0.5303,928
0.5319667,949
0.5336334,893
0.5353,830
0.5369667,964
0.5386333,910
0.5403,847
0.5419667,886
0.5436333,942
0.5453,895
0.5469667,849
0.5486333,910
0.5503,860
0.5519667,938
0.5536333,915
0.5553,931
0.5569667,923
0.5586333,914
0.5603,946
0.5619667,931
0.5636333,915
0.5653,767
0.5669667,980
0.5686333,817
0.5703,795
0.5719666,1030
0.5736333,780
0.5753,889
0.5769666,997
0.5786333,995
0.5803,738
0.5819666,966
0.5836333,877
0.5853,714
0.5869667,955
0.5886334,783
0.5903,817
0.5919667,825
0.5936334,889
0.5953,1226
0.5969667,1171
0.5986333,873
0.6003,817
0.6019667,951
0.6036333,957
0.6053,902
0.6069667,841
0.6086333,987
0.6103,1040
0.6119667,802
0.6136333,1058
0.6153,888
0.6169667,957
0.6186333,896
0.6203,846
0.6219667,796
0.6236333,980
0.6253,1119
0.6269667,1033
0.6286333,874
0.6303,1200
0.6319667,1112
0.6336333,1012
0.6353,1096
0.6369666,954
0.6386333,1119
0.6403,1197
0.6419666,1283
0.6436333,1278
0.6453,953
0.6469667,1180
0.6486334,998
0.6503,1087
0.6519667,930
0.6536334,1075
0.6553,986
0.6569667,962
0.6586334,987
0.6603,936
0.6619667,886
0.6636333,943
0.6653,1001
0.6669667,811
0.6686333,851
0.6703,995
0.6719667,832
0.6736333,1118
0.6753,1061
0.6769667,1017
0.6786333,1125
0.6803,1232
0.6819667,1389
0.6836333,1729
0.6853,2044
0.6869667,2403
0.6886333,3103
0.6903,3257
0.6919667,4644
0.6936333,5975
0.6953,7227
0.6969666,9000
0.6986333,11364
0.7003,13292
0.7019666,16048
0.7036333,18692
0.7053,22452
0.7069666,23684
0.7086333,25416
0.7103,26240
0.7119667,27588
0.7136334,25788
0.7153,26180
0.7169667,25000
0.7186334,20668
0.7203,17688
0.7219667,15192
0.7236333,13640
0.7253,11032
0.7269667,9972
0.7286333,8412
0.7303,7001
0.7319667,5686
0.7336333,4874
0.7353,4682
0.7369667,4210
0.7386333,3298
0.7403,2804
0.7419667,2674
0.7436333,2349
0.7453,2231
0.7469667,2344
0.7486333,1873
0.7503,2130
0.7519667,2284
0.7536333,1637
0.7553,1600
0.7569667,1344
0.7586333,1502
0.7603,1271
0.7619666,1501
0.7636333,1606
0.7653,1290
0.7669666,1223
0.7686333,1191
0.7703,1243
0.7719667,1203
0.7736334,1179
0.7753,1154
0.7769667,1469
0.7786334,1497
0.7803,1362
0.7819667,1378
0.7836334,1393
0.7853,1851
0.7869667,1885
0.7886333,2543
0.7903,2848
0.7919667,3730
0.7936333,4711
0.7953,5291
0.7969667,6428
0.7986333,7651
0.8003,9652
0.8019667,11404
0.8036333,15076
0.8053,17892
0.8069667,20380
0.8086333,24200
0.8103,27948
0.8119667,30184
0.8136333,33152
0.8153,33568
0.8169667,35968
0.8186333,34880
0.8203,32680
0.8219666,32036
0.8236333,30320
0.8253,24976
0.8269666,21796
0.8286333,20868
0.8303,17536
0.8319666,13892
0.8336333,12952
0.8353,10608
0.8369667,8668
0.8386334,7657
0.8403,6671
0.8419667,6129
0.8436334,5150
0.8453,4775
0.8469667,3750
0.8486333,3975
0.8503,3481
0.8519667,3811
0.8536333,2803
0.8553,2876
0.8569667,2705
0.8586333,2268
0.8603,2473
0.8619667,2253
0.8636333,2121
0.8653,1794
0.8669667,1782
0.8686333,1842
0.8703,1735
0.8719667,1729
0.8736333,1544
0.8753,1545
0.8769667,1546
0.8786333,1842
0.8803,1887
0.8819667,1971
0.8836333,1926
0.8853,1860
0.8869666,1692
0.8886333,1959
0.8903,1963
0.8919666,1816
0.8936333,1782
0.8953,1663
0.8969667,1840
0.8986334,1672
0.9003,1667
0.9019667,1426
0.9036334,1658
0.9053,1304
0.9069667,1632
0.9086334,1448
0.9103,1464
0.9119667,1508
0.9136333,1563
0.9153,1329
0.9169667,1579
0.9186333,1446
0.9203,1328
0.9219667,1361
0.9236333,1432
0.9253,1422
0.9269667,1452
0.9286333,1318
0.9303,1369
0.9319667,1557
0.9336333,1193
0.9353,1434
0.9369667,1522
0.9386333,1338
0.9403,1296
0.9419667,1279
0.9436333,1353
0.9453,1405
0.9469666,1353
0.9486333,1301
0.9503,1361
0.9519666,1329
0.9536333,1296
0.9553,1336
0.9569666,1219
0.9586333,1352
0.9603,1320
0.9619667,1430
0.9636334,1870
0.9653,2282
0.9669667,2269
0.9686334,2574
0.9703,2751
0.9719667,3357
0.9736333,4022
0.9753,4699
0.9769667,5490
0.9786333,7594
0.9803,9124
0.9819667,10520
0.9836333,12852
0.9853,15748
0.9869667,18540
0.9886333,21532
0.9903,26148
0.9919667,29388
0.9936333,34608
0.9953,40480
0.9969667,44528
0.9986333,51488
1.0003,54960
1.001967,55392
1.003633,61456
1.0053,61104
1.006967,64144
1.008633,62400
1.0103,60736
1.011967,57968
1.013633,55520
1.0153,51872
1.016967,46752
1.018633,43136
1.0203,38800
1.021967,33808
1.023633,30440
1.0253,27432
1.026967,23196
1.028633,21036
1.0303,18684
1.031967,15712
1.033633,14168
1.0353,12596
1.036967,11812
1.038633,10452
1.0403,10468
1.041967,8756
1.043633,8720
1.0453,7846
1.046967,7498
1.048633,8035
1.0503,6696
1.051967,6884
1.053633,6221
1.0553,6247
1.056967,6110
1.058633,5646
1.0603,5400
1.061967,6041
1.063633,5849
1.0653,6051
1.066967,6394
1.068633,6365
1.0703,7248
1.071967,7565
1.073633,7762
1.0753,8512
1.076967,9368
1.078633,10264
1.0803,11836
1.081967,12060
1.083633,12960
1.0853,14792
1.086967,14836
1.088633,16412
1.0903,16852
1.091967,17932
1.093633,17248
1.0953,17328
1.096967,16956
1.098633,16584
1.1003,17648
1.101967,16312
1.103633,16456
1.1053,15280
1.106967,14772
1.108633,13640
1.1103,12152
1.111967,11564
1.113633,9772
1.1153,9116
1.116967,8220
1.118633,7845
1.1203,7491
1.121967,6558
1.123633,6496
1.1253,5762
1.126967,5219
1.128633,5270
1.1303,4557
1.131967,4613
1.133633,4108
1.1353,3971
1.136967,3760
1.138633,3300
1.1403,3058
1.141967,3031
1.143633,3039
1.1453,3023
1.146967,2328
1.148633,2593
1.1503,2653
1.151967,1985
1.153633,2431
1.1553,2127
1.156967,2086
1.158633,1915
1.1603,1952
1.161967,2037
1.163633,1798
1.1653,1850
1.166967,1718
1.168633,1549
1.1703,1510
1.171967,1682
1.173633,1734
1.1753,1525
1.176967,1664
1.178633,1656
1.1803,1592
1.181967,1638
1.183633,1593
1.1853,1405
1.186967,1427
1.188633,1533
1.1903,1530
1.191967,1524
1.193633,1519
1.1953,1438
1.196967,1496
1.198633,1492
