"SampleName","A2Rd2_01-51"
"Target Mass 1",
"Column Name","IA-3 (3um, 4.6X100)"
"Channel","QDa 1: SIR Ch1"
0.00195,311
0.003616667,483
0.005283333,591
0.00695,497
0.008616666,535
0.01028333,530
0.01195,518
0.01361667,532
0.01528333,546
0.01695,504
0.01861667,463
0.02028333,499
0.02195,506
0.02361667,513
0.02528333,519
0.02695,524
0.02861667,607
0.03028333,603
0.03195,599
0.03361667,575
0.03528333,577
0.03695,527
0.03861667,612
0.04028333,457
0.04195,531
0.04361667,542
0.04528333,477
0.04695,521
0.04861667,427
0.05028334,490
0.05195,494
0.05361667,498
0.05528333,484
0.05695,423
0.05861667,467
0.06028333,512
0.06195,498
0.06361666,464
0.06528334,487
0.06695,455
0.06861667,498
0.07028333,592
0.07195,562
0.07361667,531
0.07528333,509
0.07695,483
0.07861666,525
0.08028334,532
0.08195,538
0.08361667,406
0.08528333,534
0.08695,449
0.08861667,543
0.09028333,497
0.09195,508
0.09361666,497
0.09528334,487
0.09695,479
0.09861667,593
0.1002833,551
0.10195,509
0.1036167,543
0.1052833,557
0.10695,606
0.1086167,624
0.1102833,602
0.11195,492
0.1136167,662
0.1152833,637
0.11695,550
0.1186167,494
0.1202833,532
0.12195,362
0.1236167,612
0.1252833,590
0.12695,555
0.1286167,456
0.1302833,458
0.13195,515
0.1336167,476
0.1352833,436
0.13695,488
0.1386167,464
0.1402833,494
0.14195,481
0.1436167,468
0.1452833,401
0.14695,490
0.1486167,580
0.1502833,549
0.15195,621
0.1536167,565
0.1552833,524
0.15695,517
0.1586167,560
0.1602833,495
0.16195,429
0.1636167,553
0.1652833,531
0.16695,508
0.1686167,429
0.1702833,543
0.17195,510
0.1736167,477
0.1752833,488
0.17695,500
0.1786167,506
0.1802833,518
0.18195,442
0.1836167,496
0.1852833,475
0.18695,501
0.1886167,482
0.1902833,489
0.19195,490
0.1936167,487
0.1952833,515
0.19695,453
0.1986167,486
0.2002833,397
0.20195,446
0.2036167,495
0.2052833,388
0.20695,492
0.2086167,513
0.2102833,534
0.21195,478
0.2136167,577
0.2152833,536
0.21695,494
0.2186167,351
0.2202833,502
0.22195,446
0.2236167,391
0.2252833,470
0.22695,562
0.2286167,631
0.2302833,507
0.23195,458
0.2336167,449
0.2352833,383
0.23695,655
0.2386167,616
0.2402833,456
0.24195,482
0.2436167,648
0.2453,522
0.24695,366
0.2486167,472
0.2502833,606
0.25195,563
0.2536167,510
0.2552833,486
0.25695,373
0.2586167,572
0.2602833,637
0.26195,494
0.2636333,565
0.2652833,482
0.26695,436
0.2686167,410
0.2702833,406
0.27195,422
0.2736167,444
0.2752833,466
0.27695,462
0.2786167,457
0.2803,554
0.28195,544
0.2836167,383
0.2852833,590
0.28695,632
0.2886167,464
0.2902833,486
0.29195,483
0.2936167,535
0.2952833,557
0.29695,543
0.2986333,528
0.3002833,535
0.30195,542
0.3036333,546
0.3053,594
0.30695,474
0.3086333,500
0.3102833,686
0.3119667,760
0.3136167,615
0.3153,595
0.31695,542
0.3186333,637
0.3202833,510
0.3219667,429
0.3236167,513
0.3253,464
0.32695,493
0.3286333,488
0.3302833,483
0.3319667,485
0.3336333,548
0.3353,571
0.3369667,589
0.3386333,518
0.3402833,550
0.3419667,582
0.3436167,489
0.3453,489
0.34695,570
0.3486333,527
0.3503,484
0.3519667,527
0.3536333,570
0.3553,538
0.3569667,552
0.3586333,537
0.3602833,703
0.3619667,874
0.3636333,882
0.3653,1518
0.36695,3340
0.3686333,4610
0.3703,6567
0.3719667,7486
0.3736333,6996
0.3753,6221
0.37695,6046
0.3786333,4608
0.3803,4093
0.3819667,3280
0.3836167,2738
0.3853,2189
0.3869667,1633
0.3886333,1588
0.3902833,1302
0.3919667,1170
0.3936167,1256
0.3953,1185
0.3969667,1284
0.3986333,1181
0.4003,1299
0.4019667,1459
0.4036333,1561
0.4052833,1615
0.4069667,1729
0.4086333,2248
0.4103,2444
0.4119667,2245
0.4136333,2262
0.4153,2279
0.4169667,2490
0.4186333,2664
0.4203,2717
0.4219667,2553
0.4236333,2567
0.4253,2581
0.4269667,2676
0.4286333,2771
0.4303,3008
0.4319667,3802
0.4336333,4598
0.4353,5969
0.4369667,8096
0.4386333,9612
0.4403,13080
0.4419667,17532
0.4436333,23320
0.4453,30640
0.4469667,37856
0.4486333,49040
0.4503,62032
0.4519667,75776
0.4536333,93024
0.4553,111936
0.4569667,133888
0.4586333,155712
0.4603,179968
0.4619667,216704
0.4636333,250496
0.4653,280960
0.4669667,319552
0.4686333,345664
0.4703,374656
0.4719667,384448
0.4736333,388672
0.4753,375936
0.4769667,358272
0.4786333,325056
0.4803,286144
0.4819667,237568
0.4836333,201792
0.4853,163776
0.4869667,127232
0.4886333,99936
0.4903,75552
0.4919667,58448
0.4936333,42592
0.4953,33632
0.4969667,26224
0.4986333,20880
0.5003,16892
0.5019667,14688
0.5036333,11476
0.5053,10576
0.5069667,9668
0.5086333,7415
0.5103,7670
0.5119666,6868
0.5136333,6267
0.5153,5491
0.5169666,5373
0.5186333,5236
0.5203,5118
0.5219667,4837
0.5236334,4403
0.5253,4751
0.5269667,3900
0.5286334,4323
0.5303,3899
0.5319667,3637
0.5336334,3498
0.5353,3812
0.5369667,3507
0.5386333,3362
0.5403,3169
0.5419667,3337
0.5436333,3120
0.5453,2884
0.5469667,2524
0.5486333,3024
0.5503,2801
0.5519667,2563
0.5536333,2228
0.5553,2629
0.5569667,2338
0.5586333,2312
0.5603,2187
0.5619667,2130
0.5636333,2389
0.5653,1905
0.5669667,2082
0.5686333,2008
0.5703,1839
0.5719666,2247
0.5736333,2205
0.5753,1622
0.5769666,2097
0.5786333,1992
0.5803,1907
0.5819666,1915
0.5836333,1923
0.5853,2120
0.5869667,1557
0.5886334,1938
0.5903,1948
0.5919667,2095
0.5936334,2187
0.5953,1814
0.5969667,1966
0.5986333,2013
0.6003,1881
0.6019667,2028
0.6036333,2001
0.6053,2022
0.6069667,2108
0.6086333,1896
0.6103,1983
0.6119667,2102
0.6136333,2092
0.6153,1885
0.6169667,1740
0.6186333,1711
0.6203,1709
0.6219667,1785
0.6236333,1636
0.6253,1796
0.6269667,1465
0.6286333,1634
0.6303,1501
0.6319667,1530
0.6336333,1559
0.6353,1366
0.6369666,1585
0.6386333,1400
0.6403,1226
0.6419666,1306
0.6436333,1176
0.6453,1264
0.6469667,1265
0.6486334,1222
0.6503,1236
0.6519667,1248
0.6536334,1193
0.6553,1138
0.6569667,1162
0.6586334,1074
0.6603,1133
0.6619667,1058
0.6636333,984
0.6653,1089
0.6669667,1114
0.6686333,1094
0.6703,1112
0.6719667,1131
0.6736333,1073
0.6753,1188
0.6769667,1001
0.6786333,1099
0.6803,1257
0.6819667,1190
0.6836333,1262
0.6853,1372
0.6869667,1070
0.6886333,988
0.6903,872
0.6919667,1267
0.6936333,1168
0.6953,1084
0.6969666,1326
0.6986333,1068
0.7003,1048
0.7019666,977
0.7036333,1095
0.7053,1025
0.7069666,1047
0.7086333,927
0.7103,1060
0.7119667,947
0.7136334,949
0.7153,834
0.7169667,896
0.7186334,988
0.7203,923
0.7219667,858
0.7236333,1076
0.7253,1072
0.7269667,1217
0.7286333,997
0.7303,1214
0.7319667,1092
0.7336333,1013
0.7353,1108
0.7369667,876
0.7386333,983
0.7403,881
0.7419667,967
0.7436333,1052
0.7453,1029
0.7469667,1006
0.7486333,1000
0.7503,991
0.7519667,1014
0.7536333,917
0.7553,1118
0.7569667,1030
0.7586333,942
0.7603,1031
0.7619666,1092
0.7636333,1073
0.7653,1149
0.7669666,1135
0.7686333,991
0.7703,896
0.7719667,964
0.7736334,1015
0.7753,726
0.7769667,897
0.7786334,1001
0.7803,883
0.7819667,1051
0.7836334,791
0.7853,907
0.7869667,1158
0.7886333,753
0.7903,921
0.7919667,1021
0.7936333,1073
0.7953,854
0.7969667,893
0.7986333,953
0.8003,1015
0.8019667,989
0.8036333,946
0.8053,1114
0.8069667,828
0.8086333,1038
0.8103,1053
0.8119667,909
0.8136333,966
0.8153,827
0.8169667,950
0.8186333,774
0.8203,918
0.8219666,1060
0.8236333,971
0.8253,1013
0.8269666,1104
0.8286333,799
0.8303,720
0.8319666,728
0.8336333,835
0.8353,975
0.8369667,1067
0.8386334,915
0.8403,980
0.8419667,925
0.8436334,951
0.8453,988
0.8469667,824
0.8486333,806
0.8503,847
0.8519667,830
0.8536333,814
0.8553,757
0.8569667,700
0.8586333,872
0.8603,813
0.8619667,753
0.8636333,1034
0.8653,1404
0.8669667,1788
0.8686333,2346
0.8703,2502
0.8719667,2706
0.8736333,3414
0.8753,3516
0.8769667,3364
0.8786333,4083
0.8803,3914
0.8819667,3908
0.8836333,3963
0.8853,3675
0.8869666,3524
0.8886333,3868
0.8903,3368
0.8919666,3331
0.8936333,3596
0.8953,3510
0.8969667,3628
0.8986334,3575
0.9003,3523
0.9019667,3652
0.9036334,3471
0.9053,3347
0.9069667,3602
0.9086334,3568
0.9103,3534
0.9119667,3714
0.9136333,3895
0.9153,3786
0.9169667,3717
0.9186333,3168
0.9203,3392
0.9219667,3345
0.9236333,3122
0.9253,3204
0.9269667,3498
0.9286333,3383
0.9303,3433
0.9319667,3177
0.9336333,3194
0.9353,3063
0.9369667,2634
0.9386333,2670
0.9403,2646
0.9419667,2526
0.9436333,2413
0.9453,2233
0.9469666,2187
0.9486333,2080
0.9503,1859
0.9519666,1883
0.9536333,1736
0.9553,2048
0.9569666,1572
0.9586333,1539
0.9603,1418
0.9619667,1322
0.9636334,1262
0.9653,1087
0.9669667,1277
0.9686334,1110
0.9703,875
0.9719667,922
0.9736333,1035
0.9753,818
0.9769667,694
0.9786333,829
0.9803,772
0.9819667,738
0.9836333,806
0.9853,844
0.9869667,883
0.9886333,711
0.9903,652
0.9919667,727
0.9936333,408
0.9953,462
0.9969667,639
0.9986333,623
1.0003,652
1.001967,630
1.003633,608
1.0053,543
1.006967,582
1.008633,621
1.0103,591
1.011967,560
1.013633,726
1.0153,728
1.016967,563
1.018633,649
1.0203,541
1.021967,671
1.023633,683
1.0253,750
1.026967,699
1.028633,585
1.0303,779
1.031967,606
1.033633,716
1.0353,678
1.036967,687
1.038633,696
1.0403,590
1.041967,584
1.043633,620
1.0453,657
1.046967,689
1.048633,654
1.0503,619
1.051967,552
1.053633,643
1.0553,733
1.056967,774
1.058633,637
1.0603,617
1.061967,823
1.063633,782
1.0653,757
1.066967,672
1.068633,695
1.0703,693
1.071967,593
1.073633,746
1.0753,770
1.076967,822
1.078633,662
1.0803,746
1.081967,741
1.083633,699
1.0853,677
1.086967,507
1.088633,585
1.0903,662
1.091967,738
1.093633,708
1.0953,654
1.096967,683
1.098633,649
1.1003,562
1.101967,476
1.103633,752
1.1053,747
1.106967,772
1.108633,556
1.1103,714
1.111967,664
1.113633,647
1.1153,629
1.116967,655
1.118633,681
1.1203,623
1.121967,564
1.123633,763
1.1253,715
1.126967,547
1.128633,797
1.1303,845
1.131967,769
1.133633,669
1.1353,794
1.136967,714
1.138633,680
1.1403,661
1.141967,668
1.143633,517
1.1453,570
1.146967,547
1.148633,573
1.1503,573
1.151967,574
1.153633,671
1.1553,687
1.156967,703
1.158633,594
1.1603,569
1.161967,646
1.163633,760
1.1653,789
1.166967,681
1.168633,544
1.1703,740
1.171967,611
1.173633,612
1.1753,669
1.176967,649
1.178633,630
1.1803,581
1.181967,602
1.183633,622
1.1853,684
1.186967,795
1.188633,813
1.1903,734
1.191967,666
1.193633,800
1.1953,563
1.196967,623
1.198633,669
