"SampleName","A2Rd2_01-75"
"Target Mass 1",
"Column Name","IA-3 (3um, 4.6X100)"
"Channel","QDa 1: SIR Ch1"
0.00195,277
0.003616667,466
0.005283333,595
0.00695,553
0.008616666,476
0.01028333,499
0.01195,680
0.01361667,571
0.01528333,462
0.01695,507
0.01861667,580
0.02028333,578
0.02195,564
0.02361667,584
0.02528333,592
0.02695,408
0.02861667,494
0.03028333,457
0.03195,503
0.03361667,550
0.03528333,595
0.03695,441
0.03861667,617
0.04028333,663
0.04195,466
0.04361667,619
0.04528333,434
0.04695,402
0.04861667,397
0.05028334,418
0.05195,485
0.05361667,552
0.05528333,599
0.05695,532
0.05861667,549
0.06028333,566
0.06195,459
0.06361666,557
0.06528334,447
0.06695,492
0.06861667,536
0.07028333,522
0.07195,495
0.07361667,540
0.07528333,585
0.07695,443
0.07861666,553
0.08028334,649
0.08195,689
0.08361667,412
0.08528333,484
0.08695,509
0.08861667,513
0.09028333,517
0.09195,489
0.09361666,607
0.09528334,614
0.09695,479
0.09861667,514
0.1002833,417
0.10195,517
0.1036167,500
0.1052833,499
0.10695,490
0.1086167,509
0.1102833,527
0.11195,558
0.1136167,555
0.1152833,551
0.11695,585
0.1186167,483
0.1202833,568
0.12195,534
0.1236167,483
0.1252833,403
0.12695,442
0.1286167,517
0.1302833,487
0.13195,458
0.1336167,469
0.1352833,481
0.13695,492
0.1386167,487
0.1402833,458
0.14195,576
0.1436167,584
0.1452833,679
0.14695,622
0.1486167,544
0.1502833,467
0.15195,604
0.1536167,611
0.1552833,531
0.15695,609
0.1586167,400
0.1602833,415
0.16195,556
0.1636167,637
0.1652833,559
0.16695,530
0.1686167,596
0.1702833,611
0.17195,442
0.1736167,527
0.1752833,461
0.17695,531
0.1786167,437
0.1802833,484
0.18195,532
0.1836167,530
0.1852833,528
0.18695,491
0.1886167,536
0.1902833,459
0.19195,538
0.1936167,541
0.1952833,558
0.19695,577
0.1986167,541
0.2002833,504
0.20195,587
0.2036167,520
0.2052833,488
0.20695,459
0.2086167,500
0.2102833,550
0.21195,503
0.2136167,455
0.2152833,452
0.21695,409
0.2186167,365
0.2202833,513
0.22195,530
0.2236167,594
0.2252833,542
0.22695,593
0.2286167,584
0.2302833,651
0.23195,451
0.2336167,530
0.2352833,538
0.2369667,555
0.2386167,475
0.2402833,470
0.24195,500
0.2436167,515
0.2452833,498
0.24695,482
0.2486167,516
0.2502833,455
0.2519667,475
0.2536167,494
0.2552833,453
0.25695,428
0.2586167,471
0.2602833,457
0.26195,442
0.2636333,510
0.2653,511
0.26695,513
0.2686167,592
0.2702833,578
0.27195,441
0.2736167,487
0.2752833,576
0.27695,574
0.2786167,604
0.2803,482
0.28195,462
0.2836333,554
0.2852833,427
0.28695,539
0.2886167,471
0.2902833,469
0.29195,468
0.2936167,490
0.2952833,647
0.29695,604
0.2986333,659
0.3002833,527
0.3019667,570
0.3036333,600
0.3052833,492
0.30695,666
0.3086167,737
0.3102833,519
0.31195,551
0.3136167,485
0.3153,498
0.31695,535
0.3186333,475
0.3203,529
0.3219667,649
0.3236167,624
0.3252833,511
0.32695,515
0.3286167,577
0.3303,545
0.33195,509
0.3336333,442
0.3353,586
0.33695,613
0.3386167,484
0.3402833,664
0.34195,536
0.3436167,648
0.3452833,551
0.3469667,575
0.3486333,534
0.3503,494
0.3519667,511
0.3536333,478
0.3552833,481
0.3569667,537
0.3586167,659
0.3602833,631
0.36195,791
0.3636333,1009
0.3653,1294
0.36695,2055
0.3686333,3556
0.3703,5024
0.3719667,6170
0.3736333,7315
0.3752833,7610
0.37695,7716
0.3786333,7241
0.3803,6655
0.3819667,5412
0.3836333,4859
0.3853,4077
0.3869667,3837
0.3886333,3132
0.3903,2975
0.3919667,2029
0.3936167,1710
0.3953,1638
0.3969667,1224
0.3986333,1287
0.4003,1310
0.4019667,1102
0.4036333,1000
0.4053,976
0.4069667,1114
0.4086333,1165
0.4103,1101
0.4119667,1037
0.4136333,993
0.4153,1101
0.4169667,1056
0.4186333,1010
0.4203,1148
0.4219667,1177
0.4236333,1038
0.4253,1112
0.4269667,1037
0.4286333,1025
0.4303,1040
0.4319667,1165
0.4336333,1605
0.4353,2009
0.4369667,3330
0.4386333,4842
0.4403,7626
0.4419667,11080
0.4436333,15624
0.4453,22704
0.4469667,32028
0.4486333,42976
0.4503,57504
0.4519667,70848
0.4536333,87024
0.4553,99088
0.4569667,113776
0.4586333,127792
0.4603,141312
0.4619667,153664
0.4636333,169024
0.4653,181696
0.4669667,199424
0.4686333,221184
0.4703,239616
0.4719667,253952
0.4736333,261824
0.4753,264896
0.4769667,259648
0.4786333,247616
0.4803,227072
0.4819667,204608
0.4836333,176064
0.4853,149632
0.4869667,125360
0.4886333,104656
0.4903,83504
0.4919667,65312
0.4936333,50896
0.4953,37520
0.4969667,30832
0.4986333,22352
0.5003,18520
0.5019667,16300
0.5036333,12836
0.5053,9672
0.5069667,8320
0.5086333,7233
0.5103,6782
0.5119666,6229
0.5136333,5268
0.5153,4583
0.5169666,4526
0.5186333,4068
0.5203,3729
0.5219667,3949
0.5236334,3458
0.5253,2975
0.5269667,3092
0.5286334,2923
0.5303,3144
0.5319667,2831
0.5336334,2783
0.5353,2683
0.5369667,2563
0.5386333,2493
0.5403,2524
0.5419667,2441
0.5436333,2213
0.5453,2039
0.5469667,2174
0.5486333,2097
0.5503,1987
0.5519667,1992
0.5536333,1810
0.5553,1785
0.5569667,1618
0.5586333,1693
0.5603,1713
0.5619667,1593
0.5636333,1568
0.5653,1401
0.5669667,1406
0.5686333,1537
0.5703,1575
0.5719666,1340
0.5736333,1421
0.5753,1315
0.5769666,1337
0.5786333,1347
0.5803,1356
0.5819666,1357
0.5836333,1398
0.5853,1132
0.5869667,1175
0.5886334,1223
0.5903,1271
0.5919667,1356
0.5936334,1226
0.5953,1097
0.5969667,1183
0.5986333,1421
0.6003,1408
0.6019667,999
0.6036333,1346
0.6053,1337
0.6069667,1181
0.6086333,1283
0.6103,1253
0.6119667,1163
0.6136333,1046
0.6153,947
0.6169667,1138
0.6186333,1100
0.6203,1061
0.6219667,953
0.6236333,1003
0.6253,1050
0.6269667,1205
0.6286333,679
0.6303,998
0.6319667,1057
0.6336333,867
0.6353,1001
0.6369666,852
0.6386333,995
0.6403,977
0.6419666,874
0.6436333,824
0.6453,801
0.6469667,750
0.6486334,664
0.6503,665
0.6519667,578
0.6536334,626
0.6553,674
0.6569667,868
0.6586334,927
0.6603,749
0.6619667,824
0.6636333,958
0.6653,788
0.6669667,754
0.6686333,759
0.6703,777
0.6719667,761
0.6736333,745
0.6753,799
0.6769667,649
0.6786333,750
0.6803,680
0.6819667,738
0.6836333,765
0.6853,749
0.6869667,732
0.6886333,620
0.6903,794
0.6919667,729
0.6936333,665
0.6953,787
0.6969666,821
0.6986333,772
0.7003,781
0.7019666,790
0.7036333,586
0.7053,796
0.7069666,877
0.7086333,886
0.7103,747
0.7119667,691
0.7136334,640
0.7153,736
0.7169667,679
0.7186334,702
0.7203,765
0.7219667,564
0.7236333,794
0.7253,853
0.7269667,665
0.7286333,642
0.7303,664
0.7319667,652
0.7336333,667
0.7353,772
0.7369667,797
0.7386333,615
0.7403,626
0.7419667,768
0.7436333,776
0.7453,807
0.7469667,798
0.7486333,602
0.7503,856
0.7519667,862
0.7536333,775
0.7553,803
0.7569667,832
0.7586333,723
0.7603,821
0.7619666,570
0.7636333,721
0.7653,606
0.7669666,610
0.7686333,726
0.7703,732
0.7719667,911
0.7736334,848
0.7753,776
0.7769667,566
0.7786334,622
0.7803,731
0.7819667,716
0.7836334,701
0.7853,730
0.7869667,710
0.7886333,691
0.7903,704
0.7919667,671
0.7936333,599
0.7953,701
0.7969667,781
0.7986333,773
0.8003,717
0.8019667,693
0.8036333,738
0.8053,727
0.8069667,771
0.8086333,826
0.8103,636
0.8119667,823
0.8136333,893
0.8153,807
0.8169667,860
0.8186333,614
0.8203,724
0.8219666,911
0.8236333,828
0.8253,807
0.8269666,727
0.8286333,766
0.8303,765
0.8319666,764
0.8336333,732
0.8353,767
0.8369667,802
0.8386334,795
0.8403,724
0.8419667,799
0.8436334,901
0.8453,862
0.8469667,785
0.8486333,911
0.8503,691
0.8519667,664
0.8536333,790
0.8553,827
0.8569667,734
0.8586333,691
0.8603,827
0.8619667,652
0.8636333,861
0.8653,694
0.8669667,655
0.8686333,640
0.8703,625
0.8719667,685
0.8736333,745
0.8753,705
0.8769667,717
0.8786333,729
0.8803,963
0.8819667,1173
0.8836333,1646
0.8853,1686
0.8869666,2318
0.8886333,2403
0.8903,2730
0.8919666,2958
0.8936333,3041
0.8953,2973
0.8969667,2904
0.8986334,3021
0.9003,3138
0.9019667,3256
0.9036334,3373
0.9053,3257
0.9069667,3291
0.9086334,3324
0.9103,3507
0.9119667,3487
0.9136333,3481
0.9153,3476
0.9169667,3431
0.9186333,3283
0.9203,3171
0.9219667,3126
0.9236333,3580
0.9253,3527
0.9269667,3192
0.9286333,3492
0.9303,3118
0.9319667,3258
0.9336333,3179
0.9353,3178
0.9369667,3189
0.9386333,3012
0.9403,2726
0.9419667,2839
0.9436333,2729
0.9453,2703
0.9469666,2427
0.9486333,2874
0.9503,2493
0.9519666,2416
0.9536333,2194
0.9553,2014
0.9569666,2360
0.9586333,1929
0.9603,1845
0.9619667,1937
0.9636334,1676
0.9653,1645
0.9669667,1608
0.9686334,1363
0.9703,1211
0.9719667,1135
0.9736333,1352
0.9753,1282
0.9769667,1146
0.9786333,1007
0.9803,953
0.9819667,736
0.9836333,1028
0.9853,817
0.9869667,907
0.9886333,736
0.9903,592
0.9919667,592
0.9936333,731
0.9953,694
0.9969667,579
0.9986333,553
1.0003,595
1.001967,527
1.003633,459
1.0053,575
1.006967,655
1.008633,686
1.0103,621
1.011967,671
1.013633,722
1.0153,546
1.016967,558
1.018633,629
1.0203,622
1.021967,602
1.023633,493
1.0253,631
1.026967,530
1.028633,560
1.0303,616
1.031967,643
1.033633,640
1.0353,468
1.036967,655
1.038633,601
1.0403,647
1.041967,728
1.043633,838
1.0453,766
1.046967,621
1.048633,564
1.0503,536
1.051967,608
1.053633,647
1.0553,650
1.056967,653
1.058633,663
1.0603,633
1.061967,604
1.063633,705
1.0653,678
1.066967,603
1.068633,750
1.0703,778
1.071967,640
1.073633,696
1.0753,565
1.076967,697
1.078633,577
1.0803,534
1.081967,583
1.083633,642
1.0853,683
1.086967,627
1.088633,625
1.0903,648
1.091967,677
1.093633,658
1.0953,638
1.096967,639
1.098633,640
1.1003,659
1.101967,649
1.103633,640
1.1053,609
1.106967,578
1.108633,584
1.1103,590
1.111967,610
1.113633,629
1.1153,606
1.116967,583
1.118633,643
1.1203,644
1.121967,643
1.123633,643
1.1253,693
1.126967,531
1.128633,677
1.1303,548
1.131967,573
1.133633,599
1.1353,605
1.136967,611
1.138633,633
1.1403,630
1.141967,626
1.143633,625
1.1453,635
1.146967,645
1.148633,756
1.1503,736
1.151967,716
1.153633,724
1.1553,719
1.156967,694
1.158633,641
1.1603,711
1.161967,710
1.163633,709
1.1653,619
1.166967,619
1.168633,619
1.1703,817
1.171967,893
1.173633,787
1.1753,832
1.176967,694
1.178633,675
1.1803,814
1.181967,785
1.183633,838
1.1853,862
1.186967,860
1.188633,636
1.1903,683
1.191967,769
1.193633,750
1.1953,792
1.196967,736
1.198633,858
