"SampleName","A2Rd2_01-26"
"Target Mass 1",
"Column Name","IA-3 (3um, 4.6X100)"
"Channel","QDa 1: SIR Ch1"
0.00195,497
0.003616667,470
0.005283333,391
0.00695,695
0.008616666,651
0.01028333,621
0.01195,629
0.01361667,564
0.01528333,549
0.01695,637
0.01861667,591
0.02028333,435
0.02195,572
0.02361667,602
0.02528333,614
0.02695,510
0.02861667,549
0.03028333,495
0.03195,520
0.03361667,559
0.03528333,578
0.03695,578
0.03861667,578
0.04028333,624
0.04195,759
0.04361667,754
0.04528333,417
0.04695,581
0.04861667,606
0.05028334,602
0.05195,539
0.05361667,581
0.05528333,618
0.05695,603
0.05861667,637
0.06028333,533
0.06195,532
0.06361666,502
0.06528334,500
0.06695,497
0.06861667,479
0.07028333,460
0.07195,478
0.07361667,497
0.07528333,542
0.07695,548
0.07861666,468
0.08028334,503
0.08195,526
0.08361667,489
0.08528333,452
0.08695,611
0.08861667,584
0.09028333,572
0.09195,568
0.09361666,549
0.09528334,488
0.09695,548
0.09861667,464
0.1002833,505
0.10195,547
0.1036167,582
0.1052833,574
0.10695,563
0.1086167,567
0.1102833,593
0.11195,424
0.1136167,682
0.1152833,616
0.11695,483
0.1186167,408
0.1202833,549
0.12195,549
0.1236167,523
0.1252833,497
0.12695,452
0.1286167,521
0.1302833,549
0.13195,510
0.1336167,483
0.1352833,462
0.13695,529
0.1386167,540
0.1402833,550
0.14195,517
0.1436167,496
0.1452833,371
0.14695,681
0.1486167,680
0.1502833,431
0.15195,530
0.1536167,416
0.1552833,491
0.15695,547
0.1586167,541
0.1602833,578
0.16195,563
0.1636167,548
0.1652833,577
0.16695,577
0.1686167,576
0.1702833,602
0.17195,503
0.1736167,555
0.1752833,524
0.17695,532
0.1786167,544
0.1802833,555
0.18195,462
0.1836167,572
0.1852833,356
0.18695,552
0.1886167,682
0.1902833,581
0.19195,488
0.1936167,636
0.1952833,543
0.19695,484
0.1986167,535
0.2002833,562
0.20195,573
0.2036167,526
0.2052833,463
0.20695,524
0.2086167,586
0.2102833,504
0.21195,423
0.2136167,430
0.2152833,495
0.21695,528
0.2186167,489
0.2202833,439
0.22195,447
0.2236167,487
0.2252833,534
0.22695,562
0.2286167,406
0.2302833,505
0.23195,531
0.2336167,491
0.2352833,610
0.23695,581
0.2386167,568
0.2402833,464
0.24195,598
0.2436167,509
0.2452833,547
0.24695,337
0.2486167,564
0.2502833,639
0.25195,384
0.2536167,434
0.2552833,442
0.25695,500
0.2586167,529
0.2602833,491
0.26195,436
0.2636167,550
0.2652833,601
0.26695,663
0.2686167,625
0.2702833,646
0.27195,641
0.2736167,636
0.2752833,627
0.27695,567
0.2786167,417
0.2802833,456
0.28195,475
0.2836167,465
0.2852833,454
0.28695,443
0.2886167,511
0.2902833,578
0.29195,548
0.2936333,568
0.2952833,581
0.29695,581
0.2986333,580
0.3002833,609
0.30195,593
0.3036167,577
0.3052833,549
0.30695,507
0.3086167,622
0.3102833,651
0.31195,633
0.3136167,611
0.3153,589
0.31695,650
0.3186167,586
0.3202833,559
0.32195,532
0.3236167,576
0.3252833,579
0.32695,549
0.3286167,519
0.3302833,504
0.33195,533
0.3336333,533
0.3353,532
0.33695,471
0.3386167,409
0.3402833,520
0.3419667,445
0.3436333,571
0.3452833,548
0.34695,588
0.3486167,629
0.3503,634
0.3519667,473
0.3536167,525
0.3553,588
0.35695,408
0.3586167,601
0.3602833,744
0.3619667,775
0.3636333,1415
0.3653,2995
0.3669667,6067
0.3686333,6852
0.3703,7803
0.3719667,7416
0.3736167,6839
0.3753,5933
0.3769667,4916
0.3786333,4490
0.3802833,3527
0.38195,2921
0.3836167,2428
0.3853,1738
0.38695,1485
0.3886333,1500
0.3902833,1076
0.3919667,1283
0.3936333,1401
0.3953,1222
0.39695,1266
0.3986333,1547
0.4002833,1646
0.4019667,1852
0.4036333,1839
0.4053,2031
0.4069667,1878
0.4086333,1913
0.4103,1947
0.4119667,2075
0.4136167,2173
0.4153,1732
0.41695,1683
0.4186333,1732
0.4203,1482
0.4219667,1468
0.4236333,1388
0.4253,1490
0.4269667,1117
0.4286333,1281
0.4303,1178
0.4319667,1280
0.4336333,1488
0.4353,1811
0.4369667,2725
0.4386333,3966
0.4403,4483
0.4419667,6369
0.4436333,8544
0.4453,11836
0.4469667,16396
0.4486333,21068
0.4503,27244
0.4519667,37840
0.4536333,51056
0.4553,69120
0.4569667,95120
0.4586333,123184
0.4603,162816
0.4619667,205824
0.4636333,252800
0.4653,301696
0.4669667,351616
0.4686333,388160
0.4703,412288
0.4719667,422912
0.4736333,412160
0.4753,396352
0.4769667,358208
0.4786333,311616
0.4803,265408
0.4819667,222336
0.4836333,179136
0.4853,138496
0.4869667,112528
0.4886333,85456
0.4903,68976
0.4919667,53488
0.4936333,42576
0.4953,33968
0.4969667,28956
0.4986333,24348
0.5003,20240
0.5019667,17040
0.5036333,15324
0.5053,14116
0.5069667,11176
0.5086333,10704
0.5103,9476
0.5119666,7864
0.5136333,7419
0.5153,6785
0.5169666,6314
0.5186333,5578
0.5203,5633
0.5219667,5224
0.5236334,4997
0.5253,4895
0.5269667,4419
0.5286334,4077
0.5303,4288
0.5319667,3949
0.5336334,3803
0.5353,3568
0.5369667,3385
0.5386333,3585
0.5403,3316
0.5419667,3375
0.5436333,3168
0.5453,2792
0.5469667,3138
0.5486333,2783
0.5503,2440
0.5519667,2635
0.5536333,2454
0.5553,2470
0.5569667,2320
0.5586333,2125
0.5603,2254
0.5619667,2284
0.5636333,2329
0.5653,2029
0.5669667,2285
0.5686333,1832
0.5703,1720
0.5719666,1960
0.5736333,2048
0.5753,1894
0.5769666,2137
0.5786333,2075
0.5803,2074
0.5819666,1654
0.5836333,2050
0.5853,1858
0.5869667,1966
0.5886334,1982
0.5903,1996
0.5919667,1984
0.5936334,1971
0.5953,1948
0.5969667,2006
0.5986333,1990
0.6003,1974
0.6019667,1803
0.6036333,1655
0.6053,1727
0.6069667,1770
0.6086333,1812
0.6103,1844
0.6119667,1609
0.6136333,1638
0.6153,1810
0.6169667,1442
0.6186333,1668
0.6203,1484
0.6219667,1740
0.6236333,1539
0.6253,1571
0.6269667,1614
0.6286333,1285
0.6303,1257
0.6319667,1170
0.6336333,1427
0.6353,1387
0.6369666,1372
0.6386333,1235
0.6403,1376
0.6419666,1234
0.6436333,1382
0.6453,1423
0.6469667,1352
0.6486334,1132
0.6503,1219
0.6519667,1021
0.6536334,1244
0.6553,1110
0.6569667,1241
0.6586334,1170
0.6603,1099
0.6619667,1235
0.6636333,1243
0.6653,1251
0.6669667,1210
0.6686333,1220
0.6703,1218
0.6719667,1216
0.6736333,1257
0.6753,1172
0.6769667,1091
0.6786333,1208
0.6803,1325
0.6819667,1277
0.6836333,1230
0.6853,1283
0.6869667,1038
0.6886333,1008
0.6903,1141
0.6919667,1103
0.6936333,1065
0.6953,1197
0.6969666,1150
0.6986333,1104
0.7003,1041
0.7019666,1042
0.7036333,1071
0.7053,1192
0.7069666,1179
0.7086333,1212
0.7103,1207
0.7119667,1210
0.7136334,1146
0.7153,1140
0.7169667,1127
0.7186334,1114
0.7203,1162
0.7219667,1087
0.7236333,1183
0.7253,1201
0.7269667,1185
0.7286333,1171
0.7303,1156
0.7319667,1034
0.7336333,1087
0.7353,1141
0.7369667,981
0.7386333,1074
0.7403,1168
0.7419667,1248
0.7436333,1154
0.7453,1196
0.7469667,1164
0.7486333,1064
0.7503,1312
0.7519667,938
0.7536333,997
0.7553,1147
0.7569667,1347
0.7586333,1408
0.7603,1539
0.7619666,1350
0.7636333,1284
0.7653,1010
0.7669666,1121
0.7686333,1076
0.7703,1032
0.7719667,952
0.7736334,1049
0.7753,1146
0.7769667,1127
0.7786334,1121
0.7803,1086
0.7819667,1118
0.7836334,1102
0.7853,1085
0.7869667,1098
0.7886333,1110
0.7903,1103
0.7919667,1096
0.7936333,1072
0.7953,1137
0.7969667,1115
0.7986333,915
0.8003,1058
0.8019667,1164
0.8036333,1102
0.8053,1190
0.8069667,1278
0.8086333,929
0.8103,1294
0.8119667,1244
0.8136333,1151
0.8153,1199
0.8169667,1362
0.8186333,1301
0.8203,1634
0.8219666,1591
0.8236333,1309
0.8253,1117
0.8269666,1626
0.8286333,1281
0.8303,1326
0.8319666,1250
0.8336333,1335
0.8353,1064
0.8369667,1260
0.8386334,1213
0.8403,1258
0.8419667,1101
0.8436334,1131
0.8453,1083
0.8469667,1036
0.8486333,1044
0.8503,1090
0.8519667,1137
0.8536333,1119
0.8553,1050
0.8569667,1126
0.8586333,1068
0.8603,1023
0.8619667,1389
0.8636333,1829
0.8653,2150
0.8669667,2560
0.8686333,3164
0.8703,3409
0.8719667,4277
0.8736333,4918
0.8753,4881
0.8769667,5364
0.8786333,4996
0.8803,5054
0.8819667,5088
0.8836333,4674
0.8853,4172
0.8869666,4607
0.8886333,4906
0.8903,4557
0.8919666,5007
0.8936333,4642
0.8953,4259
0.8969667,4602
0.8986334,4810
0.9003,4820
0.9019667,4856
0.9036334,4756
0.9053,4657
0.9069667,4795
0.9086334,4640
0.9103,4485
0.9119667,4958
0.9136333,5020
0.9153,4557
0.9169667,4267
0.9186333,4623
0.9203,4432
0.9219667,4489
0.9236333,4443
0.9253,4356
0.9269667,4300
0.9286333,3665
0.9303,4088
0.9319667,4138
0.9336333,3991
0.9353,3645
0.9369667,3713
0.9386333,3380
0.9403,3452
0.9419667,3062
0.9436333,3293
0.9453,2904
0.9469666,2872
0.9486333,3001
0.9503,2712
0.9519666,2517
0.9536333,2402
0.9553,2412
0.9569666,2121
0.9586333,2259
0.9603,2158
0.9619667,1707
0.9636334,1816
0.9653,1665
0.9669667,1877
0.9686334,1379
0.9703,1393
0.9719667,1107
0.9736333,1239
0.9753,1236
0.9769667,928
0.9786333,1184
0.9803,1013
0.9819667,939
0.9836333,812
0.9853,861
0.9869667,840
0.9886333,770
0.9903,957
0.9919667,608
0.9936333,673
0.9953,863
0.9969667,895
0.9986333,642
1.0003,760
1.001967,710
1.003633,760
1.0053,811
1.006967,851
1.008633,1023
1.0103,962
1.011967,721
1.013633,942
1.0153,870
1.016967,724
1.018633,733
1.0203,792
1.021967,789
1.023633,787
1.0253,747
1.026967,910
1.028633,905
1.0303,860
1.031967,687
1.033633,637
1.0353,827
1.036967,768
1.038633,710
1.0403,718
1.041967,689
1.043633,730
1.0453,842
1.046967,731
1.048633,620
1.0503,799
1.051967,796
1.053633,793
1.0553,731
1.056967,760
1.058633,763
1.0603,905
1.061967,924
1.063633,858
1.0653,862
1.066967,773
1.068633,968
1.0703,874
1.071967,780
1.073633,798
1.0753,656
1.076967,739
1.078633,679
1.0803,738
1.081967,762
1.083633,643
1.0853,745
1.086967,701
1.088633,657
1.0903,859
1.091967,837
1.093633,768
1.0953,854
1.096967,849
1.098633,787
1.1003,775
1.101967,761
1.103633,739
1.1053,847
1.106967,913
1.108633,954
1.1103,702
1.111967,788
1.113633,646
1.1153,667
1.116967,687
1.118633,730
1.1203,772
1.121967,749
1.123633,773
1.1253,787
1.126967,795
1.128633,785
1.1303,775
1.131967,842
1.133633,856
1.1353,873
1.136967,890
1.138633,813
1.1403,923
1.141967,921
1.143633,916
1.1453,855
1.146967,988
1.148633,954
1.1503,833
1.151967,691
1.153633,967
1.1553,1014
1.156967,1119
1.158633,886
1.1603,783
1.161967,940
1.163633,876
1.1653,885
1.166967,845
1.168633,997
1.1703,950
1.171967,902
1.173633,1020
1.1753,1149
1.176967,1175
1.178633,951
1.1803,1162
1.181967,1162
1.183633,1231
1.1853,1014
1.186967,1290
1.188633,1151
1.1903,1122
1.191967,1174
1.193633,1120
1.1953,1119
1.196967,1149
1.198633,1179
