"SampleName","A2Rd2_01-7"
"Target Mass 1",
"Column Name","IA-3 (3um, 4.6X100)"
"Channel","QDa 1: SIR Ch2"
0.00195,682
0.003616667,643
0.005283333,811
0.00695,767
0.008616666,722
0.01028333,715
0.01195,902
0.01361667,937
0.01528333,973
0.01695,822
0.01861667,824
0.02028333,949
0.02195,780
0.02361667,791
0.02528333,751
0.02695,758
0.02861667,766
0.03028333,834
0.03195,902
0.03361667,862
0.03528333,913
0.03695,867
0.03861667,822
0.04028333,913
0.04195,878
0.04361667,842
0.04528333,862
0.04695,920
0.04861667,948
0.05028334,774
0.05195,869
0.05361667,819
0.05528333,877
0.05695,808
0.05861667,913
0.06028333,894
0.06195,875
0.06361666,848
0.06528334,821
0.06695,923
0.06861667,803
0.07028333,682
0.07195,651
0.07361667,786
0.07528333,984
0.07695,907
0.07861666,968
0.08028334,840
0.08195,946
0.08361667,894
0.08528333,888
0.08695,971
0.08861667,846
0.09028333,827
0.09195,834
0.09361666,655
0.09528334,849
0.09695,779
0.09861667,709
0.1002833,993
0.10195,1003
0.1036167,862
0.1052833,628
0.10695,908
0.1086167,808
0.1102833,654
0.11195,884
0.1136167,881
0.1152833,767
0.11695,812
0.1186167,857
0.1202833,911
0.12195,899
0.1236167,854
0.1252833,791
0.12695,728
0.1286167,844
0.1302833,796
0.13195,831
0.1336167,866
0.1352833,945
0.13695,932
0.1386167,956
0.1402833,885
0.14195,752
0.1436167,841
0.1452833,846
0.14695,852
0.1486167,788
0.1502833,857
0.15195,953
0.1536167,945
0.1552833,802
0.15695,1014
0.1586167,835
0.1602833,738
0.16195,884
0.1636167,685
0.1652833,698
0.16695,959
0.1686167,982
0.1702833,930
0.17195,914
0.1736167,677
0.1752833,746
0.17695,796
0.1786333,854
0.1802833,762
0.18195,832
0.1836167,800
0.1852833,936
0.18695,863
0.1886167,789
0.1902833,962
0.19195,814
0.1936167,776
0.1952833,813
0.19695,657
0.1986167,845
0.2002833,934
0.20195,974
0.2036167,940
0.2052833,817
0.20695,790
0.2086167,808
0.2102833,825
0.21195,866
0.2136167,864
0.2152833,862
0.21695,878
0.2186167,972
0.2202833,977
0.22195,1112
0.2236167,1057
0.2252833,1163
0.22695,1231
0.2286167,931
0.2302833,923
0.23195,1284
0.2336167,1206
0.2353,1088
0.23695,945
0.2386167,873
0.2402833,1148
0.24195,1007
0.2436167,1124
0.2453,1072
0.24695,1068
0.2486167,1065
0.2502833,1083
0.25195,1080
0.2536167,1077
0.2552833,836
0.25695,1101
0.2586167,1035
0.2602833,1025
0.26195,1063
0.2636333,1005
0.2652833,946
0.26695,942
0.2686167,897
0.2702833,852
0.27195,833
0.2736167,814
0.2752833,1049
0.27695,1028
0.2786167,1149
0.2803,956
0.28195,1114
0.2836333,1010
0.2852833,1224
0.2869667,1151
0.2886167,942
0.2902833,991
0.29195,1029
0.2936167,972
0.2952833,1044
0.2969667,1168
0.2986333,1213
0.3003,1112
0.30195,1014
0.3036333,1198
0.3052833,1088
0.30695,1229
0.3086167,1057
0.3102833,1169
0.31195,1150
0.3136167,1006
0.3153,1103
0.31695,1200
0.3186333,962
0.3202833,1205
0.3219667,1030
0.3236167,1461
0.3252833,1375
0.32695,1289
0.3286333,1167
0.3302833,1458
0.33195,1545
0.3336333,1656
0.3353,1470
0.3369667,1454
0.3386333,1244
0.3402833,1384
0.34195,1506
0.3436167,1578
0.3453,1577
0.3469667,1363
0.3486167,1305
0.3503,1386
0.35195,1122
0.3536333,1289
0.3552833,1457
0.3569667,1511
0.3586167,1266
0.3602833,1835
0.3619667,4437
0.3636167,5671
0.3653,6567
0.36695,6355
0.3686333,5205
0.3703,3958
0.3719667,2897
0.3736333,2378
0.3753,2087
0.3769667,1628
0.3786333,1438
0.3802833,1223
0.3819667,1078
0.3836167,1114
0.3853,926
0.3869667,838
0.3886333,998
0.3902833,857
0.3919667,843
0.3936333,1065
0.3953,990
0.3969667,1337
0.3986333,1263
0.4002833,1357
0.4019667,1300
0.4036333,1234
0.4053,1298
0.4069667,1140
0.4086333,1175
0.4103,1290
0.4119667,1201
0.4136167,1102
0.4153,1119
0.41695,895
0.4186333,898
0.4203,978
0.4219667,1105
0.4236333,1158
0.4253,1188
0.4269667,1218
0.4286333,1204
0.4303,1274
0.4319667,1375
0.4336333,1441
0.4353,1409
0.4369667,1376
0.4386333,1313
0.4403,1549
0.4419667,1614
0.4436333,1913
0.4453,1765
0.4469667,1720
0.4486333,1996
0.4503,1944
0.4519667,2206
0.4536333,2290
0.4553,2442
0.4569667,2053
0.4586333,2610
0.4603,2310
0.4619667,2118
0.4636333,2214
0.4653,2308
0.4669667,1923
0.4686333,2003
0.4703,2170
0.4719667,1898
0.4736333,1855
0.4753,1761
0.4769667,1747
0.4786333,1853
0.4803,1846
0.4819667,1716
0.4836333,1440
0.4853,1832
0.4869667,1650
0.4886333,1362
0.4903,1351
0.4919667,1380
0.4936333,1181
0.4953,1362
0.4969667,1409
0.4986333,1218
0.5003,1033
0.5019667,1120
0.5036333,1374
0.5053,1310
0.5069667,1183
0.5086333,1196
0.5103,1012
0.5119666,1095
0.5136333,1178
0.5153,983
0.5169666,1088
0.5186333,1036
0.5203,985
0.5219667,1275
0.5236334,1281
0.5253,1117
0.5269667,1238
0.5286334,1199
0.5303,1152
0.5319667,1206
0.5336334,1296
0.5353,900
0.5369667,1374
0.5386333,1210
0.5403,1213
0.5419667,1324
0.5436333,1356
0.5453,985
0.5469667,1093
0.5486333,1092
0.5503,1182
0.5519667,1217
0.5536333,981
0.5553,1019
0.5569667,1105
0.5586333,1042
0.5603,1113
0.5619667,1123
0.5636333,1132
0.5653,985
0.5669667,1026
0.5686333,1016
0.5703,1087
0.5719666,1018
0.5736333,949
0.5753,1220
0.5769666,1259
0.5786333,1145
0.5803,1131
0.5819666,1117
0.5836333,1238
0.5853,1213
0.5869667,1088
0.5886334,1157
0.5903,1287
0.5919667,1265
0.5936334,1242
0.5953,1192
0.5969667,1129
0.5986333,1263
0.6003,995
0.6019667,1242
0.6036333,1246
0.6053,1030
0.6069667,1053
0.6086333,1115
0.6103,1173
0.6119667,1122
0.6136333,1176
0.6153,1085
0.6169667,1038
0.6186333,1145
0.6203,1103
0.6219667,1061
0.6236333,1136
0.6253,1250
0.6269667,1339
0.6286333,933
0.6303,1129
0.6319667,1109
0.6336333,1092
0.6353,1152
0.6369666,1125
0.6386333,1097
0.6403,1160
0.6419666,1169
0.6436333,1178
0.6453,1210
0.6469667,1243
0.6486334,1115
0.6503,1104
0.6519667,991
0.6536334,1026
0.6553,1101
0.6569667,1076
0.6586334,1050
0.6603,1051
0.6619667,1052
0.6636333,1078
0.6653,1114
0.6669667,1110
0.6686333,1108
0.6703,843
0.6719667,1215
0.6736333,1251
0.6753,806
0.6769667,916
0.6786333,977
0.6803,959
0.6819667,937
0.6836333,887
0.6853,917
0.6869667,1000
0.6886333,1099
0.6903,1103
0.6919667,1106
0.6936333,1080
0.6953,1026
0.6969666,1119
0.6986333,1098
0.7003,1076
0.7019666,1147
0.7036333,1218
0.7053,1211
0.7069666,1172
0.7086333,1270
0.7103,1275
0.7119667,1130
0.7136334,1537
0.7153,1489
0.7169667,1317
0.7186334,1329
0.7203,1233
0.7219667,1272
0.7236333,1422
0.7253,1081
0.7269667,1285
0.7286333,1261
0.7303,1088
0.7319667,1167
0.7336333,1032
0.7353,1063
0.7369667,947
0.7386333,978
0.7403,1010
0.7419667,973
0.7436333,908
0.7453,979
0.7469667,976
0.7486333,1027
0.7503,996
0.7519667,966
0.7536333,965
0.7553,1286
0.7569667,1282
0.7586333,1088
0.7603,806
0.7619666,1138
0.7636333,1012
0.7653,952
0.7669666,1062
0.7686333,960
0.7703,816
0.7719667,1108
0.7736334,1048
0.7753,1050
0.7769667,966
0.7786334,984
0.7803,871
0.7819667,795
0.7836334,927
0.7853,1241
0.7869667,1162
0.7886333,1098
0.7903,1168
0.7919667,1146
0.7936333,1000
0.7953,951
0.7969667,1188
0.7986333,964
0.8003,1343
0.8019667,1312
0.8036333,1235
0.8053,1392
0.8069667,1423
0.8086333,1387
0.8103,1352
0.8119667,1495
0.8136333,1533
0.8153,1481
0.8169667,1587
0.8186333,1523
0.8203,1459
0.8219666,1482
0.8236333,1576
0.8253,1569
0.8269666,1434
0.8286333,1002
0.8303,1402
0.8319666,1523
0.8336333,913
0.8353,1184
0.8369667,1043
0.8386334,1088
0.8403,1181
0.8419667,1114
0.8436334,1259
0.8453,890
0.8469667,996
0.8486333,1048
0.8503,992
0.8519667,936
0.8536333,873
0.8553,983
0.8569667,1070
0.8586333,1051
0.8603,1032
0.8619667,1237
0.8636333,1349
0.8653,1371
0.8669667,1378
0.8686333,1603
0.8703,1899
0.8719667,1908
0.8736333,1961
0.8753,1872
0.8769667,2027
0.8786333,2056
0.8803,1899
0.8819667,1552
0.8836333,1833
0.8853,1553
0.8869666,1736
0.8886333,1769
0.8903,1650
0.8919666,1691
0.8936333,1572
0.8953,1441
0.8969667,1402
0.8986334,1528
0.9003,1654
0.9019667,1672
0.9036334,1689
0.9053,1693
0.9069667,1526
0.9086334,1493
0.9103,1884
0.9119667,1824
0.9136333,1704
0.9153,1492
0.9169667,1525
0.9186333,1590
0.9203,1539
0.9219667,1382
0.9236333,1703
0.9253,1655
0.9269667,1786
0.9286333,1166
0.9303,1694
0.9319667,1817
0.9336333,1506
0.9353,1820
0.9369667,1402
0.9386333,1589
0.9403,1769
0.9419667,1591
0.9436333,1536
0.9453,1793
0.9469666,1649
0.9486333,1298
0.9503,1268
0.9519666,1221
0.9536333,1434
0.9553,1509
0.9569666,1355
0.9586333,1179
0.9603,1365
0.9619667,1131
0.9636334,1206
0.9653,1301
0.9669667,1182
0.9686334,1279
0.9703,1086
0.9719667,1204
0.9736333,1120
0.9753,1157
0.9769667,1232
0.9786333,1261
0.9803,1166
0.9819667,1194
0.9836333,1218
0.9853,1242
0.9869667,1454
0.9886333,1406
0.9903,1359
0.9919667,1486
0.9936333,1513
0.9953,1842
0.9969667,1779
0.9986333,1711
1.0003,1783
1.001967,1854
1.003633,2066
1.0053,2028
1.006967,2035
1.008633,2039
1.0103,2019
1.011967,1903
1.013633,1949
1.0153,1652
1.016967,1519
1.018633,1642
1.0203,1571
1.021967,1437
1.023633,1423
1.0253,1643
1.026967,1240
1.028633,1286
1.0303,1223
1.031967,1435
1.033633,1432
1.0353,1375
1.036967,1204
1.038633,1172
1.0403,1092
1.041967,1119
1.043633,1147
1.0453,1160
1.046967,1191
1.048633,1222
1.0503,1077
1.051967,1008
1.053633,1128
1.0553,1070
1.056967,1177
1.058633,939
1.0603,1000
1.061967,1000
1.063633,1044
1.0653,996
1.066967,892
1.068633,949
1.0703,1052
1.071967,1053
1.073633,1129
1.0753,1075
1.076967,817
1.078633,1221
1.0803,1300
1.081967,1225
1.083633,1177
1.0853,1132
1.086967,1369
1.088633,1521
1.0903,1355
1.091967,1448
1.093633,1245
1.0953,1475
1.096967,1457
1.098633,1481
1.1003,1505
1.101967,1671
1.103633,1734
1.1053,1558
1.106967,1432
1.108633,1380
1.1103,1316
1.111967,1447
1.113633,1180
1.1153,1437
1.116967,1226
1.118633,1209
1.1203,1326
1.121967,1373
1.123633,1387
1.1253,1215
1.126967,1505
1.128633,1015
1.1303,1109
1.131967,985
1.133633,981
1.1353,978
1.136967,969
1.138633,905
1.1403,981
1.141967,1039
1.143633,1095
1.1453,835
1.146967,1127
1.148633,1088
1.1503,870
1.151967,962
1.153633,957
1.1553,955
1.156967,896
1.158633,932
1.1603,968
1.161967,995
1.163633,954
1.1653,810
1.166967,967
1.168633,870
1.1703,889
1.171967,1128
1.173633,969
1.1753,810
1.176967,883
1.178633,997
1.1803,861
1.181967,1120
1.183633,1121
1.1853,968
1.186967,1073
1.188633,1032
1.1903,884
1.191967,860
1.193633,977
1.1953,791
1.196967,945
1.198633,1046
