"SampleName","A2Rd2_01-17"
"Target Mass 1",
"Column Name","IA-3 (3um, 4.6X100)"
"Channel","QDa 1: SIR Ch1"
0.00195,374
0.003616667,568
0.005283333,555
0.00695,662
0.008616666,633
0.01028333,605
0.01195,548
0.01361667,527
0.01528333,574
0.01695,558
0.01861667,541
0.02028333,506
0.02195,638
0.02361667,396
0.02528333,559
0.02695,558
0.02861667,487
0.03028333,621
0.03195,576
0.03361667,715
0.03528333,628
0.03695,355
0.03861667,589
0.04028333,575
0.04195,432
0.04361667,566
0.04528333,554
0.04695,543
0.04861667,467
0.05028334,554
0.05195,533
0.05361667,522
0.05528333,598
0.05695,449
0.05861667,717
0.06028333,646
0.06195,440
0.06361666,683
0.06528334,469
0.06695,560
0.06861667,542
0.07028333,563
0.07195,585
0.07361667,575
0.07528333,572
0.07695,470
0.07861666,623
0.08028334,601
0.08195,610
0.08361667,548
0.08528333,429
0.08695,648
0.08861667,624
0.09028333,630
0.09195,579
0.09361666,560
0.09528334,574
0.09695,507
0.09861667,550
0.1002833,484
0.10195,516
0.1036167,537
0.1052833,562
0.10695,587
0.1086167,557
0.1102833,528
0.11195,431
0.1136167,429
0.1152833,427
0.11695,464
0.1186167,623
0.1202833,577
0.12195,579
0.1236167,603
0.1252833,563
0.12695,558
0.1286167,581
0.1302833,580
0.13195,579
0.1336167,597
0.1352833,606
0.13695,483
0.1386167,456
0.1402833,522
0.14195,466
0.1436167,410
0.1452833,569
0.14695,630
0.1486167,592
0.1502833,440
0.15195,596
0.1536167,418
0.1552833,488
0.15695,591
0.1586167,615
0.1602833,470
0.16195,717
0.1636167,609
0.1652833,440
0.16695,535
0.1686167,511
0.1702833,528
0.17195,450
0.1736167,354
0.1752833,501
0.17695,492
0.1786167,483
0.1802833,449
0.18195,416
0.1836167,491
0.1852833,538
0.18695,545
0.1886167,521
0.1902833,541
0.19195,538
0.1936167,535
0.1952833,401
0.19695,505
0.1986167,551
0.2002833,555
0.20195,529
0.2036167,502
0.2052833,421
0.20695,473
0.2086167,546
0.2102833,522
0.21195,499
0.2136167,513
0.2152833,501
0.21695,599
0.2186167,678
0.2202833,618
0.22195,565
0.2236167,522
0.2252833,429
0.22695,522
0.2286167,521
0.2302833,412
0.23195,410
0.2336167,419
0.2352833,509
0.23695,466
0.2386167,423
0.2402833,473
0.24195,545
0.2436167,560
0.2452833,604
0.24695,693
0.2486167,358
0.2502833,487
0.25195,561
0.2536167,576
0.2552833,641
0.25695,633
0.2586167,550
0.2602833,460
0.26195,529
0.2636167,433
0.2652833,459
0.26695,485
0.2686167,473
0.2702833,473
0.27195,472
0.2736167,574
0.2752833,624
0.27695,670
0.2786167,539
0.2803,426
0.28195,556
0.2836167,450
0.2852833,582
0.28695,458
0.2886167,648
0.2902833,570
0.29195,613
0.2936167,606
0.2952833,602
0.29695,598
0.2986333,654
0.3003,540
0.30195,521
0.3036333,684
0.3052833,498
0.30695,473
0.3086167,633
0.3102833,584
0.31195,728
0.3136167,635
0.3153,727
0.31695,672
0.3186333,494
0.3202833,677
0.3219667,712
0.3236167,854
0.3252833,756
0.3269667,883
0.3286167,681
0.3302833,648
0.33195,590
0.3336333,525
0.3353,592
0.3369667,513
0.3386333,579
0.3402833,490
0.3419667,421
0.3436167,553
0.3453,492
0.34695,576
0.3486167,647
0.3503,763
0.35195,696
0.3536333,458
0.3553,421
0.3569667,634
0.3586333,528
0.3602833,745
0.3619667,1379
0.3636167,2410
0.3652833,5984
0.36695,7541
0.3686333,7057
0.3703,6495
0.3719667,5773
0.3736167,4600
0.3753,3724
0.3769667,3339
0.3786333,3317
0.3802833,2666
0.38195,2363
0.3836167,2127
0.3853,2018
0.3869667,1710
0.3886333,1736
0.3903,1661
0.3919667,1707
0.3936167,1630
0.3953,2014
0.39695,1923
0.3986333,1795
0.4002833,2023
0.4019667,2086
0.4036333,2149
0.4053,2450
0.4069667,2479
0.4086333,2067
0.4102833,2137
0.4119667,2641
0.4136167,2400
0.4153,2254
0.41695,2298
0.4186333,2429
0.4203,2276
0.4219667,2124
0.4236333,2356
0.4253,2705
0.4269667,2693
0.4286333,2150
0.4303,2162
0.4319667,2142
0.4336167,2202
0.4353,2392
0.4369667,2371
0.4386333,2659
0.4403,2919
0.4419667,3939
0.4436333,4629
0.4453,6954
0.4469667,10016
0.4486333,14440
0.4503,20820
0.4519667,31456
0.4536333,48112
0.4553,70688
0.4569667,100832
0.4586333,140608
0.4603,183936
0.4619667,236864
0.4636333,293184
0.4653,336064
0.4669667,388736
0.4686333,413952
0.4703,432832
0.4719667,425920
0.4736333,403776
0.4753,371648
0.4769667,327232
0.4786333,278528
0.4803,231232
0.4819667,187328
0.4836333,149760
0.4853,120032
0.4869667,96336
0.4886333,75808
0.4903,61664
0.4919667,51040
0.4936333,40576
0.4953,35936
0.4969667,29212
0.4986333,24408
0.5003,20348
0.5019667,18460
0.5036333,16244
0.5053,12932
0.5069667,11544
0.5086333,10152
0.5103,9400
0.5119666,8182
0.5136333,7295
0.5153,7289
0.5169666,6727
0.5186333,5411
0.5203,5387
0.5219667,5191
0.5236334,5357
0.5253,4930
0.5269667,4168
0.5286334,3931
0.5303,4293
0.5319667,4077
0.5336334,3687
0.5353,4215
0.5369667,3574
0.5386333,3621
0.5403,3501
0.5419667,3184
0.5436333,2840
0.5453,3018
0.5469667,2940
0.5486333,2996
0.5503,2572
0.5519667,2611
0.5536333,2499
0.5553,2504
0.5569667,2603
0.5586333,2250
0.5603,2494
0.5619667,2460
0.5636333,1853
0.5653,2287
0.5669667,2059
0.5686333,1969
0.5703,1786
0.5719666,1982
0.5736333,1886
0.5753,1787
0.5769666,1443
0.5786333,2026
0.5803,1707
0.5819666,1682
0.5836333,1770
0.5853,1610
0.5869667,1674
0.5886334,1739
0.5903,1448
0.5919667,1841
0.5936334,1489
0.5953,1444
0.5969667,1595
0.5986333,1575
0.6003,1556
0.6019667,1567
0.6036333,1574
0.6053,1581
0.6069667,1601
0.6086333,1621
0.6103,1627
0.6119667,1634
0.6136333,1552
0.6153,1509
0.6169667,1466
0.6186333,1741
0.6203,1603
0.6219667,1465
0.6236333,1597
0.6253,1461
0.6269667,1426
0.6286333,1474
0.6303,1424
0.6319667,1310
0.6336333,1390
0.6353,1214
0.6369666,1374
0.6386333,1278
0.6403,1143
0.6419666,915
0.6436333,1146
0.6453,987
0.6469667,916
0.6486334,996
0.6503,1076
0.6519667,1067
0.6536334,913
0.6553,978
0.6569667,1069
0.6586334,924
0.6603,1083
0.6619667,990
0.6636333,935
0.6653,942
0.6669667,930
0.6686333,939
0.6703,949
0.6719667,1133
0.6736333,1084
0.6753,893
0.6769667,990
0.6786333,1101
0.6803,918
0.6819667,1045
0.6836333,857
0.6853,1041
0.6869667,991
0.6886333,946
0.6903,847
0.6919667,932
0.6936333,959
0.6953,986
0.6969666,845
0.6986333,1028
0.7003,829
0.7019666,813
0.7036333,1034
0.7053,876
0.7069666,830
0.7086333,723
0.7103,857
0.7119667,861
0.7136334,864
0.7153,814
0.7169667,763
0.7186334,867
0.7203,910
0.7219667,765
0.7236333,631
0.7253,874
0.7269667,972
0.7286333,1041
0.7303,734
0.7319667,887
0.7336333,983
0.7353,830
0.7369667,881
0.7386333,885
0.7403,818
0.7419667,920
0.7436333,844
0.7453,904
0.7469667,825
0.7486333,891
0.7503,844
0.7519667,782
0.7536333,720
0.7553,897
0.7569667,935
0.7586333,928
0.7603,766
0.7619666,907
0.7636333,670
0.7653,747
0.7669666,789
0.7686333,820
0.7703,738
0.7719667,655
0.7736334,699
0.7753,777
0.7769667,720
0.7786334,673
0.7803,626
0.7819667,669
0.7836334,713
0.7853,651
0.7869667,588
0.7886333,702
0.7903,706
0.7919667,767
0.7936333,777
0.7953,773
0.7969667,768
0.7986333,661
0.8003,728
0.8019667,753
0.8036333,778
0.8053,715
0.8069667,738
0.8086333,706
0.8103,742
0.8119667,707
0.8136333,703
0.8153,536
0.8169667,794
0.8186333,581
0.8203,663
0.8219666,745
0.8236333,717
0.8253,647
0.8269666,738
0.8286333,643
0.8303,854
0.8319666,800
0.8336333,581
0.8353,680
0.8369667,830
0.8386334,673
0.8403,784
0.8419667,773
0.8436334,565
0.8453,523
0.8469667,573
0.8486333,679
0.8503,656
0.8519667,633
0.8536333,669
0.8553,647
0.8569667,625
0.8586333,669
0.8603,679
0.8619667,625
0.8636333,627
0.8653,899
0.8669667,1000
0.8686333,999
0.8703,1225
0.8719667,1629
0.8736333,1737
0.8753,1834
0.8769667,1968
0.8786333,1910
0.8803,1934
0.8819667,1958
0.8836333,1994
0.8853,1959
0.8869666,1923
0.8886333,2127
0.8903,1767
0.8919666,2134
0.8936333,1790
0.8953,2213
0.8969667,1963
0.8986334,2091
0.9003,1827
0.9019667,2101
0.9036334,1994
0.9053,2024
0.9069667,2095
0.9086334,2091
0.9103,2087
0.9119667,2268
0.9136333,1829
0.9153,2099
0.9169667,2147
0.9186333,2220
0.9203,1914
0.9219667,2195
0.9236333,2047
0.9253,2015
0.9269667,1922
0.9286333,1896
0.9303,1867
0.9319667,1837
0.9336333,1768
0.9353,1699
0.9369667,1790
0.9386333,1882
0.9403,1461
0.9419667,1688
0.9436333,1755
0.9453,1336
0.9469666,1531
0.9486333,1115
0.9503,1501
0.9519666,1344
0.9536333,1281
0.9553,1186
0.9569666,1051
0.9586333,1027
0.9603,1098
0.9619667,1012
0.9636334,854
0.9653,818
0.9669667,746
0.9686334,701
0.9703,772
0.9719667,732
0.9736333,693
0.9753,698
0.9769667,596
0.9786333,618
0.9803,508
0.9819667,614
0.9836333,661
0.9853,527
0.9869667,607
0.9886333,494
0.9903,617
0.9919667,665
0.9936333,578
0.9953,641
0.9969667,727
0.9986333,529
1.0003,509
1.001967,491
1.003633,474
1.0053,650
1.006967,644
1.008633,634
1.0103,559
1.011967,559
1.013633,510
1.0153,597
1.016967,449
1.018633,574
1.0203,664
1.021967,602
1.023633,684
1.0253,592
1.026967,628
1.028633,562
1.0303,518
1.031967,568
1.033633,596
1.0353,593
1.036967,589
1.038633,571
1.0403,606
1.041967,616
1.043633,532
1.0453,425
1.046967,581
1.048633,504
1.0503,588
1.051967,592
1.053633,597
1.0553,539
1.056967,501
1.058633,588
1.0603,579
1.061967,624
1.063633,522
1.0653,581
1.066967,634
1.068633,484
1.0703,519
1.071967,517
1.073633,727
1.0753,758
1.076967,638
1.078633,618
1.0803,640
1.081967,392
1.083633,540
1.0853,466
1.086967,571
1.088633,480
1.0903,522
1.091967,564
1.093633,593
1.0953,572
1.096967,552
1.098633,618
1.1003,596
1.101967,513
1.103633,463
1.1053,641
1.106967,592
1.108633,580
1.1103,635
1.111967,645
1.113633,688
1.1153,526
1.116967,583
1.118633,520
1.1203,660
1.121967,687
1.123633,488
1.1253,666
1.126967,510
1.128633,698
1.1303,670
1.131967,642
1.133633,679
1.1353,537
1.136967,559
1.138633,671
1.1403,452
1.141967,457
1.143633,552
1.1453,571
1.146967,536
1.148633,550
1.1503,564
1.151967,515
1.153633,466
1.1553,520
1.156967,601
1.158633,617
1.1603,633
1.161967,537
1.163633,441
1.1653,521
1.166967,576
1.168633,641
1.1703,683
1.171967,672
1.173633,577
1.1753,496
1.176967,591
1.178633,725
1.1803,661
1.181967,581
1.183633,626
1.1853,605
1.186967,554
1.188633,619
1.1903,771
1.191967,743
1.193633,658
1.1953,656
1.196967,481
1.198633,579
