"SampleName","A2Rd2_01-51"
"Target Mass 1",
"Column Name","IA-3 (3um, 4.6X100)"
"Channel","QDa 1: SIR Ch2"
0.00195,735
0.003616667,759
0.005283333,800
0.00695,1017
0.008616666,1142
0.01028333,1018
0.01195,853
0.01361667,996
0.01528333,978
0.01695,1024
0.01861667,947
0.02028333,1079
0.02195,1127
0.02361667,1006
0.02528333,1178
0.02695,1063
0.02861667,1023
0.03028333,1136
0.03195,943
0.03361667,1010
0.03528333,1029
0.03695,1232
0.03861667,1064
0.04028333,895
0.04195,1191
0.04361667,1078
0.04528333,921
0.04695,1302
0.04861667,1055
0.05028334,1180
0.05195,1064
0.05361667,1115
0.05528333,991
0.05695,994
0.05861667,997
0.06028333,1121
0.06195,1113
0.06361666,1196
0.06528334,1126
0.06695,1056
0.06861667,1072
0.07028333,874
0.07195,969
0.07361667,921
0.07528333,942
0.07695,871
0.07861666,799
0.08028334,896
0.08195,992
0.08361667,1036
0.08528333,1039
0.08695,1039
0.08861667,1040
0.09028333,1144
0.09195,1072
0.09361666,999
0.09528334,1115
0.09695,1020
0.09861667,993
0.1002833,1223
0.10195,837
0.1036167,1135
0.1052833,1055
0.10695,804
0.1086167,710
0.1102833,848
0.11195,986
0.1136167,1080
0.1152833,1023
0.11695,1108
0.1186167,774
0.1202833,987
0.12195,1024
0.1236167,1147
0.1252833,1123
0.12695,1033
0.1286167,913
0.1302833,873
0.13195,1016
0.1336167,989
0.1352833,1023
0.13695,1009
0.1386167,1006
0.1402833,852
0.14195,1068
0.1436167,1127
0.1452833,978
0.14695,1188
0.1486167,979
0.1502833,1106
0.15195,1237
0.1536167,832
0.1552833,982
0.15695,1111
0.1586167,1093
0.1602833,767
0.16195,1117
0.1636167,938
0.1652833,1124
0.16695,1070
0.1686167,1087
0.1702833,900
0.17195,832
0.1736167,887
0.1752833,840
0.17695,793
0.1786167,1066
0.1802833,1055
0.18195,1128
0.1836167,894
0.1852833,900
0.18695,817
0.1886167,941
0.1902833,952
0.19195,964
0.1936167,857
0.1952833,872
0.19695,888
0.1986167,841
0.2002833,794
0.20195,815
0.2036167,836
0.2052833,835
0.20695,833
0.2086167,901
0.2102833,969
0.21195,1026
0.2136167,1122
0.2152833,1219
0.21695,1225
0.2186167,1151
0.2202833,1044
0.22195,1126
0.2236167,1230
0.2252833,1257
0.22695,1230
0.2286167,1257
0.2302833,1236
0.23195,1254
0.2336167,1244
0.2352833,1235
0.23695,1245
0.2386167,1256
0.2402833,1195
0.24195,1318
0.2436167,1297
0.2453,1276
0.24695,1389
0.2486167,1097
0.2502833,1280
0.25195,1477
0.2536167,1377
0.2552833,1142
0.25695,1193
0.2586167,1195
0.2602833,1196
0.26195,1178
0.2636333,1241
0.2652833,1216
0.26695,1190
0.2686167,1337
0.2702833,1498
0.27195,1509
0.2736167,1357
0.2752833,1507
0.27695,1368
0.2786167,1103
0.2803,1305
0.28195,1470
0.2836167,1000
0.2852833,1274
0.28695,1168
0.2886167,1248
0.2902833,1303
0.29195,1164
0.2936167,1187
0.2952833,1210
0.29695,1305
0.2986333,1361
0.3002833,1497
0.30195,1441
0.3036333,1120
0.3053,1209
0.30695,1299
0.3086333,1348
0.3102833,1203
0.3119667,1316
0.3136167,1293
0.3153,1350
0.31695,1238
0.3186333,1127
0.3202833,1359
0.3219667,1451
0.3236167,1334
0.3253,1417
0.32695,1498
0.3286333,1283
0.3302833,1189
0.3319667,1350
0.3336333,1441
0.3353,1424
0.3369667,1337
0.3386333,1031
0.3402833,1234
0.3419667,1441
0.3436167,1364
0.3453,1163
0.34695,1689
0.3486333,1674
0.3503,1117
0.3519667,1454
0.3536333,1479
0.3553,1396
0.3569667,1269
0.3586333,1260
0.3602833,1264
0.3619667,1734
0.3636333,1762
0.3653,3136
0.36695,4181
0.3686333,4268
0.3703,5116
0.3719667,4545
0.3736333,4578
0.3753,3849
0.37695,3011
0.3786333,2348
0.3803,2089
0.3819667,1729
0.3836167,1166
0.3853,780
0.3869667,718
0.3886333,602
0.3902833,645
0.3919667,525
0.3936167,570
0.3953,410
0.3969667,403
0.3986333,397
0.4003,472
0.4019667,548
0.4036333,615
0.4052833,689
0.4069667,763
0.4086333,928
0.4103,954
0.4119667,980
0.4136333,924
0.4153,1055
0.4169667,1120
0.4186333,1028
0.4203,1228
0.4219667,1229
0.4236333,957
0.4253,1141
0.4269667,1125
0.4286333,977
0.4303,1149
0.4319667,1002
0.4336333,1185
0.4353,1247
0.4369667,1260
0.4386333,1278
0.4403,1448
0.4419667,1464
0.4436333,1468
0.4453,1589
0.4469667,1585
0.4486333,1582
0.4503,1593
0.4519667,1531
0.4536333,1470
0.4553,1597
0.4569667,1662
0.4586333,1905
0.4603,1824
0.4619667,1824
0.4636333,1824
0.4653,1893
0.4669667,1961
0.4686333,2007
0.4703,1912
0.4719667,1614
0.4736333,1744
0.4753,1723
0.4769667,1847
0.4786333,1463
0.4803,1705
0.4819667,1581
0.4836333,1332
0.4853,1247
0.4869667,1363
0.4886333,1388
0.4903,1306
0.4919667,1176
0.4936333,1222
0.4953,1267
0.4969667,1292
0.4986333,1200
0.5003,1148
0.5019667,1118
0.5036333,1142
0.5053,1207
0.5069667,1182
0.5086333,1157
0.5103,974
0.5119666,1282
0.5136333,1112
0.5153,1139
0.5169666,1174
0.5186333,982
0.5203,957
0.5219667,981
0.5236334,1005
0.5253,1144
0.5269667,1201
0.5286334,1272
0.5303,1139
0.5319667,1172
0.5336334,1276
0.5353,1090
0.5369667,1261
0.5386333,1340
0.5403,1442
0.5419667,1143
0.5436333,1230
0.5453,1152
0.5469667,1218
0.5486333,1283
0.5503,1094
0.5519667,1126
0.5536333,1356
0.5553,1060
0.5569667,1082
0.5586333,1074
0.5603,1041
0.5619667,1036
0.5636333,1045
0.5653,1113
0.5669667,936
0.5686333,1034
0.5703,1025
0.5719666,1025
0.5736333,1217
0.5753,1175
0.5769666,1172
0.5786333,1254
0.5803,1050
0.5819666,1224
0.5836333,1081
0.5853,991
0.5869667,1100
0.5886334,832
0.5903,1123
0.5919667,1136
0.5936334,1018
0.5953,1058
0.5969667,1151
0.5986333,974
0.6003,1252
0.6019667,1210
0.6036333,826
0.6053,1156
0.6069667,1033
0.6086333,1102
0.6103,933
0.6119667,1051
0.6136333,1169
0.6153,1027
0.6169667,1160
0.6186333,1055
0.6203,1164
0.6219667,1145
0.6236333,1126
0.6253,1033
0.6269667,1078
0.6286333,1122
0.6303,1194
0.6319667,1265
0.6336333,1232
0.6353,1236
0.6369666,994
0.6386333,1110
0.6403,1226
0.6419666,1346
0.6436333,1221
0.6453,1197
0.6469667,1243
0.6486334,1103
0.6503,1147
0.6519667,1191
0.6536334,1066
0.6553,1181
0.6569667,1194
0.6586334,895
0.6603,1082
0.6619667,1170
0.6636333,1149
0.6653,1036
0.6669667,1098
0.6686333,974
0.6703,883
0.6719667,1043
0.6736333,906
0.6753,940
0.6769667,1019
0.6786333,1148
0.6803,1223
0.6819667,1364
0.6836333,1298
0.6853,1233
0.6869667,1463
0.6886333,1694
0.6903,1912
0.6919667,2512
0.6936333,2420
0.6953,3002
0.6969666,2874
0.6986333,3496
0.7003,3979
0.7019666,4530
0.7036333,4638
0.7053,5078
0.7069666,5455
0.7086333,5246
0.7103,5605
0.7119667,6046
0.7136334,5821
0.7153,5596
0.7169667,6302
0.7186334,6011
0.7203,5568
0.7219667,6071
0.7236333,4421
0.7253,4778
0.7269667,4291
0.7286333,4122
0.7303,3663
0.7319667,3001
0.7336333,2851
0.7353,2409
0.7369667,2122
0.7386333,1718
0.7403,2012
0.7419667,1441
0.7436333,1729
0.7453,1562
0.7469667,1466
0.7486333,1444
0.7503,1261
0.7519667,1194
0.7536333,1389
0.7553,1160
0.7569667,1020
0.7586333,1415
0.7603,1146
0.7619666,1195
0.7636333,1029
0.7653,1132
0.7669666,1118
0.7686333,1173
0.7703,951
0.7719667,1182
0.7736334,1147
0.7753,989
0.7769667,1256
0.7786334,1240
0.7803,1292
0.7819667,1216
0.7836334,1456
0.7853,1886
0.7869667,1811
0.7886333,2395
0.7903,3094
0.7919667,2861
0.7936333,3873
0.7953,4174
0.7969667,4912
0.7986333,5801
0.8003,6339
0.8019667,6415
0.8036333,7929
0.8053,8460
0.8069667,8856
0.8086333,9160
0.8103,10112
0.8119667,11528
0.8136333,11516
0.8153,12212
0.8169667,12552
0.8186333,12100
0.8203,12504
0.8219666,11224
0.8236333,11816
0.8253,10484
0.8269666,10788
0.8286333,9424
0.8303,8608
0.8319666,7449
0.8336333,6851
0.8353,6146
0.8369667,5090
0.8386334,4826
0.8403,4445
0.8419667,3440
0.8436334,3567
0.8453,2682
0.8469667,2632
0.8486333,2298
0.8503,2063
0.8519667,2012
0.8536333,2062
0.8553,1944
0.8569667,1640
0.8586333,1586
0.8603,1753
0.8619667,1593
0.8636333,2209
0.8653,2157
0.8669667,2240
0.8686333,2318
0.8703,2493
0.8719667,2667
0.8736333,2584
0.8753,2773
0.8769667,2322
0.8786333,2426
0.8803,2425
0.8819667,2625
0.8836333,2729
0.8853,1753
0.8869666,2204
0.8886333,2205
0.8903,2393
0.8919666,1969
0.8936333,2123
0.8953,2104
0.8969667,2086
0.8986334,2069
0.9003,1947
0.9019667,2194
0.9036334,2107
0.9053,1652
0.9069667,1667
0.9086334,1734
0.9103,2025
0.9119667,2086
0.9136333,1794
0.9153,2078
0.9169667,2025
0.9186333,1907
0.9203,1943
0.9219667,2218
0.9236333,2230
0.9253,1819
0.9269667,1962
0.9286333,1732
0.9303,1708
0.9319667,1737
0.9336333,1870
0.9353,1900
0.9369667,1907
0.9386333,1682
0.9403,1607
0.9419667,1404
0.9436333,1532
0.9453,1448
0.9469666,1365
0.9486333,1495
0.9503,1752
0.9519666,1778
0.9536333,1430
0.9553,1868
0.9569666,1710
0.9586333,1990
0.9603,1841
0.9619667,2167
0.9636334,2006
0.9653,2340
0.9669667,2667
0.9686334,2716
0.9703,3228
0.9719667,3621
0.9736333,3920
0.9753,4172
0.9769667,4862
0.9786333,4914
0.9803,6388
0.9819667,6295
0.9836333,7534
0.9853,8084
0.9869667,8828
0.9886333,10200
0.9903,10280
0.9919667,12268
0.9936333,11900
0.9953,12348
0.9969667,13088
0.9986333,13072
1.0003,14348
1.001967,15256
1.003633,14844
1.0053,15856
1.006967,16004
1.008633,15544
1.0103,14568
1.011967,14032
1.013633,14460
1.0153,13588
1.016967,12044
1.018633,12008
1.0203,10224
1.021967,9688
1.023633,8520
1.0253,7514
1.026967,7064
1.028633,6179
1.0303,5863
1.031967,5848
1.033633,4784
1.0353,4711
1.036967,3960
1.038633,3766
1.0403,3769
1.041967,3683
1.043633,2961
1.0453,2943
1.046967,2843
1.048633,2821
1.0503,2619
1.051967,2658
1.053633,2371
1.0553,2823
1.056967,2422
1.058633,2385
1.0603,2628
1.061967,2539
1.063633,2675
1.0653,2549
1.066967,2528
1.068633,2594
1.0703,2661
1.071967,2802
1.073633,3003
1.0753,3356
1.076967,3342
1.078633,3026
1.0803,3372
1.081967,4073
1.083633,3995
1.0853,4063
1.086967,4050
1.088633,4365
1.0903,4523
1.091967,4862
1.093633,4974
1.0953,4861
1.096967,5201
1.098633,5279
1.1003,5321
1.101967,5363
1.103633,5656
1.1053,5630
1.106967,5842
1.108633,5678
1.1103,5358
1.111967,5565
1.113633,5350
1.1153,5036
1.116967,4621
1.118633,4511
1.1203,4523
1.121967,4193
1.123633,3912
1.1253,3721
1.126967,3389
1.128633,3326
1.1303,3136
1.131967,2847
1.133633,2542
1.1353,2308
1.136967,2178
1.138633,2154
1.1403,2009
1.141967,1790
1.143633,2039
1.1453,1972
1.146967,1826
1.148633,1478
1.1503,1646
1.151967,1515
1.153633,1620
1.1553,1381
1.156967,1323
1.158633,1190
1.1603,1321
1.161967,1235
1.163633,1310
1.1653,999
1.166967,1468
1.168633,1284
1.1703,1202
1.171967,1098
1.173633,1226
1.1753,1291
1.176967,1192
1.178633,1245
1.1803,1211
1.181967,1178
1.183633,1175
1.1853,1139
1.186967,1087
1.188633,1035
1.1903,1075
1.191967,1068
1.193633,1061
1.1953,1214
1.196967,1239
1.198633,1409
