"SampleName","A2Rd2_01-22"
"Target Mass 1",
"Column Name","IA-3 (3um, 4.6X100)"
"Channel","QDa 1: SIR Ch2"
0.00195,733
0.003616667,728
0.005283333,724
0.00695,607
0.008616666,720
0.01028333,773
0.01195,826
0.01361667,780
0.01528333,886
0.01695,673
0.01861667,917
0.02028333,716
0.02195,819
0.02361667,779
0.02528333,818
0.02695,812
0.02861667,806
0.03028333,896
0.03195,890
0.03361667,710
0.03528333,995
0.03695,715
0.03861667,885
0.04028333,802
0.04195,762
0.04361667,722
0.04528333,795
0.04695,800
0.04861667,805
0.05028334,784
0.05195,762
0.05361667,890
0.05528333,876
0.05695,862
0.05861667,909
0.06028333,982
0.06195,1056
0.06361666,795
0.06528334,794
0.06695,1033
0.06861667,970
0.07028333,900
0.07195,977
0.07361667,963
0.07528333,949
0.07695,983
0.07861666,934
0.08028334,940
0.08195,818
0.08361667,791
0.08528333,893
0.08695,861
0.08861667,829
0.09028333,873
0.09195,892
0.09361666,875
0.09528334,815
0.09695,883
0.09861667,924
0.1002833,767
0.10195,985
0.1036167,844
0.1052833,744
0.10695,978
0.1086167,901
0.1102833,633
0.11195,866
0.1136167,818
0.1152833,803
0.11695,722
0.1186167,854
0.1202833,858
0.12195,853
0.1236167,738
0.1252833,823
0.12695,847
0.1286167,861
0.1302833,876
0.13195,930
0.1336167,923
0.1352833,890
0.13695,850
0.1386167,881
0.1402833,898
0.14195,915
0.1436167,908
0.1452833,900
0.14695,976
0.1486167,816
0.1502833,839
0.15195,918
0.1536167,818
0.1552833,687
0.15695,851
0.1586167,786
0.1602833,743
0.16195,887
0.1636167,936
0.1652833,1039
0.16695,925
0.1686167,924
0.1702833,915
0.17195,823
0.1736167,804
0.1752833,784
0.17695,577
0.1786167,947
0.1802833,825
0.18195,836
0.1836167,803
0.1852833,813
0.18695,824
0.1886167,776
0.1902833,797
0.19195,818
0.1936167,779
0.1952833,924
0.19695,880
0.1986167,836
0.2002833,872
0.20195,805
0.2036167,970
0.2052833,973
0.20695,869
0.2086167,735
0.2102833,1039
0.21195,1017
0.2136167,904
0.2152833,845
0.21695,916
0.2186167,889
0.2202833,845
0.22195,870
0.2236167,1086
0.2252833,1055
0.22695,1200
0.2286167,1164
0.2302833,1153
0.23195,1046
0.2336167,1052
0.2352833,1053
0.23695,996
0.2386167,863
0.2402833,1032
0.24195,981
0.2436167,967
0.2452833,1018
0.24695,1013
0.2486167,1008
0.2502833,1110
0.25195,1144
0.2536167,1127
0.2552833,1058
0.25695,1114
0.2586167,1051
0.2602833,1045
0.26195,1040
0.2636167,1174
0.2652833,1094
0.26695,1013
0.2686167,980
0.2702833,961
0.27195,943
0.2736167,927
0.2752833,961
0.27695,921
0.2786167,917
0.2803,912
0.28195,980
0.2836167,1051
0.2852833,1003
0.28695,857
0.2886167,1108
0.2902833,1160
0.29195,954
0.2936167,1151
0.2952833,987
0.29695,1235
0.2986333,1110
0.3002833,1241
0.30195,1018
0.3036167,1052
0.3052833,1050
0.30695,1094
0.3086167,1058
0.3102833,1022
0.31195,1065
0.3136167,1107
0.3153,1078
0.31695,1126
0.3186167,1072
0.3203,1018
0.32195,1033
0.3236167,1048
0.3252833,1264
0.32695,1304
0.3286167,998
0.3302833,1294
0.33195,1408
0.3336333,1449
0.3352833,1115
0.3369667,1356
0.3386167,1327
0.3402833,1479
0.34195,1356
0.3436167,1065
0.3452833,1328
0.34695,1207
0.3486167,1433
0.3503,1510
0.35195,1534
0.3536167,1187
0.3552833,1517
0.35695,1479
0.3586167,1499
0.3602833,1429
0.36195,2122
0.3636167,4241
0.3652833,4904
0.36695,5171
0.3686333,5100
0.3703,4858
0.37195,3649
0.3736167,3062
0.3752833,2594
0.3769667,1957
0.3786167,1615
0.3803,1290
0.38195,921
0.3836167,817
0.3853,675
0.3869667,473
0.3886167,491
0.3903,757
0.39195,745
0.3936333,714
0.3952833,827
0.3969667,799
0.3986167,1020
0.4003,1067
0.40195,1299
0.4036333,1251
0.4053,1391
0.4069667,1166
0.4086167,1425
0.4103,1169
0.41195,1009
0.4136333,875
0.4152833,997
0.4169667,1006
0.4186167,1014
0.4203,807
0.4219667,760
0.4236333,890
0.4252833,1003
0.4269667,1011
0.4286167,901
0.4303,911
0.43195,920
0.4336333,980
0.4353,1039
0.4369667,1196
0.4386333,1122
0.4403,1048
0.4419667,1178
0.4436333,1309
0.4453,1372
0.4469667,1335
0.4486333,1381
0.4503,1427
0.4519667,1423
0.4536333,1419
0.4553,1509
0.4569667,1598
0.4586333,1867
0.4603,1836
0.4619667,1658
0.4636333,1686
0.4653,1720
0.4669667,1713
0.4686333,1705
0.4703,1840
0.4719667,1468
0.4736333,1460
0.4753,1646
0.4769667,1478
0.4786333,1243
0.4803,1420
0.4819667,1363
0.4836333,1248
0.4853,1065
0.4869667,1320
0.4886333,1268
0.4903,1310
0.4919667,1208
0.4936333,1205
0.4953,1202
0.4969667,1252
0.4986333,1129
0.5003,1084
0.5019667,1101
0.5036333,1128
0.5053,925
0.5069667,968
0.5086333,1070
0.5103,1150
0.5119666,1091
0.5136333,1037
0.5153,945
0.5169666,906
0.5186333,1065
0.5203,966
0.5219667,950
0.5236334,1245
0.5253,1217
0.5269667,788
0.5286334,966
0.5303,1009
0.5319667,879
0.5336334,1217
0.5353,1192
0.5369667,1145
0.5386333,1180
0.5403,900
0.5419667,941
0.5436333,1186
0.5453,1133
0.5469667,950
0.5486333,1010
0.5503,1096
0.5519667,918
0.5536333,987
0.5553,1056
0.5569667,859
0.5586333,978
0.5603,1019
0.5619667,1072
0.5636333,1042
0.5653,831
0.5669667,861
0.5686333,931
0.5703,953
0.5719666,762
0.5736333,907
0.5753,1041
0.5769666,1023
0.5786333,921
0.5803,820
0.5819666,928
0.5836333,925
0.5853,921
0.5869667,962
0.5886334,1127
0.5903,1114
0.5919667,1036
0.5936334,931
0.5953,1029
0.5969667,988
0.5986333,947
0.6003,970
0.6019667,885
0.6036333,1002
0.6053,953
0.6069667,1078
0.6086333,1042
0.6103,890
0.6119667,1056
0.6136333,1150
0.6153,864
0.6169667,764
0.6186333,967
0.6203,951
0.6219667,935
0.6236333,970
0.6253,1005
0.6269667,987
0.6286333,841
0.6303,1022
0.6319667,849
0.6336333,1106
0.6353,1044
0.6369666,1085
0.6386333,984
0.6403,889
0.6419666,864
0.6436333,1055
0.6453,1002
0.6469667,890
0.6486334,929
0.6503,934
0.6519667,934
0.6536334,895
0.6553,857
0.6569667,964
0.6586334,895
0.6603,949
0.6619667,1003
0.6636333,871
0.6653,881
0.6669667,781
0.6686333,664
0.6703,959
0.6719667,929
0.6736333,999
0.6753,1053
0.6769667,810
0.6786333,907
0.6803,863
0.6819667,831
0.6836333,799
0.6853,891
0.6869667,861
0.6886333,832
0.6903,912
0.6919667,747
0.6936333,891
0.6953,966
0.6969666,975
0.6986333,770
0.7003,1044
0.7019666,831
0.7036333,1104
0.7053,911
0.7069666,1081
0.7086333,792
0.7103,881
0.7119667,969
0.7136334,857
0.7153,896
0.7169667,711
0.7186334,776
0.7203,799
0.7219667,822
0.7236333,820
0.7253,810
0.7269667,817
0.7286333,823
0.7303,867
0.7319667,867
0.7336333,866
0.7353,884
0.7369667,1006
0.7386333,1049
0.7403,936
0.7419667,1007
0.7436333,1079
0.7453,870
0.7469667,666
0.7486333,771
0.7503,926
0.7519667,963
0.7536333,1009
0.7553,774
0.7569667,809
0.7586333,904
0.7603,1007
0.7619666,634
0.7636333,705
0.7653,859
0.7669666,818
0.7686333,817
0.7703,865
0.7719667,895
0.7736334,924
0.7753,750
0.7769667,1036
0.7786334,978
0.7803,955
0.7819667,835
0.7836334,841
0.7853,847
0.7869667,886
0.7886333,761
0.7903,739
0.7919667,900
0.7936333,1027
0.7953,1032
0.7969667,868
0.7986333,760
0.8003,865
0.8019667,893
0.8036333,784
0.8053,807
0.8069667,856
0.8086333,846
0.8103,836
0.8119667,781
0.8136333,800
0.8153,864
0.8169667,928
0.8186333,676
0.8203,1152
0.8219666,1002
0.8236333,697
0.8253,986
0.8269666,650
0.8286333,871
0.8303,1001
0.8319666,1036
0.8336333,889
0.8353,841
0.8369667,925
0.8386334,1009
0.8403,1023
0.8419667,773
0.8436334,875
0.8453,882
0.8469667,705
0.8486333,914
0.8503,803
0.8519667,874
0.8536333,1110
0.8553,1043
0.8569667,932
0.8586333,692
0.8603,923
0.8619667,884
0.8636333,901
0.8653,944
0.8669667,1210
0.8686333,1250
0.8703,1281
0.8719667,1611
0.8736333,1564
0.8753,1528
0.8769667,1436
0.8786333,1238
0.8803,1581
0.8819667,1496
0.8836333,1410
0.8853,1122
0.8869666,1257
0.8886333,1367
0.8903,1394
0.8919666,1360
0.8936333,1248
0.8953,1140
0.8969667,1503
0.8986334,1425
0.9003,1608
0.9019667,1397
0.9036334,1365
0.9053,1483
0.9069667,1491
0.9086334,1499
0.9103,1589
0.9119667,1573
0.9136333,1479
0.9153,1319
0.9169667,1452
0.9186333,1435
0.9203,1514
0.9219667,1363
0.9236333,1416
0.9253,1469
0.9269667,1368
0.9286333,1316
0.9303,1264
0.9319667,1278
0.9336333,1291
0.9353,1320
0.9369667,1349
0.9386333,1339
0.9403,1285
0.9419667,1230
0.9436333,1098
0.9453,1360
0.9469666,1235
0.9486333,1264
0.9503,1355
0.9519666,1048
0.9536333,1219
0.9553,1155
0.9569666,1029
0.9586333,982
0.9603,1296
0.9619667,1261
0.9636334,992
0.9653,985
0.9669667,1085
0.9686334,946
0.9703,1124
0.9719667,774
0.9736333,896
0.9753,885
0.9769667,876
0.9786333,949
0.9803,776
0.9819667,751
0.9836333,928
0.9853,943
0.9869667,697
0.9886333,1060
0.9903,912
0.9919667,904
0.9936333,1015
0.9953,736
0.9969667,1091
0.9986333,783
1.0003,835
1.001967,883
1.003633,905
1.0053,927
1.006967,864
1.008633,949
1.0103,879
1.011967,931
1.013633,905
1.0153,948
1.016967,991
1.018633,944
1.0203,897
1.021967,781
1.023633,895
1.0253,879
1.026967,864
1.028633,1033
1.0303,1089
1.031967,1053
1.033633,998
1.0353,1120
1.036967,789
1.038633,969
1.0403,799
1.041967,990
1.043633,841
1.0453,998
1.046967,838
1.048633,894
1.0503,1002
1.051967,871
1.053633,970
1.0553,948
1.056967,905
1.058633,753
1.0603,856
1.061967,738
1.063633,758
1.0653,773
1.066967,787
1.068633,819
1.0703,851
1.071967,831
1.073633,842
1.0753,852
1.076967,815
1.078633,778
1.0803,785
1.081967,815
1.083633,791
1.0853,767
1.086967,655
1.088633,843
1.0903,957
1.091967,952
1.093633,1009
1.0953,845
1.096967,881
1.098633,915
1.1003,922
1.101967,885
1.103633,1013
1.1053,710
1.106967,839
1.108633,926
1.1103,985
1.111967,812
1.113633,798
1.1153,883
1.116967,816
1.118633,771
1.1203,850
1.121967,808
1.123633,767
1.1253,741
1.126967,941
1.128633,921
1.1303,711
1.131967,770
1.133633,979
1.1353,845
1.136967,793
1.138633,824
1.1403,837
1.141967,849
1.143633,763
1.1453,751
1.146967,739
1.148633,715
1.1503,691
1.151967,1079
1.153633,1025
1.1553,874
1.156967,978
1.158633,817
1.1603,708
1.161967,854
1.163633,848
1.1653,841
1.166967,692
1.168633,863
1.1703,905
1.171967,793
1.173633,876
1.1753,727
1.176967,655
1.178633,821
1.1803,897
1.181967,819
1.183633,726
1.1853,766
1.186967,811
1.188633,715
1.1903,805
1.191967,872
1.193633,824
1.1953,856
1.196967,916
1.198633,921
