"SampleName","A2Rd2_01-68"
"Target Mass 1",
"Column Name","IA-3 (3um, 4.6X100)"
"Channel","QDa 1: SIR Ch2"
0.00195,525
0.003616667,605
0.005283333,618
0.00695,623
0.008616666,748
0.01028333,802
0.01195,856
0.01361667,816
0.01528333,777
0.01695,874
0.01861667,771
0.02028333,816
0.02195,861
0.02361667,850
0.02528333,821
0.02695,792
0.02861667,830
0.03028333,833
0.03195,863
0.03361667,846
0.03528333,828
0.03695,859
0.03861667,889
0.04028333,856
0.04195,822
0.04361667,848
0.04528333,890
0.04695,932
0.04861667,766
0.05028334,821
0.05195,895
0.05361667,845
0.05528333,897
0.05695,871
0.05861667,845
0.06028333,870
0.06195,886
0.06361666,902
0.06528334,898
0.06695,895
0.06861667,876
0.07028333,857
0.07195,863
0.07361667,868
0.07528333,869
0.07695,871
0.07861666,794
0.08028334,818
0.08195,865
0.08361667,865
0.08528333,771
0.08695,717
0.08861667,896
0.09028333,781
0.09195,730
0.09361666,762
0.09528334,793
0.09695,799
0.09861667,804
0.1002833,798
0.10195,791
0.1036167,742
0.1052833,726
0.10695,760
0.1086167,794
0.1102833,773
0.11195,886
0.1136167,860
0.1152833,866
0.11695,877
0.1186167,888
0.1202833,900
0.12195,909
0.1236167,832
0.1252833,846
0.12695,838
0.1286167,838
0.1302833,838
0.13195,813
0.1336167,787
0.1352833,679
0.13695,785
0.1386167,815
0.1402833,813
0.14195,823
0.1436167,655
0.1452833,666
0.14695,762
0.1486167,531
0.1502833,674
0.15195,847
0.1536167,909
0.1552833,715
0.15695,847
0.1586167,818
0.1602833,769
0.16195,788
0.1636167,781
0.1652833,824
0.16695,867
0.1686167,880
0.1702833,725
0.17195,826
0.1736167,592
0.1752833,870
0.17695,686
0.1786167,737
0.1802833,922
0.18195,901
0.1836167,661
0.1852833,873
0.18695,801
0.1886167,753
0.1902833,854
0.19195,855
0.1936167,832
0.1952833,802
0.19695,816
0.1986167,839
0.2002833,858
0.20195,856
0.2036167,854
0.2052833,909
0.20695,964
0.2086167,1026
0.2102833,812
0.21195,796
0.2136167,836
0.2152833,802
0.21695,833
0.2186167,840
0.2202833,848
0.22195,860
0.2236167,973
0.2252833,1034
0.22695,1087
0.2286167,1140
0.2302833,887
0.23195,957
0.2336167,1187
0.2352833,1103
0.23695,1164
0.2386167,944
0.2402833,1032
0.24195,1121
0.2436167,1225
0.2453,1236
0.24695,912
0.2486167,927
0.2502833,1111
0.25195,1007
0.2536167,979
0.2552833,951
0.25695,1025
0.2586167,1052
0.2602833,1079
0.26195,1074
0.2636333,1086
0.2652833,1098
0.26695,1175
0.2686333,965
0.2702833,1064
0.27195,1060
0.2736167,1056
0.2752833,1131
0.27695,1118
0.2786167,1104
0.2803,904
0.28195,823
0.2836167,968
0.2852833,1028
0.28695,931
0.2886167,889
0.2902833,856
0.29195,823
0.2936167,901
0.2952833,979
0.29695,980
0.2986333,981
0.3002833,693
0.3019667,984
0.3036167,1023
0.3052833,1062
0.30695,1005
0.3086167,1102
0.3102833,1126
0.31195,1081
0.3136167,1035
0.3153,1133
0.31695,1151
0.3186333,1169
0.3202833,1093
0.32195,1098
0.3236167,1103
0.3252833,1240
0.32695,922
0.3286167,1093
0.3302833,1232
0.33195,1154
0.3336333,1108
0.3353,1195
0.33695,1156
0.3386333,1231
0.3402833,1206
0.34195,1181
0.3436167,1254
0.3452833,1327
0.34695,1280
0.3486167,1233
0.3503,1280
0.3519667,1309
0.3536333,1260
0.3553,1283
0.3569667,1339
0.3586167,1297
0.3602833,1254
0.36195,1390
0.3636167,1741
0.3653,2388
0.36695,3632
0.3686333,4576
0.3703,4734
0.3719667,4968
0.3736333,4871
0.3753,4559
0.3769667,4998
0.3786333,4248
0.3803,3693
0.3819667,2849
0.3836333,2698
0.3853,2170
0.3869667,1737
0.3886333,1502
0.3903,1001
0.3919667,1079
0.3936333,848
0.3953,634
0.3969667,674
0.3986333,392
0.4003,527
0.4019667,521
0.4036333,590
0.4053,629
0.4069667,592
0.4086333,624
0.4103,707
0.4119667,688
0.4136333,651
0.4153,490
0.4169667,510
0.4186333,643
0.4203,669
0.4219667,607
0.4236333,718
0.4253,733
0.4269667,836
0.4286333,803
0.4303,770
0.4319667,825
0.4336333,751
0.4353,922
0.4369667,952
0.4386333,977
0.4403,1015
0.4419667,865
0.4436333,956
0.4453,973
0.4469667,966
0.4486333,959
0.4503,927
0.4519667,894
0.4536333,1024
0.4553,988
0.4569667,986
0.4586333,985
0.4603,1374
0.4619667,1316
0.4636333,1298
0.4653,1132
0.4669667,1184
0.4686333,1182
0.4703,1275
0.4719667,1200
0.4736333,1124
0.4753,1246
0.4769667,1414
0.4786333,1346
0.4803,1217
0.4819667,1131
0.4836333,1191
0.4853,1128
0.4869667,1065
0.4886333,1028
0.4903,1079
0.4919667,1130
0.4936333,994
0.4953,858
0.4969667,1072
0.4986333,1191
0.5003,1332
0.5019667,954
0.5036333,771
0.5053,917
0.5069667,846
0.5086333,857
0.5103,998
0.5119666,1039
0.5136333,863
0.5153,1003
0.5169666,770
0.5186333,907
0.5203,822
0.5219667,896
0.5236334,880
0.5253,911
0.5269667,908
0.5286334,871
0.5303,845
0.5319667,850
0.5336334,1002
0.5353,1047
0.5369667,949
0.5386333,823
0.5403,725
0.5419667,807
0.5436333,959
0.5453,943
0.5469667,984
0.5486333,791
0.5503,924
0.5519667,1016
0.5536333,1019
0.5553,921
0.5569667,1106
0.5586333,1050
0.5603,893
0.5619667,1021
0.5636333,1049
0.5653,863
0.5669667,1059
0.5686333,852
0.5703,944
0.5719666,966
0.5736333,932
0.5753,972
0.5769666,833
0.5786333,750
0.5803,765
0.5819666,1005
0.5836333,1130
0.5853,1117
0.5869667,937
0.5886334,875
0.5903,923
0.5919667,752
0.5936334,965
0.5953,870
0.5969667,775
0.5986333,791
0.6003,848
0.6019667,819
0.6036333,790
0.6053,668
0.6069667,682
0.6086333,697
0.6103,907
0.6119667,1074
0.6136333,930
0.6153,992
0.6169667,961
0.6186333,1012
0.6203,928
0.6219667,867
0.6236333,854
0.6253,844
0.6269667,927
0.6286333,1009
0.6303,1206
0.6319667,1117
0.6336333,1071
0.6353,1057
0.6369666,1163
0.6386333,1248
0.6403,1189
0.6419666,1104
0.6436333,983
0.6453,1038
0.6469667,990
0.6486334,976
0.6503,999
0.6519667,1048
0.6536334,853
0.6553,881
0.6569667,992
0.6586334,1095
0.6603,1059
0.6619667,969
0.6636333,911
0.6653,882
0.6669667,1070
0.6686333,1094
0.6703,1095
0.6719667,1097
0.6736333,1548
0.6753,1692
0.6769667,2151
0.6786333,2692
0.6803,3205
0.6819667,3848
0.6836333,5132
0.6853,6515
0.6869667,7485
0.6886333,9320
0.6903,10376
0.6919667,13400
0.6936333,14380
0.6953,16496
0.6969666,19204
0.6986333,21436
0.7003,20956
0.7019666,24368
0.7036333,25908
0.7053,26828
0.7069666,28448
0.7086333,29024
0.7103,30248
0.7119667,29968
0.7136334,29692
0.7153,28872
0.7169667,28796
0.7186334,26908
0.7203,26420
0.7219667,23340
0.7236333,21572
0.7253,18204
0.7269667,15460
0.7286333,13372
0.7303,11480
0.7319667,10184
0.7336333,8848
0.7353,7449
0.7369667,6405
0.7386333,5164
0.7403,4577
0.7419667,3990
0.7436333,3434
0.7453,3151
0.7469667,2665
0.7486333,2429
0.7503,2185
0.7519667,2140
0.7536333,1943
0.7553,1912
0.7569667,1779
0.7586333,1977
0.7603,1420
0.7619666,1633
0.7636333,1583
0.7653,1213
0.7669666,1515
0.7686333,1503
0.7703,1423
0.7719667,1206
0.7736334,1449
0.7753,1604
0.7769667,2038
0.7786334,2109
0.7803,2181
0.7819667,3076
0.7836334,3726
0.7853,4249
0.7869667,5231
0.7886333,5493
0.7903,7847
0.7919667,9052
0.7936333,10640
0.7953,12396
0.7969667,14220
0.7986333,16424
0.8003,17372
0.8019667,19772
0.8036333,21344
0.8053,22604
0.8069667,24096
0.8086333,26432
0.8103,26912
0.8119667,28408
0.8136333,28084
0.8153,29236
0.8169667,29260
0.8186333,29280
0.8203,29900
0.8219666,30192
0.8236333,28212
0.8253,28348
0.8269666,26376
0.8286333,24916
0.8303,21852
0.8319666,20076
0.8336333,18288
0.8353,15840
0.8369667,14528
0.8386334,12104
0.8403,10620
0.8419667,9136
0.8436334,7270
0.8453,6933
0.8469667,6218
0.8486333,5360
0.8503,4866
0.8519667,4084
0.8536333,3801
0.8553,3659
0.8569667,3314
0.8586333,2415
0.8603,2618
0.8619667,2324
0.8636333,2196
0.8653,2216
0.8669667,1980
0.8686333,1985
0.8703,2019
0.8719667,1782
0.8736333,1955
0.8753,1867
0.8769667,1752
0.8786333,1689
0.8803,1886
0.8819667,1828
0.8836333,2007
0.8853,2076
0.8869666,2145
0.8886333,1878
0.8903,1813
0.8919666,2055
0.8936333,1930
0.8953,1719
0.8969667,1860
0.8986334,1789
0.9003,1545
0.9019667,1646
0.9036334,1820
0.9053,1689
0.9069667,1884
0.9086334,1627
0.9103,1410
0.9119667,1696
0.9136333,1593
0.9153,1720
0.9169667,1460
0.9186333,1662
0.9203,1469
0.9219667,1664
0.9236333,1424
0.9253,1658
0.9269667,1621
0.9286333,1395
0.9303,1378
0.9319667,1445
0.9336333,1413
0.9353,1382
0.9369667,1351
0.9386333,1320
0.9403,1323
0.9419667,1326
0.9436333,1296
0.9453,1465
0.9469666,1430
0.9486333,1757
0.9503,1689
0.9519666,2148
0.9536333,1982
0.9553,2501
0.9569666,2572
0.9586333,3190
0.9603,3557
0.9619667,4427
0.9636334,5527
0.9653,6122
0.9669667,7012
0.9686334,9276
0.9703,10324
0.9719667,11720
0.9736333,14260
0.9753,16560
0.9769667,19732
0.9786333,22000
0.9803,25504
0.9819667,28772
0.9836333,32096
0.9853,34800
0.9869667,38864
0.9886333,41456
0.9903,43664
0.9919667,46848
0.9936333,48800
0.9953,53248
0.9969667,55472
0.9986333,56432
1.0003,59696
1.001967,61568
1.003633,64112
1.0053,66864
1.006967,66912
1.008633,68672
1.0103,68400
1.011967,68336
1.013633,67472
1.0153,67488
1.016967,66208
1.018633,64944
1.0203,60080
1.021967,58800
1.023633,53328
1.0253,49296
1.026967,46288
1.028633,42096
1.0303,36224
1.031967,35504
1.033633,31000
1.0353,27704
1.036967,24624
1.038633,22936
1.0403,20188
1.041967,18264
1.043633,17972
1.0453,14824
1.046967,13864
1.048633,13580
1.0503,12272
1.051967,11916
1.053633,11624
1.0553,11644
1.056967,11028
1.058633,10880
1.0603,11096
1.061967,11312
1.063633,11340
1.0653,11324
1.066967,11308
1.068633,12520
1.0703,13656
1.071967,13588
1.073633,14080
1.0753,14576
1.076967,15176
1.078633,15360
1.0803,16048
1.081967,17060
1.083633,18020
1.0853,18192
1.086967,18548
1.088633,18908
1.0903,19268
1.091967,21232
1.093633,21436
1.0953,21348
1.096967,20876
1.098633,21060
1.1003,21048
1.101967,21028
1.103633,21004
1.1053,19988
1.106967,20548
1.108633,18836
1.1103,18844
1.111967,18380
1.113633,16504
1.1153,15728
1.116967,14252
1.118633,14188
1.1203,12820
1.121967,13308
1.123633,11364
1.1253,10548
1.126967,9120
1.128633,9276
1.1303,8648
1.131967,7340
1.133633,7921
1.1353,6214
1.136967,6448
1.138633,5404
1.1403,5086
1.141967,4641
1.143633,4571
1.1453,4003
1.146967,4155
1.148633,3849
1.1503,3778
1.151967,3033
1.153633,3079
1.1553,2925
1.156967,3015
1.158633,2861
1.1603,2331
1.161967,2463
1.163633,1971
1.1653,2436
1.166967,2524
1.168633,1968
1.1703,2293
1.171967,1924
1.173633,2213
1.1753,1983
1.176967,2007
1.178633,2169
1.1803,1943
1.181967,1840
1.183633,1915
1.1853,1952
1.186967,1524
1.188633,1972
1.1903,2046
1.191967,1972
1.193633,2062
1.1953,1953
1.196967,2038
1.198633,2440
