"SampleName","A2Rd2_01-48"
"Target Mass 1",
"Column Name","IA-3 (3um, 4.6X100)"
"Channel","QDa 1: SIR Ch2"
0.00195,671
0.003616667,662
0.005283333,575
0.00695,614
0.008616666,739
0.01028333,728
0.01195,897
0.01361667,873
0.01528333,839
0.01695,662
0.01861667,910
0.02028333,758
0.02195,967
0.02361667,785
0.02528333,861
0.02695,1000
0.02861667,735
0.03028333,866
0.03195,723
0.03361667,813
0.03528333,832
0.03695,928
0.03861667,887
0.04028333,845
0.04195,893
0.04361667,941
0.04528333,943
0.04695,902
0.04861667,916
0.05028334,948
0.05195,799
0.05361667,993
0.05528333,936
0.05695,1040
0.05861667,933
0.06028333,1000
0.06195,1043
0.06361666,926
0.06528334,747
0.06695,802
0.06861667,698
0.07028333,878
0.07195,917
0.07361667,927
0.07528333,671
0.07695,904
0.07861666,693
0.08028334,977
0.08195,845
0.08361667,987
0.08528333,821
0.08695,740
0.08861667,796
0.09028333,793
0.09195,789
0.09361666,779
0.09528334,768
0.09695,743
0.09861667,778
0.1002833,684
0.10195,778
0.1036167,837
0.1052833,895
0.10695,850
0.1086167,935
0.1102833,692
0.11195,771
0.1136167,859
0.1152833,748
0.11695,788
0.1186167,780
0.1202833,732
0.12195,811
0.1236167,822
0.1252833,830
0.12695,887
0.1286167,983
0.1302833,970
0.13195,726
0.1336167,779
0.1352833,574
0.13695,629
0.1386167,683
0.1402833,787
0.14195,891
0.1436167,939
0.1452833,820
0.14695,711
0.1486167,924
0.1502833,994
0.15195,894
0.1536167,984
0.1552833,769
0.15695,648
0.1586167,752
0.1602833,786
0.16195,820
0.1636167,886
0.1652833,850
0.16695,647
0.1686167,705
0.1702833,637
0.17195,734
0.1736167,915
0.1752833,918
0.17695,787
0.1786167,797
0.1802833,680
0.18195,748
0.1836167,816
0.1852833,809
0.18695,829
0.1886167,754
0.1902833,817
0.19195,775
0.1936167,786
0.1952833,784
0.19695,782
0.1986167,834
0.2002833,787
0.20195,740
0.2036167,784
0.2052833,828
0.20695,821
0.2086167,844
0.2102833,915
0.21195,893
0.2136167,871
0.2152833,716
0.21695,953
0.2186167,927
0.2202833,851
0.22195,877
0.2236167,902
0.2252833,991
0.22695,1080
0.2286167,1122
0.2302833,974
0.23195,1035
0.2336167,1193
0.2352833,1175
0.23695,1276
0.2386167,992
0.2402833,1094
0.24195,1188
0.2436167,1169
0.2452833,1092
0.24695,1176
0.2486167,1259
0.2502833,1238
0.25195,1181
0.2536167,1061
0.2552833,1184
0.25695,1100
0.2586167,1223
0.2602833,1129
0.26195,1008
0.2636167,1170
0.2652833,1080
0.26695,1078
0.2686167,924
0.2702833,1140
0.27195,1067
0.2736167,971
0.2752833,1127
0.27695,1155
0.2786167,1112
0.2802833,964
0.28195,1064
0.2836167,1037
0.2852833,1029
0.28695,984
0.2886167,1002
0.2902833,999
0.29195,919
0.2936167,986
0.2952833,980
0.29695,1023
0.2986167,1003
0.3002833,983
0.30195,812
0.3036167,1192
0.3052833,1119
0.30695,1041
0.3086167,1034
0.3102833,1075
0.31195,1116
0.3136167,1228
0.3152833,1158
0.31695,1089
0.3186167,991
0.3202833,1090
0.32195,987
0.3236333,1087
0.3252833,1188
0.32695,1287
0.3286167,1325
0.3302833,1074
0.33195,1315
0.3336333,1151
0.3352833,1204
0.33695,1221
0.3386167,1238
0.3402833,1301
0.34195,1362
0.3436167,1366
0.3452833,1331
0.34695,1297
0.3486167,1371
0.3503,1347
0.35195,1362
0.3536167,1204
0.3552833,1400
0.35695,1444
0.3586167,1555
0.3602833,1598
0.36195,1481
0.3636167,1990
0.3652833,3694
0.36695,4844
0.3686333,5232
0.3703,5566
0.3719667,5688
0.3736167,5068
0.3752833,4507
0.37695,4346
0.3786167,3493
0.3802833,2516
0.38195,2118
0.3836167,1698
0.3853,1659
0.38695,1097
0.3886333,852
0.3903,705
0.39195,687
0.3936167,608
0.3952833,601
0.3969667,573
0.3986167,497
0.4002833,435
0.40195,463
0.4036333,516
0.4053,570
0.4069667,532
0.4086167,576
0.4102833,620
0.41195,654
0.4136333,687
0.4152833,647
0.41695,674
0.4186167,701
0.4203,757
0.4219667,754
0.4236333,719
0.4252833,633
0.4269667,660
0.4286167,687
0.4303,664
0.43195,729
0.4336333,740
0.4352833,750
0.43695,1025
0.4386333,956
0.4403,790
0.4419667,1100
0.4436333,1089
0.4453,1034
0.4469667,812
0.4486167,1185
0.4503,1070
0.45195,1199
0.4536333,1135
0.4553,1246
0.4569667,894
0.4586333,1061
0.4603,1340
0.4619667,1171
0.4636333,1408
0.4652833,1327
0.4669667,1249
0.4686167,1208
0.4703,1339
0.4719667,1389
0.4736333,1363
0.4753,1243
0.4769667,1212
0.4786333,1401
0.4803,1168
0.4819667,1164
0.4836333,1037
0.4853,1003
0.4869667,1095
0.4886333,1039
0.4903,960
0.4919667,1129
0.4936333,1067
0.4953,1113
0.4969667,792
0.4986333,872
0.5003,807
0.5019667,982
0.5036333,958
0.5053,858
0.5069667,812
0.5086333,782
0.5103,816
0.5119666,793
0.5136333,771
0.5153,834
0.5169666,909
0.5186333,916
0.5203,851
0.5219667,757
0.5236334,900
0.5253,722
0.5269667,933
0.5286334,980
0.5303,854
0.5319667,1012
0.5336334,941
0.5353,872
0.5369667,819
0.5386333,994
0.5403,918
0.5419667,857
0.5436333,882
0.5453,883
0.5469667,804
0.5486333,739
0.5503,848
0.5519667,883
0.5536333,938
0.5553,799
0.5569667,900
0.5586333,799
0.5603,760
0.5619667,720
0.5636333,683
0.5653,670
0.5669667,657
0.5686333,737
0.5703,782
0.5719666,793
0.5736333,804
0.5753,868
0.5769666,851
0.5786333,834
0.5803,1008
0.5819666,1010
0.5836333,750
0.5853,851
0.5869667,953
0.5886334,700
0.5903,995
0.5919667,1030
0.5936334,1184
0.5953,1144
0.5969667,1047
0.5986333,1086
0.6003,837
0.6019667,964
0.6036333,962
0.6053,961
0.6069667,990
0.6086333,1023
0.6103,817
0.6119667,975
0.6136333,983
0.6153,991
0.6169667,1074
0.6186333,1100
0.6203,902
0.6219667,876
0.6236333,928
0.6253,953
0.6269667,978
0.6286333,949
0.6303,964
0.6319667,979
0.6336333,919
0.6353,1111
0.6369666,1060
0.6386333,1008
0.6403,1070
0.6419666,1092
0.6436333,1114
0.6453,1227
0.6469667,1209
0.6486334,912
0.6503,1111
0.6519667,1134
0.6536334,1062
0.6553,1078
0.6569667,1227
0.6586334,868
0.6603,858
0.6619667,1033
0.6636333,835
0.6653,974
0.6669667,909
0.6686333,845
0.6703,891
0.6719667,734
0.6736333,720
0.6753,744
0.6769667,747
0.6786333,750
0.6803,778
0.6819667,797
0.6836333,816
0.6853,860
0.6869667,878
0.6886333,761
0.6903,942
0.6919667,753
0.6936333,798
0.6953,795
0.6969666,819
0.6986333,844
0.7003,733
0.7019666,897
0.7036333,910
0.7053,922
0.7069666,932
0.7086333,942
0.7103,723
0.7119667,849
0.7136334,925
0.7153,908
0.7169667,941
0.7186334,874
0.7203,808
0.7219667,797
0.7236333,726
0.7253,952
0.7269667,1054
0.7286333,930
0.7303,864
0.7319667,877
0.7336333,961
0.7353,958
0.7369667,841
0.7386333,924
0.7403,864
0.7419667,921
0.7436333,878
0.7453,835
0.7469667,789
0.7486333,828
0.7503,861
0.7519667,894
0.7536333,845
0.7553,797
0.7569667,675
0.7586333,777
0.7603,778
0.7619666,820
0.7636333,804
0.7653,787
0.7669666,618
0.7686333,728
0.7703,928
0.7719667,907
0.7736334,747
0.7753,933
0.7769667,902
0.7786334,739
0.7803,923
0.7819667,938
0.7836334,689
0.7853,688
0.7869667,779
0.7886333,983
0.7903,918
0.7919667,712
0.7936333,789
0.7953,778
0.7969667,760
0.7986333,743
0.8003,727
0.8019667,740
0.8036333,809
0.8053,877
0.8069667,831
0.8086333,972
0.8103,1010
0.8119667,961
0.8136333,945
0.8153,1116
0.8169667,1126
0.8186333,1038
0.8203,1085
0.8219666,1195
0.8236333,831
0.8253,1050
0.8269666,965
0.8286333,1013
0.8303,826
0.8319666,1116
0.8336333,830
0.8353,754
0.8369667,970
0.8386334,943
0.8403,953
0.8419667,830
0.8436334,885
0.8453,707
0.8469667,886
0.8486333,779
0.8503,748
0.8519667,877
0.8536333,774
0.8553,638
0.8569667,908
0.8586333,855
0.8603,1024
0.8619667,671
0.8636333,795
0.8653,979
0.8669667,931
0.8686333,940
0.8703,962
0.8719667,984
0.8736333,947
0.8753,910
0.8769667,962
0.8786333,1126
0.8803,1194
0.8819667,1380
0.8836333,1250
0.8853,1437
0.8869666,1589
0.8886333,1632
0.8903,1474
0.8919666,1557
0.8936333,1495
0.8953,1595
0.8969667,1331
0.8986334,1289
0.9003,1448
0.9019667,1332
0.9036334,1553
0.9053,1457
0.9069667,1362
0.9086334,1440
0.9103,1463
0.9119667,1434
0.9136333,1263
0.9153,1347
0.9169667,1461
0.9186333,1363
0.9203,1264
0.9219667,1390
0.9236333,1347
0.9253,1386
0.9269667,1424
0.9286333,1095
0.9303,1552
0.9319667,1446
0.9336333,1486
0.9353,1510
0.9369667,1273
0.9386333,1389
0.9403,1312
0.9419667,1388
0.9436333,1429
0.9453,1093
0.9469666,1144
0.9486333,1284
0.9503,1163
0.9519666,1041
0.9536333,1117
0.9553,1194
0.9569666,1236
0.9586333,904
0.9603,1183
0.9619667,1018
0.9636334,1218
0.9653,966
0.9669667,1061
0.9686334,901
0.9703,981
0.9719667,853
0.9736333,923
0.9753,820
0.9769667,951
0.9786333,1014
0.9803,767
0.9819667,835
0.9836333,797
0.9853,921
0.9869667,878
0.9886333,787
0.9903,780
0.9919667,871
0.9936333,962
0.9953,953
0.9969667,729
0.9986333,940
1.0003,832
1.001967,929
1.003633,878
1.0053,830
1.006967,896
1.008633,956
1.0103,954
1.011967,912
1.013633,996
1.0153,973
1.016967,815
1.018633,907
1.0203,663
1.021967,797
1.023633,930
1.0253,940
1.026967,873
1.028633,860
1.0303,906
1.031967,907
1.033633,773
1.0353,866
1.036967,906
1.038633,1123
1.0403,1037
1.041967,903
1.043633,870
1.0453,1011
1.046967,998
1.048633,704
1.0503,1172
1.051967,880
1.053633,915
1.0553,977
1.056967,822
1.058633,893
1.0603,964
1.061967,822
1.063633,902
1.0653,810
1.066967,757
1.068633,778
1.0703,769
1.071967,760
1.073633,817
1.0753,874
1.076967,834
1.078633,763
1.0803,804
1.081967,860
1.083633,755
1.0853,818
1.086967,863
1.088633,838
1.0903,812
1.091967,618
1.093633,863
1.0953,972
1.096967,801
1.098633,798
1.1003,935
1.101967,893
1.103633,900
1.1053,890
1.106967,880
1.108633,751
1.1103,867
1.111967,871
1.113633,823
1.1153,631
1.116967,829
1.118633,753
1.1203,861
1.121967,1022
1.123633,946
1.1253,628
1.126967,851
1.128633,864
1.1303,793
1.131967,843
1.133633,830
1.1353,713
1.136967,790
1.138633,815
1.1403,816
1.141967,641
1.143633,879
1.1453,786
1.146967,619
1.148633,682
1.1503,797
1.151967,783
1.153633,771
1.1553,760
1.156967,808
1.158633,824
1.1603,815
1.161967,805
1.163633,819
1.1653,776
1.166967,710
1.168633,859
1.1703,769
1.171967,836
1.173633,797
1.1753,943
1.176967,897
1.178633,846
1.1803,829
1.181967,641
1.183633,727
1.1853,839
1.186967,771
1.188633,805
1.1903,746
1.191967,525
1.193633,729
1.1953,635
1.196967,819
1.198633,734
