"SampleName","A2Rd2_01-49"
"Target Mass 1",
"Column Name","IA-3 (3um, 4.6X100)"
"Channel","QDa 1: SIR Ch2"
0.00195,490
0.003616667,825
0.005283333,756
0.00695,897
0.008616666,1010
0.01028333,1041
0.01195,1007
0.01361667,1202
0.01528333,1190
0.01695,996
0.01861667,1138
0.02028333,1102
0.02195,1079
0.02361667,1055
0.02528333,921
0.02695,973
0.02861667,1024
0.03028333,998
0.03195,993
0.03361667,1001
0.03528333,1008
0.03695,1060
0.03861667,1069
0.04028333,1179
0.04195,1123
0.04361667,1067
0.04528333,1118
0.04695,1170
0.04861667,1203
0.05028334,1025
0.05195,965
0.05361667,861
0.05528333,1058
0.05695,1090
0.05861667,1027
0.06028333,916
0.06195,876
0.06361666,892
0.06528334,899
0.06695,1038
0.06861667,1009
0.07028333,979
0.07195,772
0.07361667,1011
0.07528333,999
0.07695,987
0.07861666,934
0.08028334,988
0.08195,820
0.08361667,1112
0.08528333,1001
0.08695,913
0.08861667,934
0.09028333,964
0.09195,923
0.09361666,883
0.09528334,843
0.09695,820
0.09861667,798
0.1002833,849
0.10195,833
0.1036167,816
0.1052833,1049
0.10695,1043
0.1086167,862
0.1102833,974
0.11195,1001
0.1136167,1074
0.1152833,862
0.11695,961
0.1186167,885
0.1202833,874
0.12195,863
0.1236167,845
0.1252833,927
0.12695,1140
0.1286167,1116
0.1302833,939
0.13195,962
0.1336167,1124
0.1352833,949
0.13695,1035
0.1386167,967
0.1402833,898
0.14195,908
0.1436167,771
0.1452833,826
0.14695,913
0.1486167,1059
0.1502833,1077
0.15195,853
0.1536167,773
0.1552833,954
0.15695,965
0.1586167,890
0.1602833,837
0.16195,870
0.1636167,834
0.1652833,913
0.16695,868
0.1686167,823
0.1702833,932
0.17195,916
0.1736167,793
0.1752833,918
0.17695,980
0.1786167,951
0.1802833,880
0.18195,926
0.1836167,822
0.1852833,1051
0.18695,1137
0.1886167,840
0.1902833,903
0.19195,843
0.1936167,784
0.1952833,839
0.19695,893
0.1986167,937
0.2002833,858
0.20195,778
0.2036167,906
0.2052833,1131
0.20695,1108
0.2086167,988
0.2102833,1116
0.21195,915
0.2136167,1106
0.2152833,1021
0.21695,1020
0.2186167,1063
0.2202833,1094
0.22195,947
0.2236167,1065
0.2252833,1150
0.22695,1120
0.2286167,1089
0.2302833,1141
0.23195,1020
0.2336167,1266
0.2352833,1193
0.23695,1226
0.2386167,1301
0.2402833,1316
0.24195,1329
0.2436167,1251
0.2453,986
0.24695,1220
0.2486167,1185
0.2502833,894
0.25195,1169
0.2536167,1085
0.2552833,1245
0.25695,1287
0.2586167,1051
0.2602833,1292
0.26195,1080
0.2636333,972
0.2652833,1293
0.26695,1242
0.2686167,1294
0.2702833,1035
0.27195,1231
0.2736167,1031
0.2752833,1226
0.27695,1058
0.2786167,1160
0.2803,1189
0.28195,1104
0.2836167,1025
0.2852833,1169
0.28695,917
0.2886167,1347
0.2902833,1195
0.29195,1201
0.2936167,1234
0.2952833,1142
0.29695,935
0.2986333,1170
0.3002833,1383
0.30195,1249
0.3036333,1150
0.3052833,1249
0.3069667,1290
0.3086167,1129
0.3102833,1154
0.31195,1181
0.3136167,1231
0.3153,1051
0.31695,1181
0.3186167,1251
0.3203,1252
0.3219667,1117
0.3236167,1135
0.3252833,1315
0.32695,1218
0.3286333,1171
0.3302833,1251
0.33195,1032
0.3336333,1227
0.3352833,1322
0.3369667,1426
0.3386167,1194
0.3402833,1315
0.34195,1431
0.3436167,1306
0.3453,1314
0.34695,1353
0.3486167,1392
0.3503,1345
0.35195,1297
0.3536167,1371
0.3553,1289
0.3569667,1241
0.3586167,1193
0.3602833,1371
0.3619667,1522
0.3636167,1981
0.3652833,3237
0.36695,4702
0.3686333,5296
0.3703,5549
0.3719667,5216
0.3736167,4883
0.3753,4707
0.37695,3490
0.3786333,2695
0.3802833,2001
0.3819667,1393
0.3836333,1124
0.3853,931
0.38695,596
0.3886333,620
0.3902833,449
0.3919667,431
0.3936167,538
0.3953,374
0.39695,481
0.3986333,502
0.4002833,432
0.4019667,503
0.4036333,380
0.4053,565
0.4069667,598
0.4086333,722
0.4103,846
0.4119667,925
0.4136333,1024
0.4153,1111
0.4169667,987
0.4186333,1092
0.4203,936
0.4219667,1059
0.4236333,1154
0.4253,1138
0.4269667,1131
0.4286333,1061
0.4303,1072
0.4319667,1084
0.4336333,1219
0.4353,1343
0.4369667,1392
0.4386333,1432
0.4403,1180
0.4419667,1456
0.4436333,1556
0.4453,1271
0.4469667,1557
0.4486333,1688
0.4503,1751
0.4519667,1704
0.4536333,1649
0.4553,1697
0.4569667,1745
0.4586333,1638
0.4603,1833
0.4619667,1883
0.4636333,1752
0.4653,1838
0.4669667,1728
0.4686333,1755
0.4703,1794
0.4719667,1750
0.4736333,1567
0.4753,1403
0.4769667,1649
0.4786333,1609
0.4803,1335
0.4819667,1390
0.4836333,1488
0.4853,1163
0.4869667,1330
0.4886333,1401
0.4903,1254
0.4919667,1391
0.4936333,1202
0.4953,1302
0.4969667,1243
0.4986333,1109
0.5003,1159
0.5019667,1236
0.5036333,1269
0.5053,1034
0.5069667,1148
0.5086333,1210
0.5103,1088
0.5119666,1041
0.5136333,1013
0.5153,1078
0.5169666,1016
0.5186333,955
0.5203,901
0.5219667,879
0.5236334,984
0.5253,999
0.5269667,1014
0.5286334,1250
0.5303,1216
0.5319667,1215
0.5336334,1206
0.5353,1204
0.5369667,953
0.5386333,1186
0.5403,1015
0.5419667,1201
0.5436333,1163
0.5453,1185
0.5469667,981
0.5486333,1236
0.5503,1144
0.5519667,966
0.5536333,1149
0.5553,1156
0.5569667,939
0.5586333,971
0.5603,1041
0.5619667,943
0.5636333,922
0.5653,936
0.5669667,926
0.5686333,984
0.5703,1017
0.5719666,965
0.5736333,912
0.5753,846
0.5769666,978
0.5786333,901
0.5803,825
0.5819666,1043
0.5836333,1066
0.5853,763
0.5869667,1187
0.5886334,1333
0.5903,1106
0.5919667,1081
0.5936334,1145
0.5953,914
0.5969667,1095
0.5986333,898
0.6003,1012
0.6019667,1081
0.6036333,1110
0.6053,867
0.6069667,1017
0.6086333,1031
0.6103,1082
0.6119667,1081
0.6136333,1164
0.6153,1163
0.6169667,1245
0.6186333,1021
0.6203,1231
0.6219667,1360
0.6236333,1254
0.6253,1304
0.6269667,1217
0.6286333,1234
0.6303,1250
0.6319667,1226
0.6336333,1217
0.6353,1209
0.6369666,1201
0.6386333,1369
0.6403,1343
0.6419666,1458
0.6436333,1156
0.6453,1399
0.6469667,1289
0.6486334,1211
0.6503,1435
0.6519667,1141
0.6536334,1307
0.6553,944
0.6569667,1302
0.6586334,1182
0.6603,1204
0.6619667,1175
0.6636333,1146
0.6653,947
0.6669667,1017
0.6686333,1133
0.6703,1157
0.6719667,1056
0.6736333,1112
0.6753,1056
0.6769667,1000
0.6786333,998
0.6803,1470
0.6819667,1676
0.6836333,1843
0.6853,1931
0.6869667,2782
0.6886333,2954
0.6903,3635
0.6919667,4179
0.6936333,4306
0.6953,5621
0.6969666,6564
0.6986333,6728
0.7003,7828
0.7019666,8876
0.7036333,10008
0.7053,10500
0.7069666,11908
0.7086333,12956
0.7103,13620
0.7119667,13648
0.7136334,13748
0.7153,14292
0.7169667,14224
0.7186334,14584
0.7203,13928
0.7219667,13004
0.7236333,11432
0.7253,10384
0.7269667,9228
0.7286333,8936
0.7303,8248
0.7319667,6238
0.7336333,5456
0.7353,4773
0.7369667,4418
0.7386333,3882
0.7403,3226
0.7419667,2855
0.7436333,2433
0.7453,2406
0.7469667,2005
0.7486333,2042
0.7503,2064
0.7519667,1804
0.7536333,1535
0.7553,1557
0.7569667,1259
0.7586333,1488
0.7603,1599
0.7619666,1322
0.7636333,1402
0.7653,1251
0.7669666,1256
0.7686333,1058
0.7703,1335
0.7719667,1391
0.7736334,1378
0.7753,1336
0.7769667,1410
0.7786334,1483
0.7803,1981
0.7819667,2262
0.7836334,2436
0.7853,3017
0.7869667,3613
0.7886333,4312
0.7903,4821
0.7919667,6524
0.7936333,6876
0.7953,8504
0.7969667,10220
0.7986333,11684
0.8003,12444
0.8019667,14440
0.8036333,16192
0.8053,17040
0.8069667,18804
0.8086333,20952
0.8103,22836
0.8119667,25936
0.8136333,26548
0.8153,26832
0.8169667,27588
0.8186333,28256
0.8203,27540
0.8219666,26772
0.8236333,26776
0.8253,25172
0.8269666,24256
0.8286333,20984
0.8303,19468
0.8319666,16704
0.8336333,15972
0.8353,13736
0.8369667,12036
0.8386334,9892
0.8403,8190
0.8419667,7386
0.8436334,6058
0.8453,5661
0.8469667,5242
0.8486333,4265
0.8503,3124
0.8519667,3553
0.8536333,2797
0.8553,2686
0.8569667,2898
0.8586333,2329
0.8603,2388
0.8619667,2349
0.8636333,2839
0.8653,2858
0.8669667,2820
0.8686333,2781
0.8703,3015
0.8719667,3065
0.8736333,3115
0.8753,3126
0.8769667,3026
0.8786333,3099
0.8803,2702
0.8819667,2190
0.8836333,2594
0.8853,2494
0.8869666,2347
0.8886333,2421
0.8903,2088
0.8919666,2181
0.8936333,2503
0.8953,2340
0.8969667,2357
0.8986334,2478
0.9003,2280
0.9019667,2206
0.9036334,1957
0.9053,2053
0.9069667,1947
0.9086334,1842
0.9103,2141
0.9119667,2437
0.9136333,2343
0.9153,1962
0.9169667,2044
0.9186333,2004
0.9203,2140
0.9219667,2095
0.9236333,2215
0.9253,2335
0.9269667,2452
0.9286333,2035
0.9303,2047
0.9319667,1423
0.9336333,2031
0.9353,1797
0.9369667,2073
0.9386333,2085
0.9403,1868
0.9419667,1769
0.9436333,2024
0.9453,1772
0.9469666,1931
0.9486333,2070
0.9503,2038
0.9519666,2184
0.9536333,2155
0.9553,2273
0.9569666,2808
0.9586333,2825
0.9603,3027
0.9619667,3332
0.9636334,4424
0.9653,4734
0.9669667,5803
0.9686334,6613
0.9703,8228
0.9719667,9132
0.9736333,10656
0.9753,11832
0.9769667,14076
0.9786333,15640
0.9803,17396
0.9819667,20196
0.9836333,22812
0.9853,24960
0.9869667,27796
0.9886333,29516
0.9903,35312
0.9919667,36608
0.9936333,40128
0.9953,41840
0.9969667,45568
0.9986333,48192
1.0003,50400
1.001967,51264
1.003633,52944
1.0053,53952
1.006967,52704
1.008633,52176
1.0103,51712
1.011967,51104
1.013633,47568
1.0153,46544
1.016967,43888
1.018633,39872
1.0203,36192
1.021967,33056
1.023633,30100
1.0253,27232
1.026967,23880
1.028633,21836
1.0303,18956
1.031967,15660
1.033633,15544
1.0353,14124
1.036967,12424
1.038633,10904
1.0403,9416
1.041967,10032
1.043633,8608
1.0453,8216
1.046967,7251
1.048633,7889
1.0503,6761
1.051967,6537
1.053633,6439
1.0553,6193
1.056967,5798
1.058633,5970
1.0603,5913
1.061967,5856
1.063633,5915
1.0653,5860
1.066967,5709
1.068633,5412
1.0703,6045
1.071967,5436
1.073633,6218
1.0753,5630
1.076967,6159
1.078633,6687
1.0803,7228
1.081967,7511
1.083633,7296
1.0853,8185
1.086967,8396
1.088633,8348
1.0903,9064
1.091967,9332
1.093633,10000
1.0953,10540
1.096967,10264
1.098633,10376
1.1003,11132
1.101967,10912
1.103633,10692
1.1053,10128
1.106967,10128
1.108633,10844
1.1103,10648
1.111967,10456
1.113633,9800
1.1153,10052
1.116967,8912
1.118633,8576
1.1203,7967
1.121967,7375
1.123633,7445
1.1253,6547
1.126967,5705
1.128633,5974
1.1303,5404
1.131967,4919
1.133633,4481
1.1353,4291
1.136967,3843
1.138633,3751
1.1403,2960
1.141967,3230
1.143633,2880
1.1453,2825
1.146967,2696
1.148633,2600
1.1503,2389
1.151967,2407
1.153633,2135
1.1553,2240
1.156967,2191
1.158633,2149
1.1603,1860
1.161967,1906
1.163633,1919
1.1653,1866
1.166967,1665
1.168633,1926
1.1703,1803
1.171967,1659
1.173633,1493
1.1753,1728
1.176967,1704
1.178633,1352
1.1803,1456
1.181967,1358
1.183633,1680
1.1853,1603
1.186967,1740
1.188633,1703
1.1903,1627
1.191967,1683
1.193633,1723
1.1953,1708
1.196967,1694
1.198633,1645
