"SampleName","A2Rd2_01-77"
"Target Mass 1",
"Column Name","IA-3 (3um, 4.6X100)"
"Channel","QDa 1: SIR Ch2"
0.00195,542
0.003616667,614
0.005283333,726
0.00695,901
0.008616666,1009
0.01028333,786
0.01195,780
0.01361667,792
0.01528333,894
0.01695,890
0.01861667,886
0.02028333,852
0.02195,812
0.02361667,772
0.02528333,859
0.02695,816
0.02861667,772
0.03028333,874
0.03195,768
0.03361667,848
0.03528333,849
0.03695,915
0.03861667,909
0.04028333,903
0.04195,943
0.04361667,905
0.04528333,868
0.04695,938
0.04861667,934
0.05028334,929
0.05195,750
0.05361667,897
0.05528333,930
0.05695,835
0.05861667,987
0.06028333,989
0.06195,819
0.06361666,946
0.06528334,912
0.06695,886
0.06861667,860
0.07028333,797
0.07195,814
0.07361667,831
0.07528333,850
0.07695,776
0.07861666,839
0.08028334,901
0.08195,863
0.08361667,825
0.08528333,786
0.08695,872
0.08861667,887
0.09028333,852
0.09195,852
0.09361666,673
0.09528334,891
0.09695,716
0.09861667,786
0.1002833,773
0.10195,673
0.1036167,724
0.1052833,1040
0.10695,995
0.1086167,988
0.1102833,879
0.11195,698
0.1136167,904
0.1152833,960
0.11695,818
0.1186167,900
0.1202833,809
0.12195,836
0.1236167,862
0.1252833,834
0.12695,814
0.1286167,874
0.1302833,820
0.13195,773
0.1336167,887
0.1352833,761
0.13695,869
0.1386167,790
0.1402833,855
0.14195,850
0.1436167,802
0.1452833,766
0.14695,653
0.1486167,798
0.1502833,764
0.15195,816
0.1536167,762
0.1552833,709
0.15695,919
0.1586167,919
0.1602833,793
0.16195,627
0.1636167,839
0.1652833,947
0.16695,848
0.1686167,625
0.1702833,784
0.17195,764
0.1736167,860
0.1752833,735
0.17695,807
0.1786167,748
0.1802833,863
0.18195,844
0.1836167,836
0.1852833,925
0.18695,954
0.1886167,732
0.1902833,772
0.19195,872
0.1936167,708
0.1952833,829
0.19695,848
0.1986167,868
0.2002833,854
0.20195,839
0.2036167,837
0.2052833,782
0.20695,727
0.2086167,817
0.2102833,908
0.21195,968
0.2136167,855
0.2152833,985
0.21695,899
0.2186167,992
0.2202833,1044
0.22195,1079
0.2236167,927
0.2252833,1140
0.22695,1047
0.2286333,1204
0.2302833,1110
0.23195,927
0.2336167,1132
0.2352833,1220
0.23695,1246
0.2386167,1143
0.2402833,1124
0.24195,1217
0.2436167,1149
0.2453,1121
0.24695,1128
0.2486167,1125
0.2502833,1076
0.25195,1002
0.2536333,928
0.2552833,978
0.25695,1028
0.2586167,934
0.2602833,971
0.26195,1009
0.2636333,1027
0.2652833,1058
0.26695,882
0.2686333,1049
0.2703,884
0.27195,809
0.2736167,1209
0.2752833,1075
0.27695,984
0.2786167,1011
0.2803,845
0.28195,1108
0.2836167,819
0.2852833,1049
0.2869667,1045
0.2886167,1102
0.2902833,859
0.29195,971
0.2936167,1000
0.2953,1026
0.29695,1112
0.2986333,1147
0.3002833,1015
0.3019667,1093
0.3036333,1081
0.3052833,1069
0.30695,1145
0.3086167,1221
0.3102833,1219
0.3119667,876
0.3136167,1306
0.3153,1284
0.31695,1227
0.3186333,1145
0.3203,1120
0.3219667,1234
0.3236167,1219
0.3252833,1153
0.32695,901
0.3286333,1262
0.3302833,1219
0.33195,1230
0.3336333,1159
0.3353,1152
0.3369667,1145
0.3386333,1176
0.3402833,1206
0.34195,1280
0.3436167,1354
0.3453,1314
0.34695,1331
0.3486167,1349
0.3503,1344
0.3519667,1339
0.3536333,1463
0.3553,1125
0.3569667,1323
0.3586333,1487
0.3602833,1331
0.3619667,1461
0.3636167,1445
0.3653,2994
0.36695,3661
0.3686333,3940
0.3703,4393
0.3719667,4552
0.3736333,4361
0.3753,4415
0.37695,3704
0.3786333,3792
0.3803,2755
0.3819667,2503
0.3836333,2157
0.3853,1974
0.3869667,1512
0.3886333,1443
0.3903,905
0.3919667,1060
0.3936333,668
0.3953,534
0.3969667,532
0.3986333,572
0.4003,588
0.4019667,575
0.4036333,605
0.4053,487
0.4069667,672
0.4086333,617
0.4103,653
0.4119667,705
0.4136333,763
0.4153,723
0.4169667,770
0.4186333,666
0.4203,760
0.4219667,731
0.4236333,772
0.4253,894
0.4269667,903
0.4286333,867
0.4303,969
0.4319667,907
0.4336333,845
0.4353,962
0.4369667,984
0.4386333,1006
0.4403,1010
0.4419667,1014
0.4436333,1029
0.4453,1157
0.4469667,1166
0.4486333,1177
0.4503,1103
0.4519667,1293
0.4536333,1273
0.4553,1467
0.4569667,1426
0.4586333,1386
0.4603,1424
0.4619667,1463
0.4636333,1475
0.4653,1449
0.4669667,1423
0.4686333,1474
0.4703,1274
0.4719667,1641
0.4736333,1617
0.4753,1388
0.4769667,1529
0.4786333,1636
0.4803,1224
0.4819667,1451
0.4836333,1477
0.4853,1428
0.4869667,1358
0.4886333,1263
0.4903,1016
0.4919667,1210
0.4936333,1183
0.4953,1145
0.4969667,1179
0.4986333,1167
0.5003,1155
0.5019667,683
0.5036333,1195
0.5053,1082
0.5069667,1022
0.5086333,1031
0.5103,1035
0.5119666,980
0.5136333,1039
0.5153,757
0.5169666,830
0.5186333,897
0.5203,865
0.5219667,910
0.5236334,955
0.5253,946
0.5269667,912
0.5286334,975
0.5303,992
0.5319667,972
0.5336334,1010
0.5353,1004
0.5369667,804
0.5386333,1004
0.5403,1021
0.5419667,854
0.5436333,1019
0.5453,969
0.5469667,1015
0.5486333,995
0.5503,976
0.5519667,833
0.5536333,860
0.5553,887
0.5569667,923
0.5586333,1016
0.5603,1042
0.5619667,807
0.5636333,981
0.5653,1129
0.5669667,1014
0.5686333,1001
0.5703,991
0.5719666,1022
0.5736333,1054
0.5753,1053
0.5769666,1069
0.5786333,1085
0.5803,1024
0.5819666,855
0.5836333,1165
0.5853,732
0.5869667,1106
0.5886334,855
0.5903,931
0.5919667,943
0.5936334,972
0.5953,1002
0.5969667,1011
0.5986333,1126
0.6003,1116
0.6019667,1046
0.6036333,939
0.6053,990
0.6069667,990
0.6086333,778
0.6103,887
0.6119667,1018
0.6136333,880
0.6153,948
0.6169667,821
0.6186333,902
0.6203,983
0.6219667,980
0.6236333,1018
0.6253,997
0.6269667,1035
0.6286333,1072
0.6303,854
0.6319667,1037
0.6336333,1061
0.6353,838
0.6369666,890
0.6386333,876
0.6403,915
0.6419666,910
0.6436333,904
0.6453,968
0.6469667,717
0.6486334,841
0.6503,964
0.6519667,875
0.6536334,940
0.6553,937
0.6569667,922
0.6586334,906
0.6603,918
0.6619667,1018
0.6636333,1029
0.6653,848
0.6669667,1054
0.6686333,883
0.6703,871
0.6719667,909
0.6736333,896
0.6753,823
0.6769667,751
0.6786333,826
0.6803,789
0.6819667,752
0.6836333,873
0.6853,992
0.6869667,1005
0.6886333,1033
0.6903,1039
0.6919667,1046
0.6936333,1081
0.6953,1116
0.6969666,1215
0.6986333,1315
0.7003,1276
0.7019666,1238
0.7036333,1373
0.7053,1530
0.7069666,1441
0.7086333,1230
0.7103,1602
0.7119667,1498
0.7136334,1543
0.7153,1395
0.7169667,1490
0.7186334,1362
0.7203,1364
0.7219667,1365
0.7236333,1306
0.7253,1283
0.7269667,1244
0.7286333,1205
0.7303,1159
0.7319667,1131
0.7336333,1152
0.7353,1135
0.7369667,1006
0.7386333,975
0.7403,968
0.7419667,970
0.7436333,830
0.7453,1045
0.7469667,1031
0.7486333,881
0.7503,1052
0.7519667,864
0.7536333,920
0.7553,787
0.7569667,880
0.7586333,1040
0.7603,1079
0.7619666,786
0.7636333,880
0.7653,746
0.7669666,732
0.7686333,790
0.7703,936
0.7719667,862
0.7736334,788
0.7753,967
0.7769667,956
0.7786334,872
0.7803,871
0.7819667,903
0.7836334,1006
0.7853,991
0.7869667,1031
0.7886333,995
0.7903,959
0.7919667,1299
0.7936333,1325
0.7953,1221
0.7969667,1371
0.7986333,1501
0.8003,1588
0.8019667,1675
0.8036333,1649
0.8053,1623
0.8069667,1707
0.8086333,1790
0.8103,1814
0.8119667,1900
0.8136333,1959
0.8153,2019
0.8169667,2015
0.8186333,2011
0.8203,2122
0.8219666,2106
0.8236333,2090
0.8253,2047
0.8269666,1884
0.8286333,1899
0.8303,2033
0.8319666,1851
0.8336333,1726
0.8353,1895
0.8369667,1671
0.8386334,1541
0.8403,1325
0.8419667,1332
0.8436334,1259
0.8453,1218
0.8469667,1175
0.8486333,1071
0.8503,1280
0.8519667,1110
0.8536333,1093
0.8553,1041
0.8569667,1088
0.8586333,1054
0.8603,1045
0.8619667,721
0.8636333,966
0.8653,870
0.8669667,1025
0.8686333,878
0.8703,1048
0.8719667,1019
0.8736333,931
0.8753,917
0.8769667,945
0.8786333,905
0.8803,864
0.8819667,1039
0.8836333,1146
0.8853,1168
0.8869666,1169
0.8886333,1141
0.8903,1113
0.8919666,1158
0.8936333,1326
0.8953,1428
0.8969667,1374
0.8986334,1290
0.9003,1272
0.9019667,1126
0.9036334,1267
0.9053,1404
0.9069667,1452
0.9086334,1375
0.9103,1280
0.9119667,1212
0.9136333,1088
0.9153,1411
0.9169667,1362
0.9186333,1191
0.9203,1246
0.9219667,1270
0.9236333,1131
0.9253,1145
0.9269667,1393
0.9286333,1470
0.9303,1171
0.9319667,1269
0.9336333,1161
0.9353,1276
0.9369667,1110
0.9386333,1295
0.9403,1130
0.9419667,1100
0.9436333,1289
0.9453,1107
0.9469666,1487
0.9486333,1427
0.9503,1451
0.9519666,1208
0.9536333,1187
0.9553,1104
0.9569666,1156
0.9586333,1044
0.9603,926
0.9619667,1067
0.9636334,869
0.9653,886
0.9669667,902
0.9686334,1169
0.9703,1255
0.9719667,1268
0.9736333,1263
0.9753,1274
0.9769667,1206
0.9786333,1094
0.9803,1248
0.9819667,1230
0.9836333,1212
0.9853,1529
0.9869667,1763
0.9886333,1681
0.9903,1565
0.9919667,1603
0.9936333,1607
0.9953,1568
0.9969667,1528
0.9986333,1744
1.0003,1721
1.001967,1873
1.003633,1879
1.0053,1806
1.006967,1953
1.008633,1698
1.0103,1789
1.011967,1700
1.013633,1484
1.0153,1537
1.016967,1590
1.018633,1657
1.0203,1634
1.021967,1612
1.023633,1702
1.0253,1681
1.026967,1669
1.028633,1778
1.0303,1329
1.031967,1411
1.033633,1175
1.0353,1334
1.036967,1119
1.038633,1131
1.0403,1349
1.041967,1163
1.043633,1150
1.0453,944
1.046967,1200
1.048633,1246
1.0503,948
1.051967,1232
1.053633,948
1.0553,1055
1.056967,1107
1.058633,1228
1.0603,1193
1.061967,977
1.063633,967
1.0653,1111
1.066967,1058
1.068633,1150
1.0703,1013
1.071967,1212
1.073633,1114
1.0753,1240
1.076967,1169
1.078633,1251
1.0803,1333
1.081967,1089
1.083633,1033
1.0853,1263
1.086967,1021
1.088633,1149
1.0903,1276
1.091967,1344
1.093633,1445
1.0953,1338
1.096967,1465
1.098633,1212
1.1003,1210
1.101967,1259
1.103633,1271
1.1053,1283
1.106967,1150
1.108633,1202
1.1103,1254
1.111967,1211
1.113633,1253
1.1153,1137
1.116967,1221
1.118633,1352
1.1203,1274
1.121967,1152
1.123633,1264
1.1253,1248
1.126967,1200
1.128633,1107
1.1303,1158
1.131967,987
1.133633,981
1.1353,1037
1.136967,940
1.138633,937
1.1403,890
1.141967,905
1.143633,904
1.1453,902
1.146967,731
1.148633,815
1.1503,934
1.151967,904
1.153633,1010
1.1553,965
1.156967,920
1.158633,875
1.1603,794
1.161967,754
1.163633,924
1.1653,909
1.166967,939
1.168633,921
1.1703,860
1.171967,832
1.173633,938
1.1753,700
1.176967,952
1.178633,655
1.1803,778
1.181967,801
1.183633,803
1.1853,830
1.186967,912
1.188633,989
1.1903,579
1.191967,930
1.193633,897
1.1953,810
1.196967,820
1.198633,969
