"SampleName","A2Rd2_01-82"
"Target Mass 1",
"Column Name","IA-3 (3um, 4.6X100)"
"Channel","QDa 1: SIR Ch1"
0.00195,248
0.003616667,466
0.005283333,529
0.00695,496
0.008616666,478
0.01028333,543
0.01195,491
0.01361667,439
0.01528333,364
0.01695,498
0.01861667,500
0.02028333,583
0.02195,493
0.02361667,493
0.02528333,514
0.02695,429
0.02861667,385
0.03028333,618
0.03195,576
0.03361667,743
0.03528333,563
0.03695,551
0.03861667,522
0.04028333,483
0.04195,444
0.04361667,467
0.04528333,471
0.04695,474
0.04861667,777
0.05028334,698
0.05195,551
0.05361667,532
0.05528333,548
0.05695,391
0.05861667,551
0.06028333,462
0.06195,559
0.06361666,553
0.06528334,536
0.06695,626
0.06861667,623
0.07028333,543
0.07195,440
0.07361667,567
0.07528333,577
0.07695,432
0.07861666,642
0.08028334,528
0.08195,650
0.08361667,597
0.08528333,548
0.08695,408
0.08861667,574
0.09028333,567
0.09195,576
0.09361666,445
0.09528334,586
0.09695,656
0.09861667,539
0.1002833,531
0.10195,616
0.1036167,517
0.1052833,684
0.10695,666
0.1086167,615
0.1102833,408
0.11195,493
0.1136167,467
0.1152833,467
0.11695,467
0.1186167,522
0.1202833,359
0.12195,500
0.1236167,571
0.1252833,406
0.12695,467
0.1286167,559
0.1302833,551
0.13195,543
0.1336167,432
0.1352833,566
0.13695,416
0.1386167,641
0.1402833,522
0.14195,446
0.1436167,484
0.1452833,364
0.14695,557
0.1486167,595
0.1502833,368
0.15195,530
0.1536167,400
0.1552833,593
0.15695,531
0.1586167,559
0.1602833,535
0.16195,360
0.1636167,533
0.1652833,493
0.16695,526
0.1686167,505
0.1702833,492
0.17195,437
0.1736167,531
0.1752833,520
0.17695,509
0.1786167,547
0.1802833,544
0.18195,484
0.1836167,424
0.1852833,424
0.18695,486
0.1886167,363
0.1902833,415
0.19195,479
0.1936167,475
0.1952833,530
0.19695,542
0.1986167,484
0.2002833,504
0.20195,525
0.2036167,500
0.2052833,476
0.20695,461
0.2086167,457
0.2102833,441
0.21195,441
0.2136167,442
0.2152833,489
0.21695,536
0.2186167,537
0.2202833,478
0.22195,518
0.2236167,498
0.2252833,479
0.22695,405
0.2286167,569
0.2302833,581
0.23195,490
0.2336167,540
0.2352833,603
0.23695,624
0.2386167,476
0.2402833,462
0.24195,395
0.2436167,481
0.2453,538
0.24695,488
0.2486167,497
0.2502833,507
0.25195,495
0.2536167,483
0.2552833,455
0.25695,392
0.2586167,528
0.2602833,474
0.26195,421
0.2636333,360
0.2652833,448
0.26695,480
0.2686167,511
0.2702833,521
0.27195,575
0.2736167,535
0.2752833,496
0.2769667,524
0.2786167,551
0.2803,526
0.28195,617
0.2836167,431
0.2852833,467
0.28695,495
0.2886167,462
0.2902833,455
0.29195,449
0.2936167,509
0.2952833,495
0.29695,482
0.2986333,498
0.3002833,515
0.30195,529
0.3036167,536
0.3052833,615
0.30695,629
0.3086167,546
0.3102833,556
0.31195,660
0.3136167,500
0.3153,538
0.3169667,559
0.3186167,541
0.3202833,542
0.32195,544
0.3236167,567
0.3253,530
0.3269667,494
0.3286167,580
0.3302833,504
0.33195,428
0.3336333,474
0.3352833,519
0.33695,517
0.3386167,512
0.3402833,541
0.3419667,535
0.3436333,578
0.3452833,540
0.3469667,503
0.3486167,572
0.3503,568
0.35195,589
0.3536333,413
0.3553,504
0.3569667,502
0.3586333,507
0.3603,513
0.36195,720
0.3636333,869
0.3652833,976
0.3669667,1388
0.3686333,2675
0.3703,4468
0.3719667,4910
0.3736333,5799
0.3753,5472
0.3769667,6190
0.3786333,6558
0.3803,6119
0.3819667,5428
0.3836333,4624
0.3853,3941
0.3869667,3384
0.3886333,3316
0.3903,3005
0.3919667,2196
0.3936333,1961
0.3953,1347
0.3969667,1335
0.3986333,1148
0.4003,1192
0.4019667,1214
0.4036333,1187
0.4053,1135
0.4069667,1094
0.4086333,1080
0.4103,1071
0.4119667,1337
0.4136333,1439
0.4153,1264
0.4169667,1392
0.4186333,1586
0.4203,1572
0.4219667,1491
0.4236333,1410
0.4253,1660
0.4269667,1656
0.4286333,1724
0.4303,1659
0.4319667,1871
0.4336333,2250
0.4353,2642
0.4369667,3897
0.4386333,5390
0.4403,7150
0.4419667,12252
0.4436333,17624
0.4453,25184
0.4469667,35568
0.4486333,45024
0.4503,58656
0.4519667,72288
0.4536333,88736
0.4553,100352
0.4569667,114592
0.4586333,131456
0.4603,139776
0.4619667,154624
0.4636333,168064
0.4653,176256
0.4669667,195328
0.4686333,215488
0.4703,229952
0.4719667,249984
0.4736333,262144
0.4753,269760
0.4769667,264960
0.4786333,259904
0.4803,245760
0.4819667,222016
0.4836333,194688
0.4853,169920
0.4869667,142912
0.4886333,119728
0.4903,99120
0.4919667,79872
0.4936333,61872
0.4953,47936
0.4969667,37648
0.4986333,28532
0.5003,22536
0.5019667,17376
0.5036333,14540
0.5053,11332
0.5069667,10068
0.5086333,9220
0.5103,7146
0.5119666,6765
0.5136333,5997
0.5153,5008
0.5169666,4712
0.5186333,4525
0.5203,4395
0.5219667,4092
0.5236334,3983
0.5253,3751
0.5269667,3762
0.5286334,3197
0.5303,3107
0.5319667,3032
0.5336334,2789
0.5353,2927
0.5369667,2662
0.5386333,2781
0.5403,2540
0.5419667,2824
0.5436333,2293
0.5453,2394
0.5469667,2193
0.5486333,2323
0.5503,2115
0.5519667,2328
0.5536333,1929
0.5553,1989
0.5569667,1860
0.5586333,1860
0.5603,1609
0.5619667,1880
0.5636333,1840
0.5653,1462
0.5669667,1757
0.5686333,1283
0.5703,1386
0.5719666,1489
0.5736333,1408
0.5753,1248
0.5769666,1239
0.5786333,1329
0.5803,1324
0.5819666,1319
0.5836333,1229
0.5853,1426
0.5869667,1371
0.5886334,1059
0.5903,1161
0.5919667,1462
0.5936334,1294
0.5953,1155
0.5969667,1196
0.5986333,1088
0.6003,1153
0.6019667,1174
0.6036333,1195
0.6053,1200
0.6069667,1205
0.6086333,1201
0.6103,1197
0.6119667,1149
0.6136333,1293
0.6153,1332
0.6169667,1156
0.6186333,1164
0.6203,1153
0.6219667,1125
0.6236333,1149
0.6253,1173
0.6269667,985
0.6286333,1013
0.6303,955
0.6319667,952
0.6336333,936
0.6353,919
0.6369666,916
0.6386333,913
0.6403,729
0.6419666,951
0.6436333,810
0.6453,999
0.6469667,964
0.6486334,815
0.6503,647
0.6519667,848
0.6536334,874
0.6553,825
0.6569667,776
0.6586334,967
0.6603,651
0.6619667,790
0.6636333,695
0.6653,744
0.6669667,773
0.6686333,802
0.6703,782
0.6719667,643
0.6736333,707
0.6753,747
0.6769667,746
0.6786333,745
0.6803,724
0.6819667,773
0.6836333,763
0.6853,753
0.6869667,656
0.6886333,685
0.6903,657
0.6919667,774
0.6936333,762
0.6953,604
0.6969666,600
0.6986333,822
0.7003,853
0.7019666,572
0.7036333,724
0.7053,602
0.7069666,654
0.7086333,748
0.7103,583
0.7119667,629
0.7136334,698
0.7153,546
0.7169667,685
0.7186334,588
0.7203,581
0.7219667,573
0.7236333,546
0.7253,623
0.7269667,665
0.7286333,646
0.7303,616
0.7319667,610
0.7336333,604
0.7353,662
0.7369667,638
0.7386333,615
0.7403,703
0.7419667,685
0.7436333,667
0.7453,724
0.7469667,570
0.7486333,667
0.7503,691
0.7519667,626
0.7536333,662
0.7553,496
0.7569667,719
0.7586333,585
0.7603,528
0.7619666,672
0.7636333,716
0.7653,623
0.7669666,587
0.7686333,683
0.7703,710
0.7719667,762
0.7736334,615
0.7753,496
0.7769667,600
0.7786334,773
0.7803,760
0.7819667,707
0.7836334,634
0.7853,632
0.7869667,672
0.7886333,713
0.7903,579
0.7919667,631
0.7936333,570
0.7953,498
0.7969667,582
0.7986333,579
0.8003,614
0.8019667,577
0.8036333,526
0.8053,602
0.8069667,628
0.8086333,508
0.8103,552
0.8119667,637
0.8136333,699
0.8153,695
0.8169667,606
0.8186333,602
0.8203,642
0.8219666,488
0.8236333,672
0.8253,641
0.8269666,598
0.8286333,679
0.8303,644
0.8319666,507
0.8336333,521
0.8353,535
0.8369667,508
0.8386334,482
0.8403,546
0.8419667,474
0.8436334,585
0.8453,596
0.8469667,727
0.8486333,686
0.8503,497
0.8519667,557
0.8536333,565
0.8553,448
0.8569667,693
0.8586333,609
0.8603,573
0.8619667,520
0.8636333,582
0.8653,486
0.8669667,499
0.8686333,512
0.8703,539
0.8719667,567
0.8736333,454
0.8753,568
0.8769667,558
0.8786333,728
0.8803,703
0.8819667,927
0.8836333,1192
0.8853,1254
0.8869666,1400
0.8886333,1335
0.8903,2094
0.8919666,2030
0.8936333,2215
0.8953,2040
0.8969667,2038
0.8986334,2178
0.9003,2182
0.9019667,2186
0.9036334,2022
0.9053,2026
0.9069667,2030
0.9086334,2262
0.9103,2343
0.9119667,2281
0.9136333,2132
0.9153,2156
0.9169667,2138
0.9186333,2287
0.9203,2412
0.9219667,2347
0.9236333,2282
0.9253,1995
0.9269667,2331
0.9286333,1905
0.9303,2256
0.9319667,2128
0.9336333,1846
0.9353,1782
0.9369667,2114
0.9386333,2036
0.9403,1930
0.9419667,1846
0.9436333,1779
0.9453,1890
0.9469666,1700
0.9486333,1582
0.9503,1860
0.9519666,1829
0.9536333,1546
0.9553,1459
0.9569666,1262
0.9586333,1313
0.9603,1432
0.9619667,1288
0.9636334,1229
0.9653,1187
0.9669667,774
0.9686334,946
0.9703,906
0.9719667,1023
0.9736333,827
0.9753,940
0.9769667,856
0.9786333,761
0.9803,842
0.9819667,749
0.9836333,588
0.9853,658
0.9869667,561
0.9886333,572
0.9903,544
0.9919667,611
0.9936333,490
0.9953,553
0.9969667,604
0.9986333,482
1.0003,551
1.001967,517
1.003633,474
1.0053,484
1.006967,495
1.008633,593
1.0103,334
1.011967,662
1.013633,434
1.0153,421
1.016967,514
1.018633,412
1.0203,578
1.021967,647
1.023633,603
1.0253,567
1.026967,473
1.028633,428
1.0303,539
1.031967,453
1.033633,489
1.0353,423
1.036967,529
1.038633,493
1.0403,297
1.041967,429
1.043633,504
1.0453,468
1.046967,469
1.048633,512
1.0503,494
1.051967,395
1.053633,369
1.0553,456
1.056967,533
1.058633,545
1.0603,448
1.061967,455
1.063633,461
1.0653,481
1.066967,500
1.068633,482
1.0703,464
1.071967,511
1.073633,493
1.0753,475
1.076967,535
1.078633,431
1.0803,427
1.081967,547
1.083633,588
1.0853,556
1.086967,477
1.088633,558
1.0903,504
1.091967,552
1.093633,594
1.0953,632
1.096967,606
1.098633,411
1.1003,559
1.101967,672
1.103633,538
1.1053,591
1.106967,515
1.108633,691
1.1103,645
1.111967,657
1.113633,576
1.1153,500
1.116967,619
1.118633,515
1.1203,492
1.121967,466
1.123633,521
1.1253,508
1.126967,445
1.128633,509
1.1303,543
1.131967,519
1.133633,496
1.1353,485
1.136967,474
1.138633,431
1.1403,631
1.141967,610
1.143633,595
1.1453,415
1.146967,631
1.148633,537
1.1503,512
1.151967,503
1.153633,509
1.1553,515
1.156967,523
1.158633,531
1.1603,542
1.161967,535
1.163633,528
1.1653,554
1.166967,462
1.168633,610
1.1703,576
1.171967,397
1.173633,425
1.1753,478
1.176967,504
1.178633,460
1.1803,472
1.181967,497
1.183633,490
1.1853,484
1.186967,512
1.188633,501
1.1903,491
1.191967,429
1.193633,444
1.1953,459
1.196967,464
1.198633,532
