"SampleName","A2Rd2_01-11"
"Target Mass 1",
"Column Name","IA-3 (3um, 4.6X100)"
"Channel","QDa 1: SIR Ch2"
0.00195,486
0.003616667,512
0.005283333,689
0.00695,695
0.008616666,818
0.01028333,878
0.01195,959
0.01361667,988
0.01528333,943
0.01695,899
0.01861667,782
0.02028333,860
0.02195,889
0.02361667,842
0.02528333,790
0.02695,822
0.02861667,723
0.03028333,825
0.03195,811
0.03361667,987
0.03528333,970
0.03695,798
0.03861667,1008
0.04028333,1086
0.04195,867
0.04361667,799
0.04528333,1032
0.04695,1012
0.04861667,795
0.05028334,829
0.05195,792
0.05361667,810
0.05528333,828
0.05695,863
0.05861667,829
0.06028333,795
0.06195,838
0.06361666,833
0.06528334,860
0.06695,674
0.06861667,786
0.07028333,824
0.07195,773
0.07361667,902
0.07528333,885
0.07695,868
0.07861666,932
0.08028334,875
0.08195,818
0.08361667,881
0.08528333,806
0.08695,862
0.08861667,870
0.09028333,878
0.09195,854
0.09361666,827
0.09528334,800
0.09695,861
0.09861667,854
0.1002833,885
0.10195,787
0.1036167,742
0.1052833,747
0.10695,750
0.1086167,754
0.1102833,748
0.11195,745
0.1136167,825
0.1152833,831
0.11695,838
0.1186167,786
0.1202833,795
0.12195,803
0.1236167,825
0.1252833,802
0.12695,779
0.1286167,958
0.1302833,963
0.13195,656
0.1336167,814
0.1352833,997
0.13695,775
0.1386167,972
0.1402833,746
0.14195,840
0.1436167,1049
0.1452833,915
0.14695,942
0.1486167,519
0.1502833,902
0.15195,880
0.1536167,1025
0.1552833,947
0.15695,747
0.1586167,774
0.1602833,811
0.16195,797
0.1636167,784
0.1652833,797
0.16695,774
0.1686167,794
0.1702833,897
0.17195,911
0.1736167,952
0.1752833,931
0.17695,819
0.1786167,855
0.1802833,843
0.18195,860
0.1836167,834
0.1852833,794
0.18695,755
0.1886167,735
0.1902833,725
0.19195,774
0.1936167,824
0.1952833,857
0.19695,685
0.1986167,817
0.2002833,761
0.20195,859
0.2036167,858
0.2052833,852
0.20695,847
0.2086167,574
0.2102833,739
0.21195,903
0.2136167,820
0.2152833,782
0.21695,894
0.2186167,1053
0.2202833,1035
0.22195,1223
0.2236167,1126
0.2252833,1108
0.22695,937
0.2286167,1179
0.2302833,1138
0.23195,1152
0.2336167,982
0.2352833,1109
0.23695,992
0.2386167,1140
0.2402833,1156
0.24195,1173
0.2436167,1039
0.2453,1091
0.24695,946
0.2486167,1054
0.2502833,1166
0.25195,1070
0.2536167,1004
0.2552833,1138
0.25695,1067
0.2586167,1114
0.2602833,1068
0.26195,970
0.2636333,995
0.2652833,987
0.26695,1039
0.2686167,1051
0.2702833,1054
0.27195,1018
0.2736167,982
0.2752833,855
0.27695,1116
0.2786167,1004
0.2803,907
0.28195,901
0.2836167,908
0.2852833,916
0.28695,1032
0.2886167,1048
0.2902833,1064
0.29195,1153
0.2936167,927
0.2953,996
0.29695,883
0.2986333,1022
0.3002833,1078
0.30195,1102
0.3036167,1071
0.3052833,1037
0.30695,1083
0.3086167,809
0.3102833,986
0.31195,987
0.3136167,950
0.3153,913
0.3169667,926
0.3186167,938
0.3202833,903
0.32195,1354
0.3236167,1326
0.3253,1160
0.32695,1458
0.3286167,1088
0.3302833,1430
0.33195,1498
0.3336333,1275
0.3352833,1471
0.33695,1586
0.3386333,1321
0.3402833,1514
0.3419667,1447
0.3436167,1186
0.3453,1577
0.34695,1463
0.3486167,1459
0.3503,1206
0.35195,1257
0.3536333,1339
0.3552833,1398
0.3569667,1575
0.3586333,1573
0.3602833,1592
0.36195,1719
0.3636167,3652
0.3652833,4458
0.3669667,5164
0.3686333,5987
0.3703,5550
0.3719667,4095
0.3736333,3218
0.3753,2780
0.37695,2003
0.3786167,1723
0.3802833,1486
0.38195,1300
0.3836333,1026
0.3853,822
0.3869667,775
0.3886333,492
0.3903,881
0.3919667,667
0.3936167,901
0.3953,772
0.3969667,694
0.3986333,724
0.4003,752
0.4019667,744
0.4036333,736
0.4053,729
0.4069667,608
0.4086333,624
0.4103,630
0.4119667,662
0.4136333,536
0.4153,658
0.4169667,678
0.4186333,688
0.4203,739
0.4219667,600
0.4236333,737
0.4253,692
0.4269667,888
0.4286333,799
0.4303,852
0.4319667,905
0.4336333,886
0.4353,887
0.4369667,887
0.4386333,864
0.4403,930
0.4419667,906
0.4436333,883
0.4453,1024
0.4469667,1029
0.4486333,1035
0.4503,973
0.4519667,1033
0.4536333,1093
0.4553,1073
0.4569667,1120
0.4586333,1338
0.4603,1296
0.4619667,1288
0.4636333,1275
0.4653,1261
0.4669667,1269
0.4686333,1277
0.4703,1332
0.4719667,1421
0.4736333,1403
0.4753,1385
0.4769667,1401
0.4786333,1417
0.4803,1187
0.4819667,1090
0.4836333,1261
0.4853,1294
0.4869667,963
0.4886333,961
0.4903,958
0.4919667,1027
0.4936333,1053
0.4953,914
0.4969667,1018
0.4986333,945
0.5003,947
0.5019667,945
0.5036333,783
0.5053,991
0.5069667,791
0.5086333,785
0.5103,956
0.5119666,853
0.5136333,750
0.5153,903
0.5169666,943
0.5186333,806
0.5203,719
0.5219667,837
0.5236334,846
0.5253,870
0.5269667,920
0.5286334,1005
0.5303,709
0.5319667,1017
0.5336334,855
0.5353,1084
0.5369667,645
0.5386333,957
0.5403,998
0.5419667,891
0.5436333,1040
0.5453,995
0.5469667,950
0.5486333,998
0.5503,976
0.5519667,939
0.5536333,901
0.5553,830
0.5569667,626
0.5586333,866
0.5603,903
0.5619667,1119
0.5636333,928
0.5653,771
0.5669667,771
0.5686333,609
0.5703,742
0.5719666,874
0.5736333,803
0.5753,1061
0.5769666,1005
0.5786333,995
0.5803,915
0.5819666,854
0.5836333,996
0.5853,1046
0.5869667,1062
0.5886334,750
0.5903,824
0.5919667,865
0.5936334,866
0.5953,897
0.5969667,928
0.5986333,954
0.6003,908
0.6019667,862
0.6036333,1059
0.6053,1013
0.6069667,820
0.6086333,792
0.6103,856
0.6119667,939
0.6136333,904
0.6153,869
0.6169667,837
0.6186333,922
0.6203,983
0.6219667,946
0.6236333,970
0.6253,994
0.6269667,1117
0.6286333,765
0.6303,1136
0.6319667,759
0.6336333,1009
0.6353,1099
0.6369666,1096
0.6386333,1136
0.6403,1114
0.6419666,1120
0.6436333,1117
0.6453,890
0.6469667,967
0.6486334,967
0.6503,1023
0.6519667,1034
0.6536334,1032
0.6553,1029
0.6569667,1000
0.6586334,709
0.6603,934
0.6619667,844
0.6636333,982
0.6653,997
0.6669667,835
0.6686333,740
0.6703,795
0.6719667,693
0.6736333,945
0.6753,950
0.6769667,1183
0.6786333,1345
0.6803,1378
0.6819667,1701
0.6836333,2013
0.6853,2400
0.6869667,2783
0.6886333,3727
0.6903,4604
0.6919667,5618
0.6936333,6988
0.6953,8608
0.6969666,10872
0.6986333,12700
0.7003,15452
0.7019666,17636
0.7036333,21464
0.7053,24072
0.7069666,24948
0.7086333,26780
0.7103,26184
0.7119667,27104
0.7136334,25880
0.7153,24460
0.7169667,23172
0.7186334,18924
0.7203,18436
0.7219667,14976
0.7236333,13820
0.7253,10752
0.7269667,9172
0.7286333,7658
0.7303,6457
0.7319667,5373
0.7336333,5000
0.7353,4407
0.7369667,3826
0.7386333,3533
0.7403,2832
0.7419667,2803
0.7436333,2672
0.7453,2475
0.7469667,2016
0.7486333,2151
0.7503,1882
0.7519667,1789
0.7536333,1801
0.7553,1631
0.7569667,1678
0.7586333,1444
0.7603,1273
0.7619666,1420
0.7636333,1261
0.7653,1403
0.7669666,1291
0.7686333,1328
0.7703,1383
0.7719667,1322
0.7736334,1260
0.7753,1411
0.7769667,1444
0.7786334,1437
0.7803,1725
0.7819667,1683
0.7836334,1473
0.7853,2295
0.7869667,2765
0.7886333,3043
0.7903,4253
0.7919667,4808
0.7936333,6345
0.7953,7060
0.7969667,9068
0.7986333,10720
0.8003,12728
0.8019667,16360
0.8036333,20452
0.8053,23320
0.8069667,29880
0.8086333,31112
0.8103,36544
0.8119667,40208
0.8136333,42176
0.8153,46480
0.8169667,46464
0.8186333,46672
0.8203,42160
0.8219666,41296
0.8236333,38944
0.8253,34880
0.8269666,29368
0.8286333,27844
0.8303,23628
0.8319666,20304
0.8336333,17024
0.8353,13448
0.8369667,11784
0.8386334,10092
0.8403,8736
0.8419667,7968
0.8436334,6649
0.8453,6228
0.8469667,5398
0.8486333,4794
0.8503,4354
0.8519667,4272
0.8536333,3876
0.8553,3270
0.8569667,2970
0.8586333,2986
0.8603,2544
0.8619667,2780
0.8636333,2513
0.8653,2299
0.8669667,2155
0.8686333,2133
0.8703,2001
0.8719667,1680
0.8736333,1984
0.8753,1635
0.8769667,2091
0.8786333,2270
0.8803,2198
0.8819667,2163
0.8836333,2428
0.8853,2418
0.8869666,2323
0.8886333,2046
0.8903,2098
0.8919666,2219
0.8936333,1970
0.8953,1954
0.8969667,1981
0.8986334,1814
0.9003,1739
0.9019667,1664
0.9036334,1488
0.9053,1813
0.9069667,1748
0.9086334,1684
0.9103,1699
0.9119667,1650
0.9136333,1634
0.9153,1618
0.9169667,1534
0.9186333,1844
0.9203,1800
0.9219667,1786
0.9236333,1726
0.9253,1490
0.9269667,1729
0.9286333,1583
0.9303,1784
0.9319667,1655
0.9336333,1962
0.9353,1933
0.9369667,1391
0.9386333,1682
0.9403,1719
0.9419667,1499
0.9436333,1385
0.9453,1602
0.9469666,1366
0.9486333,1627
0.9503,1512
0.9519666,1694
0.9536333,1601
0.9553,1676
0.9569666,1943
0.9586333,2078
0.9603,1868
0.9619667,2401
0.9636334,2463
0.9653,2642
0.9669667,2799
0.9686334,3767
0.9703,3771
0.9719667,4718
0.9736333,5942
0.9753,6530
0.9769667,7687
0.9786333,10568
0.9803,12232
0.9819667,14424
0.9836333,15624
0.9853,18796
0.9869667,24256
0.9886333,28680
0.9903,32800
0.9919667,39376
0.9936333,45232
0.9953,50672
0.9969667,56896
0.9986333,64800
1.0003,68480
1.001967,73424
1.003633,77824
1.0053,79472
1.006967,79072
1.008633,78096
1.0103,80176
1.011967,74704
1.013633,70608
1.0153,68640
1.016967,62944
1.018633,55712
1.0203,50048
1.021967,45760
1.023633,39904
1.0253,36144
1.026967,31696
1.028633,28504
1.0303,23292
1.031967,20840
1.033633,18468
1.0353,16312
1.036967,14384
1.038633,12972
1.0403,12144
1.041967,11148
1.043633,10340
1.0453,9492
1.046967,9780
1.048633,8208
1.0503,7909
1.051967,8292
1.053633,7751
1.0553,7452
1.056967,7481
1.058633,6472
1.0603,6728
1.061967,7062
1.063633,6367
1.0653,6518
1.066967,7184
1.068633,6758
1.0703,7898
1.071967,8320
1.073633,9380
1.0753,10592
1.076967,11276
1.078633,11940
1.0803,11908
1.081967,13908
1.083633,14432
1.0853,14636
1.086967,16944
1.088633,18460
1.0903,18456
1.091967,18820
1.093633,19364
1.0953,18896
1.096967,18428
1.098633,18340
1.1003,17616
1.101967,17312
1.103633,17444
1.1053,16172
1.106967,16064
1.108633,14168
1.1103,14120
1.111967,12532
1.113633,11584
1.1153,10024
1.116967,9664
1.118633,8408
1.1203,7646
1.121967,6857
1.123633,6950
1.1253,5848
1.126967,6407
1.128633,5172
1.1303,4782
1.131967,4622
1.133633,4439
1.1353,4040
1.136967,4090
1.138633,3818
1.1403,3585
1.141967,3363
1.143633,2968
1.1453,2759
1.146967,2868
1.148633,2963
1.1503,2758
1.151967,2380
1.153633,2332
1.1553,2753
1.156967,2207
1.158633,2298
1.1603,2399
1.161967,1942
1.163633,2246
1.1653,2061
1.166967,1742
1.168633,1929
1.1703,1752
1.171967,2015
1.173633,1581
1.1753,1731
1.176967,1627
1.178633,1687
1.1803,1687
1.181967,1536
1.183633,1381
1.1853,1548
1.186967,1367
1.188633,1488
1.1903,1483
1.191967,1479
1.193633,1486
1.1953,1493
1.196967,1564
1.198633,1620
