"SampleName","A2Rd2_01-29"
"Target Mass 1",
"Column Name","IA-3 (3um, 4.6X100)"
"Channel","QDa 1: SIR Ch2"
0.00195,446
0.003616667,642
0.005283333,753
0.00695,893
0.008616666,677
0.01028333,879
0.01195,938
0.01361667,1053
0.01528333,1005
0.01695,792
0.01861667,1018
0.02028333,825
0.02195,977
0.02361667,980
0.02528333,981
0.02695,876
0.02861667,955
0.03028333,970
0.03195,698
0.03361667,879
0.03528333,690
0.03695,837
0.03861667,817
0.04028333,798
0.04195,958
0.04361667,854
0.04528333,750
0.04695,786
0.04861667,823
0.05028334,948
0.05195,1024
0.05361667,968
0.05528333,912
0.05695,974
0.05861667,967
0.06028333,949
0.06195,1049
0.06361666,832
0.06528334,837
0.06695,910
0.06861667,822
0.07028333,838
0.07195,855
0.07361667,1048
0.07528333,1054
0.07695,739
0.07861666,843
0.08028334,958
0.08195,972
0.08361667,911
0.08528333,992
0.08695,793
0.08861667,1068
0.09028333,964
0.09195,752
0.09361666,939
0.09528334,821
0.09695,890
0.09861667,825
0.1002833,852
0.10195,894
0.1036167,904
0.1052833,859
0.10695,814
0.1086167,975
0.1102833,1048
0.11195,1045
0.1136167,1027
0.1152833,754
0.11695,697
0.1186167,775
0.1202833,861
0.12195,948
0.1236167,1000
0.1252833,825
0.12695,850
0.1286167,674
0.1302833,849
0.13195,831
0.1336167,888
0.1352833,816
0.13695,743
0.1386167,863
0.1402833,822
0.14195,769
0.1436167,1079
0.1452833,1062
0.14695,875
0.1486167,923
0.1502833,821
0.15195,714
0.1536167,863
0.1552833,799
0.15695,834
0.1586167,868
0.1602833,835
0.16195,802
0.1636167,870
0.1652833,826
0.16695,919
0.1686167,1011
0.1702833,951
0.17195,941
0.1736167,859
0.1752833,969
0.17695,738
0.1786167,789
0.1802833,840
0.18195,1067
0.1836167,995
0.1852833,717
0.18695,948
0.1886167,859
0.1902833,770
0.19195,853
0.1936167,913
0.1952833,793
0.19695,877
0.1986167,752
0.2003,835
0.20195,884
0.2036167,1005
0.2052833,948
0.20695,938
0.2086167,901
0.2102833,812
0.21195,852
0.2136167,849
0.2152833,845
0.21695,988
0.2186167,1010
0.2202833,1009
0.22195,918
0.2236167,983
0.2252833,1047
0.22695,996
0.2286167,945
0.2302833,1056
0.23195,1163
0.2336167,1179
0.2352833,1169
0.23695,1226
0.2386167,1094
0.2402833,1219
0.24195,1015
0.2436167,1207
0.2452833,1149
0.24695,1031
0.2486167,1094
0.2502833,1106
0.25195,1117
0.2536167,1226
0.2552833,922
0.25695,1255
0.2586167,1058
0.2602833,972
0.26195,1123
0.2636333,1140
0.2652833,1158
0.26695,1196
0.2686167,1235
0.2702833,1211
0.27195,1206
0.2736167,1111
0.2752833,993
0.27695,863
0.2786167,1064
0.2803,751
0.28195,1022
0.2836167,1235
0.2852833,1269
0.28695,859
0.2886167,1145
0.2902833,1186
0.29195,1158
0.2936167,1131
0.2952833,1284
0.29695,882
0.2986333,1295
0.3003,1201
0.30195,1131
0.3036167,1317
0.3052833,1205
0.30695,1155
0.3086167,1233
0.3102833,1186
0.31195,1169
0.3136333,1113
0.3153,1238
0.3169667,1323
0.3186167,1349
0.3202833,1034
0.3219667,1173
0.3236167,1355
0.3252833,1255
0.32695,1158
0.3286333,1321
0.3303,1312
0.3319667,1302
0.3336333,1287
0.3352833,1271
0.33695,1196
0.3386333,1396
0.3402833,1401
0.34195,1489
0.3436167,1365
0.3452833,1334
0.3469667,1312
0.3486333,1170
0.3503,1267
0.3519667,1363
0.3536167,1340
0.3553,1187
0.35695,1452
0.3586167,1260
0.3602833,1858
0.3619667,1748
0.3636333,2788
0.3653,4208
0.36695,5065
0.3686333,6028
0.3702833,5325
0.3719667,4482
0.3736167,3267
0.3753,2863
0.37695,2338
0.3786333,1973
0.3803,1571
0.3819667,1127
0.3836167,822
0.3853,699
0.38695,797
0.3886333,539
0.3902833,448
0.3919667,642
0.3936167,546
0.3953,531
0.3969667,387
0.3986333,615
0.4003,660
0.4019667,747
0.4036333,979
0.4053,1317
0.4069667,1310
0.4086333,1153
0.4103,1019
0.4119667,1151
0.4136333,997
0.4153,1079
0.4169667,1087
0.4186333,938
0.4203,946
0.4219667,886
0.4236333,915
0.4253,1001
0.4269667,1007
0.4286333,987
0.4303,967
0.4319667,974
0.4336333,1077
0.4353,1181
0.4369667,1150
0.4386333,1184
0.4403,1129
0.4419667,1150
0.4436333,1420
0.4453,1446
0.4469667,1791
0.4486333,1659
0.4503,1555
0.4519667,1531
0.4536333,1797
0.4553,1776
0.4569667,1677
0.4586333,1736
0.4603,1758
0.4619667,1780
0.4636333,1762
0.4653,1744
0.4669667,1767
0.4686333,1790
0.4703,1914
0.4719667,1921
0.4736333,1695
0.4753,1818
0.4769667,1416
0.4786333,1428
0.4803,1755
0.4819667,1672
0.4836333,1426
0.4853,1287
0.4869667,1667
0.4886333,1506
0.4903,1287
0.4919667,1415
0.4936333,1166
0.4953,1059
0.4969667,1181
0.4986333,1197
0.5003,1141
0.5019667,1266
0.5036333,1300
0.5053,1161
0.5069667,1284
0.5086333,1221
0.5103,1134
0.5119666,1132
0.5136333,1049
0.5153,1070
0.5169666,1006
0.5186333,985
0.5203,1063
0.5219667,996
0.5236334,929
0.5253,919
0.5269667,910
0.5286334,1082
0.5303,1240
0.5319667,1348
0.5336334,1093
0.5353,1079
0.5369667,1141
0.5386333,1057
0.5403,1121
0.5419667,1119
0.5436333,1273
0.5453,1240
0.5469667,1180
0.5486333,1295
0.5503,1177
0.5519667,1102
0.5536333,1149
0.5553,1281
0.5569667,938
0.5586333,1287
0.5603,1294
0.5619667,1178
0.5636333,979
0.5653,1095
0.5669667,1083
0.5686333,1072
0.5703,1037
0.5719666,975
0.5736333,912
0.5753,1011
0.5769666,1126
0.5786333,1154
0.5803,1182
0.5819666,1181
0.5836333,938
0.5853,1161
0.5869667,1045
0.5886334,1042
0.5903,1058
0.5919667,1290
0.5936334,1280
0.5953,1301
0.5969667,1078
0.5986333,1102
0.6003,1017
0.6019667,1085
0.6036333,1085
0.6053,1085
0.6069667,1095
0.6086333,1105
0.6103,1203
0.6119667,1248
0.6136333,1164
0.6153,1091
0.6169667,1047
0.6186333,1184
0.6203,1276
0.6219667,1201
0.6236333,1258
0.6253,1137
0.6269667,1275
0.6286333,1155
0.6303,1319
0.6319667,1157
0.6336333,1136
0.6353,1100
0.6369666,1063
0.6386333,1263
0.6403,1329
0.6419666,1232
0.6436333,1210
0.6453,1188
0.6469667,1170
0.6486334,1152
0.6503,1262
0.6519667,1200
0.6536334,1137
0.6553,1243
0.6569667,1029
0.6586334,1011
0.6603,1313
0.6619667,1153
0.6636333,972
0.6653,1096
0.6669667,1173
0.6686333,1245
0.6703,974
0.6719667,1065
0.6736333,1097
0.6753,860
0.6769667,944
0.6786333,871
0.6803,1011
0.6819667,720
0.6836333,1190
0.6853,1082
0.6869667,954
0.6886333,1025
0.6903,1041
0.6919667,999
0.6936333,956
0.6953,961
0.6969666,966
0.6986333,983
0.7003,925
0.7019666,866
0.7036333,909
0.7053,952
0.7069666,1095
0.7086333,1238
0.7103,1250
0.7119667,1036
0.7136334,1380
0.7153,1372
0.7169667,1253
0.7186334,1258
0.7203,966
0.7219667,1196
0.7236333,1342
0.7253,1079
0.7269667,984
0.7286333,1413
0.7303,1080
0.7319667,891
0.7336333,1050
0.7353,1069
0.7369667,1088
0.7386333,951
0.7403,902
0.7419667,924
0.7436333,1092
0.7453,1122
0.7469667,876
0.7486333,993
0.7503,899
0.7519667,888
0.7536333,878
0.7553,914
0.7569667,951
0.7586333,1001
0.7603,965
0.7619666,928
0.7636333,1057
0.7653,1043
0.7669666,1062
0.7686333,848
0.7703,1023
0.7719667,898
0.7736334,890
0.7753,943
0.7769667,908
0.7786334,978
0.7803,927
0.7819667,876
0.7836334,972
0.7853,931
0.7869667,1095
0.7886333,1039
0.7903,1036
0.7919667,896
0.7936333,912
0.7953,1154
0.7969667,1358
0.7986333,1230
0.8003,1088
0.8019667,1376
0.8036333,1081
0.8053,1108
0.8069667,1494
0.8086333,1439
0.8103,1744
0.8119667,1660
0.8136333,1736
0.8153,1791
0.8169667,1726
0.8186333,1661
0.8203,1481
0.8219666,1496
0.8236333,1510
0.8253,1501
0.8269666,1492
0.8286333,1587
0.8303,1507
0.8319666,1427
0.8336333,1298
0.8353,1311
0.8369667,1117
0.8386334,1160
0.8403,1086
0.8419667,1054
0.8436334,902
0.8453,915
0.8469667,929
0.8486333,1051
0.8503,741
0.8519667,976
0.8536333,1196
0.8553,1077
0.8569667,1048
0.8586333,1197
0.8603,932
0.8619667,1119
0.8636333,1573
0.8653,1679
0.8669667,1713
0.8686333,1677
0.8703,1872
0.8719667,1867
0.8736333,1863
0.8753,1904
0.8769667,1945
0.8786333,1920
0.8803,1895
0.8819667,1561
0.8836333,1770
0.8853,1663
0.8869666,1557
0.8886333,1697
0.8903,1728
0.8919666,1759
0.8936333,1704
0.8953,1649
0.8969667,1639
0.8986334,1841
0.9003,1400
0.9019667,1767
0.9036334,1518
0.9053,1531
0.9069667,1535
0.9086334,1594
0.9103,1654
0.9119667,1737
0.9136333,1820
0.9153,1934
0.9169667,1839
0.9186333,1578
0.9203,1935
0.9219667,1368
0.9236333,1498
0.9253,1736
0.9269667,1397
0.9286333,1662
0.9303,1795
0.9319667,1478
0.9336333,1494
0.9353,1821
0.9369667,1850
0.9386333,1347
0.9403,1517
0.9419667,1473
0.9436333,1556
0.9453,1534
0.9469666,1197
0.9486333,1406
0.9503,1301
0.9519666,1438
0.9536333,1198
0.9553,1543
0.9569666,1443
0.9586333,1046
0.9603,1352
0.9619667,1372
0.9636334,1207
0.9653,1032
0.9669667,1190
0.9686334,942
0.9703,1090
0.9719667,920
0.9736333,1067
0.9753,1125
0.9769667,1170
0.9786333,929
0.9803,1205
0.9819667,1036
0.9836333,1188
0.9853,994
0.9869667,1110
0.9886333,1255
0.9903,1178
0.9919667,1201
0.9936333,1225
0.9953,1526
0.9969667,1536
0.9986333,1568
1.0003,1613
1.001967,1571
1.003633,1529
1.0053,1629
1.006967,1132
1.008633,1779
1.0103,1680
1.011967,1776
1.013633,1658
1.0153,1636
1.016967,1614
1.018633,1673
1.0203,1355
1.021967,1069
1.023633,1378
1.0253,1225
1.026967,1313
1.028633,1037
1.0303,1136
1.031967,1326
1.033633,1160
1.0353,1007
1.036967,1115
1.038633,1112
1.0403,1065
1.041967,1018
1.043633,936
1.0453,949
1.046967,982
1.048633,1016
1.0503,1041
1.051967,1019
1.053633,996
1.0553,903
1.056967,810
1.058633,952
1.0603,909
1.061967,867
1.063633,1008
1.0653,970
1.066967,1037
1.068633,969
1.0703,900
1.071967,1003
1.073633,986
1.0753,885
1.076967,1012
1.078633,1011
1.0803,924
1.081967,866
1.083633,1055
1.0853,926
1.086967,980
1.088633,1034
1.0903,874
1.091967,857
1.093633,1073
1.0953,1045
1.096967,1133
1.098633,1181
1.1003,609
1.101967,1118
1.103633,967
1.1053,972
1.106967,1024
1.108633,999
1.1103,973
1.111967,1116
1.113633,1080
1.1153,1044
1.116967,958
1.118633,929
1.1203,849
1.121967,1055
1.123633,983
1.1253,972
1.126967,981
1.128633,902
1.1303,1039
1.131967,849
1.133633,930
1.1353,876
1.136967,823
1.138633,1009
1.1403,859
1.141967,709
1.143633,1000
1.1453,1014
1.146967,1028
1.148633,790
1.1503,942
1.151967,955
1.153633,944
1.1553,871
1.156967,759
1.158633,758
1.1603,790
1.161967,822
1.163633,796
1.1653,769
1.166967,923
1.168633,878
1.1703,833
1.171967,857
1.173633,629
1.1753,1037
1.176967,1065
1.178633,891
1.1803,981
1.181967,902
1.183633,874
1.1853,829
1.186967,864
1.188633,879
1.1903,893
1.191967,874
1.193633,854
1.1953,846
1.196967,839
1.198633,907
