"SampleName","A2Rd2_01-8"
"Target Mass 1",
"Column Name","IA-3 (3um, 4.6X100)"
"Channel","QDa 1: SIR Ch1"
0.00195,377
0.003616667,571
0.005283333,1392
0.00695,838
0.008616666,777
0.01028333,869
0.01195,734
0.01361667,755
0.01528333,550
0.01695,696
0.01861667,673
0.02028333,622
0.02195,730
0.02361667,710
0.02528333,745
0.02695,726
0.02861667,801
0.03028333,608
0.03195,716
0.03361667,680
0.03528333,692
0.03695,708
0.03861667,724
0.04028333,626
0.04195,709
0.04361667,793
0.04528333,767
0.04695,722
0.04861667,683
0.05028334,667
0.05195,629
0.05361667,484
0.05528333,816
0.05695,724
0.05861667,844
0.06028333,734
0.06195,789
0.06361666,556
0.06528334,753
0.06695,582
0.06861667,697
0.07028333,748
0.07195,696
0.07361667,644
0.07528333,672
0.07695,672
0.07861666,672
0.08028334,558
0.08195,777
0.08361667,762
0.08528333,910
0.08695,812
0.08861667,645
0.09028333,658
0.09195,722
0.09361666,697
0.09528334,601
0.09695,747
0.09861667,620
0.1002833,526
0.10195,794
0.1036167,759
0.1052833,681
0.10695,716
0.1086167,683
0.1102833,651
0.11195,704
0.1136167,756
0.1152833,779
0.11695,662
0.1186167,661
0.1202833,712
0.12195,664
0.1236167,545
0.1252833,579
0.12695,612
0.1286167,745
0.1302833,874
0.13195,853
0.1336167,602
0.1352833,774
0.13695,609
0.1386167,702
0.1402833,790
0.14195,675
0.1436167,668
0.1452833,605
0.14695,669
0.1486167,592
0.1502833,567
0.15195,608
0.1536167,599
0.1552833,724
0.15695,735
0.1586167,539
0.1602833,738
0.16195,540
0.1636167,651
0.1652833,672
0.16695,744
0.1686167,752
0.1702833,606
0.17195,753
0.1736167,624
0.1752833,596
0.17695,673
0.1786167,647
0.1802833,680
0.18195,651
0.1836167,656
0.1852833,662
0.18695,614
0.1886167,566
0.1902833,557
0.19195,538
0.1936167,607
0.1952833,676
0.19695,700
0.1986167,679
0.2002833,680
0.20195,615
0.2036167,668
0.2052833,663
0.20695,780
0.2086167,484
0.2102833,692
0.21195,788
0.2136167,651
0.2152833,547
0.21695,720
0.2186167,607
0.2202833,681
0.22195,638
0.2236167,664
0.2252833,698
0.22695,699
0.2286167,654
0.2302833,608
0.23195,706
0.2336167,557
0.2352833,641
0.23695,727
0.2386167,496
0.2402833,578
0.24195,639
0.2436167,612
0.2452833,640
0.24695,640
0.2486167,702
0.2502833,684
0.25195,614
0.2536167,645
0.2552833,650
0.25695,615
0.2586167,637
0.2602833,658
0.26195,522
0.2636167,689
0.2652833,716
0.26695,686
0.2686167,685
0.2702833,669
0.27195,662
0.2736167,655
0.2752833,623
0.27695,593
0.2786167,563
0.2803,696
0.28195,741
0.2836167,485
0.2852833,643
0.28695,727
0.2886167,774
0.2902833,746
0.2919667,664
0.2936167,565
0.2952833,684
0.29695,1011
0.2986333,949
0.3002833,652
0.30195,789
0.3036333,717
0.3052833,659
0.30695,799
0.3086167,700
0.3102833,679
0.31195,727
0.3136167,775
0.3153,605
0.31695,798
0.3186167,802
0.3202833,652
0.32195,799
0.3236167,482
0.3252833,847
0.32695,664
0.3286167,697
0.3302833,674
0.33195,691
0.3336333,707
0.3353,525
0.3369667,517
0.3386167,634
0.3403,779
0.3419667,748
0.3436333,704
0.3452833,716
0.34695,664
0.3486167,721
0.3503,716
0.3519667,727
0.3536167,499
0.3553,873
0.3569667,724
0.3586167,761
0.3603,915
0.36195,1840
0.3636167,5473
0.3652833,8568
0.36695,10528
0.3686333,9232
0.3703,8154
0.3719667,7162
0.3736333,5739
0.3752833,5338
0.3769667,3995
0.3786167,3736
0.3802833,2886
0.38195,2811
0.3836167,2410
0.3853,2193
0.3869667,1903
0.3886333,2325
0.3903,2017
0.3919667,1917
0.3936333,1902
0.3952833,2257
0.3969667,2238
0.3986167,2229
0.4003,2240
0.4019667,2173
0.4036333,2106
0.4053,2259
0.4069667,1908
0.4086167,2194
0.4103,1997
0.41195,1984
0.4136333,1620
0.4152833,2087
0.4169667,1944
0.4186333,1826
0.4203,1642
0.4219667,1534
0.4236333,1664
0.4253,1557
0.4269667,1449
0.4286333,1440
0.4303,1403
0.4319667,1517
0.4336333,1275
0.4353,1261
0.4369667,1398
0.4386333,1337
0.4403,1468
0.4419667,1662
0.4436333,1976
0.4453,3588
0.4469667,5495
0.4486333,9048
0.4503,14696
0.4519667,26076
0.4536333,43136
0.4553,69776
0.4569667,107200
0.4586333,154752
0.4603,211904
0.4619667,275904
0.4636333,345728
0.4653,417792
0.4669667,481536
0.4686333,526848
0.4703,564480
0.4719667,593152
0.4736333,584192
0.4753,554752
0.4769667,501504
0.4786333,452544
0.4803,395520
0.4819667,344960
0.4836333,285056
0.4853,232128
0.4869667,187520
0.4886333,160640
0.4903,129728
0.4919667,105424
0.4936333,88976
0.4953,73840
0.4969667,62464
0.4986333,53584
0.5003,44256
0.5019667,37104
0.5036333,31388
0.5053,27424
0.5069667,23912
0.5086333,20128
0.5103,17996
0.5119666,16020
0.5136333,13648
0.5153,11704
0.5169666,10716
0.5186333,10216
0.5203,9176
0.5219667,9044
0.5236334,8232
0.5253,7506
0.5269667,7462
0.5286334,6739
0.5303,6398
0.5319667,6307
0.5336334,5690
0.5353,5217
0.5369667,5303
0.5386333,5370
0.5403,4906
0.5419667,4951
0.5436333,4927
0.5453,4623
0.5469667,4566
0.5486333,3838
0.5503,3940
0.5519667,4041
0.5536333,3652
0.5553,3659
0.5569667,3430
0.5586333,3385
0.5603,3125
0.5619667,3253
0.5636333,2950
0.5653,2849
0.5669667,3105
0.5686333,2726
0.5703,2934
0.5719666,2507
0.5736333,2807
0.5753,2692
0.5769666,2733
0.5786333,2765
0.5803,2509
0.5819666,2599
0.5836333,2689
0.5853,2658
0.5869667,2473
0.5886334,2472
0.5903,2598
0.5919667,2526
0.5936334,2628
0.5953,2195
0.5969667,2419
0.5986333,2496
0.6003,2333
0.6019667,2370
0.6036333,2460
0.6053,2335
0.6069667,2004
0.6086333,2458
0.6103,2283
0.6119667,2287
0.6136333,1636
0.6153,2059
0.6169667,2117
0.6186333,2141
0.6203,1838
0.6219667,1928
0.6236333,1779
0.6253,1765
0.6269667,1751
0.6286333,1810
0.6303,1733
0.6319667,1655
0.6336333,1758
0.6353,1588
0.6369666,1594
0.6386333,1389
0.6403,1480
0.6419666,1588
0.6436333,1655
0.6453,1476
0.6469667,1444
0.6486334,1438
0.6503,1466
0.6519667,1494
0.6536334,1363
0.6553,1562
0.6569667,1529
0.6586334,1475
0.6603,1275
0.6619667,1245
0.6636333,1613
0.6653,1725
0.6669667,1810
0.6686333,1787
0.6703,1687
0.6719667,1377
0.6736333,1352
0.6753,1325
0.6769667,1355
0.6786333,1442
0.6803,1578
0.6819667,1163
0.6836333,1310
0.6853,1454
0.6869667,1209
0.6886333,1233
0.6903,1196
0.6919667,1172
0.6936333,1148
0.6953,1104
0.6969666,1184
0.6986333,1257
0.7003,1206
0.7019666,1244
0.7036333,1282
0.7053,1178
0.7069666,1187
0.7086333,1350
0.7103,1332
0.7119667,1161
0.7136334,1041
0.7153,1127
0.7169667,1214
0.7186334,1082
0.7203,1013
0.7219667,1207
0.7236333,1136
0.7253,959
0.7269667,1010
0.7286333,1107
0.7303,1176
0.7319667,1076
0.7336333,1236
0.7353,1281
0.7369667,1264
0.7386333,1247
0.7403,1193
0.7419667,1140
0.7436333,1065
0.7453,1291
0.7469667,1323
0.7486333,1244
0.7503,1283
0.7519667,1301
0.7536333,1178
0.7553,1407
0.7569667,1494
0.7586333,1388
0.7603,1163
0.7619666,1389
0.7636333,1321
0.7653,1303
0.7669666,1116
0.7686333,1284
0.7703,1145
0.7719667,1239
0.7736334,1178
0.7753,1252
0.7769667,1174
0.7786334,1315
0.7803,1375
0.7819667,1132
0.7836334,1378
0.7853,1006
0.7869667,1105
0.7886333,1112
0.7903,995
0.7919667,1097
0.7936333,1057
0.7953,1016
0.7969667,1059
0.7986333,1101
0.8003,1325
0.8019667,1262
0.8036333,1154
0.8053,1366
0.8069667,1352
0.8086333,1160
0.8103,1161
0.8119667,1190
0.8136333,1168
0.8153,1146
0.8169667,1296
0.8186333,1377
0.8203,1322
0.8219666,1333
0.8236333,1345
0.8253,1360
0.8269666,1355
0.8286333,1350
0.8303,1220
0.8319666,1296
0.8336333,1343
0.8353,1410
0.8369667,1312
0.8386334,1214
0.8403,1219
0.8419667,1276
0.8436334,1247
0.8453,1410
0.8469667,1058
0.8486333,1366
0.8503,1117
0.8519667,1301
0.8536333,1094
0.8553,947
0.8569667,1036
0.8586333,1294
0.8603,1867
0.8619667,2101
0.8636333,3019
0.8653,3335
0.8669667,4162
0.8686333,4905
0.8703,5491
0.8719667,5217
0.8736333,5168
0.8753,5095
0.8769667,5042
0.8786333,5110
0.8803,5087
0.8819667,5063
0.8836333,5240
0.8853,4389
0.8869666,5025
0.8886333,4634
0.8903,4738
0.8919666,4497
0.8936333,4145
0.8953,4339
0.8969667,4865
0.8986334,4800
0.9003,4331
0.9019667,4667
0.9036334,4413
0.9053,4832
0.9069667,4999
0.9086334,4445
0.9103,4827
0.9119667,4973
0.9136333,4381
0.9153,5039
0.9169667,4659
0.9186333,4305
0.9203,5195
0.9219667,4544
0.9236333,4507
0.9253,4516
0.9269667,4346
0.9286333,4567
0.9303,4268
0.9319667,3523
0.9336333,4296
0.9353,3796
0.9369667,3720
0.9386333,3396
0.9403,3484
0.9419667,3043
0.9436333,3502
0.9453,3068
0.9469666,2839
0.9486333,2432
0.9503,2700
0.9519666,2778
0.9536333,2349
0.9553,2514
0.9569666,2290
0.9586333,1732
0.9603,1743
0.9619667,1930
0.9636334,1548
0.9653,1345
0.9669667,1474
0.9686334,1234
0.9703,1317
0.9719667,1316
0.9736333,1136
0.9753,1042
0.9769667,1137
0.9786333,1026
0.9803,1142
0.9819667,975
0.9836333,984
0.9853,767
0.9869667,923
0.9886333,863
0.9903,842
0.9919667,914
0.9936333,906
0.9953,913
0.9969667,794
0.9986333,797
1.0003,813
1.001967,697
1.003633,751
1.0053,809
1.006967,849
1.008633,839
1.0103,801
1.011967,801
1.013633,703
1.0153,809
1.016967,838
1.018633,834
1.0203,794
1.021967,754
1.023633,737
1.0253,720
1.026967,1000
1.028633,1025
1.0303,755
1.031967,826
1.033633,907
1.0353,797
1.036967,867
1.038633,836
1.0403,829
1.041967,793
1.043633,811
1.0453,757
1.046967,703
1.048633,674
1.0503,1028
1.051967,1162
1.053633,964
1.0553,901
1.056967,921
1.058633,908
1.0603,895
1.061967,859
1.063633,822
1.0653,876
1.066967,915
1.068633,934
1.0703,910
1.071967,836
1.073633,935
1.0753,899
1.076967,862
1.078633,995
1.0803,958
1.081967,936
1.083633,813
1.0853,872
1.086967,728
1.088633,963
1.0903,977
1.091967,815
1.093633,789
1.0953,836
1.096967,895
1.098633,953
1.1003,923
1.101967,805
1.103633,803
1.1053,661
1.106967,835
1.108633,893
1.1103,793
1.111967,798
1.113633,803
1.1153,873
1.116967,942
1.118633,958
1.1203,931
1.121967,911
1.123633,921
1.1253,930
1.126967,812
1.128633,878
1.1303,847
1.131967,848
1.133633,825
1.1353,847
1.136967,869
1.138633,955
1.1403,958
1.141967,1009
1.143633,878
1.1453,799
1.146967,874
1.148633,907
1.1503,799
1.151967,848
1.153633,897
1.1553,927
1.156967,1005
1.158633,1044
1.1603,1080
1.161967,1029
1.163633,1022
1.1653,1014
1.166967,1039
1.168633,915
1.1703,993
1.171967,1072
1.173633,1103
1.1753,764
1.176967,1223
1.178633,1112
1.1803,1223
1.181967,1060
1.183633,1103
1.1853,1168
1.186967,1126
1.188633,1137
1.1903,1139
1.191967,1077
1.193633,1079
1.1953,1047
1.196967,1155
1.198633,1150
