"SampleName","A2Rd2_01-72"
"Target Mass 1",
"Column Name","IA-3 (3um, 4.6X100)"
"Channel","QDa 1: SIR Ch1"
0.00195,304
0.003616667,519
0.005283333,432
0.00695,531
0.008616666,493
0.01028333,604
0.01195,553
0.01361667,454
0.01528333,568
0.01695,472
0.01861667,498
0.02028333,520
0.02195,351
0.02361667,523
0.02528333,546
0.02695,332
0.02861667,363
0.03028333,488
0.03195,469
0.03361667,450
0.03528333,431
0.03695,493
0.03861667,499
0.04028333,505
0.04195,490
0.04361667,474
0.04528333,463
0.04695,487
0.04861667,445
0.05028334,588
0.05195,582
0.05361667,563
0.05528333,536
0.05695,596
0.05861667,471
0.06028333,556
0.06195,563
0.06361666,495
0.06528334,444
0.06695,576
0.06861667,546
0.07028333,583
0.07195,448
0.07361667,403
0.07528333,590
0.07695,527
0.07861666,378
0.08028334,532
0.08195,546
0.08361667,564
0.08528333,437
0.08695,570
0.08861667,549
0.09028333,576
0.09195,528
0.09361666,479
0.09528334,415
0.09695,412
0.09861667,552
0.1002833,553
0.10195,446
0.1036167,365
0.1052833,466
0.10695,410
0.1086167,392
0.1102833,375
0.11195,483
0.1136167,531
0.1152833,578
0.11695,490
0.1186167,556
0.1202833,484
0.12195,506
0.1236167,518
0.1252833,440
0.12695,452
0.1286167,465
0.1302833,340
0.13195,365
0.1336167,378
0.1352833,392
0.13695,579
0.1386167,677
0.1402833,555
0.14195,560
0.1436167,436
0.1452833,454
0.14695,380
0.1486167,400
0.1502833,421
0.15195,438
0.1536167,427
0.1552833,416
0.15695,359
0.1586167,412
0.1602833,466
0.16195,484
0.1636167,488
0.1652833,492
0.16695,377
0.1686167,375
0.1702833,430
0.17195,484
0.1736167,459
0.1752833,360
0.17695,583
0.1786167,561
0.1802833,466
0.18195,456
0.1836167,470
0.1852833,445
0.18695,458
0.1886167,471
0.1902833,371
0.19195,337
0.1936167,529
0.1952833,516
0.19695,466
0.1986167,280
0.2002833,645
0.20195,656
0.2036167,424
0.2052833,426
0.20695,519
0.2086167,474
0.2102833,361
0.21195,409
0.2136167,457
0.2152833,489
0.21695,496
0.2186167,540
0.2202833,325
0.22195,443
0.2236167,515
0.2252833,465
0.22695,423
0.2286333,524
0.2302833,520
0.23195,517
0.2336167,354
0.2352833,369
0.23695,491
0.2386167,433
0.2402833,404
0.24195,330
0.2436167,361
0.2453,391
0.24695,491
0.2486167,461
0.2502833,445
0.25195,411
0.2536167,498
0.2552833,452
0.25695,406
0.2586167,551
0.2602833,523
0.26195,471
0.2636333,501
0.2652833,503
0.2669667,464
0.2686167,523
0.2702833,556
0.27195,439
0.2736167,474
0.2752833,460
0.27695,499
0.2786167,459
0.2803,418
0.28195,487
0.2836167,500
0.2852833,514
0.28695,446
0.2886167,330
0.2903,380
0.29195,359
0.2936167,337
0.2952833,486
0.29695,482
0.2986333,478
0.3002833,470
0.30195,462
0.3036333,453
0.3052833,585
0.3069667,587
0.3086167,572
0.3102833,445
0.31195,557
0.3136333,575
0.3153,543
0.3169667,511
0.3186167,424
0.3203,499
0.32195,494
0.3236333,582
0.3252833,568
0.32695,538
0.3286333,508
0.3303,565
0.3319667,596
0.3336333,647
0.3352833,607
0.3369667,661
0.3386167,472
0.3403,555
0.34195,559
0.3436333,552
0.3453,479
0.3469667,540
0.3486333,526
0.3503,521
0.35195,516
0.3536333,523
0.3552833,548
0.3569667,500
0.3586167,453
0.3603,486
0.3619667,688
0.3636333,680
0.3653,909
0.3669667,1660
0.3686333,2633
0.3703,4521
0.3719667,5970
0.3736333,6737
0.3753,7827
0.3769667,7731
0.3786333,7705
0.3803,7434
0.3819667,6419
0.3836333,5841
0.3853,4556
0.3869667,4368
0.3886333,3771
0.3903,3017
0.3919667,2852
0.3936333,2578
0.3953,2056
0.3969667,1546
0.3986333,1545
0.4003,1161
0.4019667,1158
0.4036333,1331
0.4053,1471
0.4069667,1373
0.4086333,1240
0.4103,1406
0.4119667,1268
0.4136333,1496
0.4153,1382
0.4169667,1515
0.4186333,1482
0.4203,1361
0.4219667,1405
0.4236333,1533
0.4253,1473
0.4269667,1484
0.4286333,1494
0.4303,1258
0.4319667,1751
0.4336333,1703
0.4353,1982
0.4369667,2978
0.4386333,4292
0.4403,6536
0.4419667,9536
0.4436333,14764
0.4453,20440
0.4469667,29088
0.4486333,39840
0.4503,53072
0.4519667,67088
0.4536333,79344
0.4553,95488
0.4569667,112096
0.4586333,125840
0.4603,142592
0.4619667,153088
0.4636333,171904
0.4653,191680
0.4669667,207296
0.4686333,232640
0.4703,253184
0.4719667,265920
0.4736333,274432
0.4753,282816
0.4769667,278528
0.4786333,263808
0.4803,235008
0.4819667,216000
0.4836333,187584
0.4853,157632
0.4869667,131392
0.4886333,107040
0.4903,84816
0.4919667,66512
0.4936333,52640
0.4953,39344
0.4969667,30416
0.4986333,23460
0.5003,18832
0.5019667,15364
0.5036333,12288
0.5053,10040
0.5069667,8388
0.5086333,7263
0.5103,6279
0.5119666,6131
0.5136333,5382
0.5153,4526
0.5169666,4241
0.5186333,4157
0.5203,4332
0.5219667,3698
0.5236334,3645
0.5253,3282
0.5269667,3397
0.5286334,3322
0.5303,2662
0.5319667,2954
0.5336334,2743
0.5353,2403
0.5369667,2459
0.5386333,2358
0.5403,2321
0.5419667,2033
0.5436333,2002
0.5453,2210
0.5469667,2264
0.5486333,2324
0.5503,2305
0.5519667,1946
0.5536333,1856
0.5553,1804
0.5569667,1666
0.5586333,1402
0.5603,1564
0.5619667,1739
0.5636333,1625
0.5653,1534
0.5669667,1488
0.5686333,1373
0.5703,1630
0.5719666,1263
0.5736333,1383
0.5753,1180
0.5769666,1245
0.5786333,1312
0.5803,1377
0.5819666,1101
0.5836333,1278
0.5853,1187
0.5869667,1095
0.5886334,1141
0.5903,1097
0.5919667,1151
0.5936334,1206
0.5953,1207
0.5969667,1208
0.5986333,1239
0.6003,1269
0.6019667,1264
0.6036333,1244
0.6053,1341
0.6069667,1329
0.6086333,1435
0.6103,1150
0.6119667,1302
0.6136333,1203
0.6153,1355
0.6169667,1358
0.6186333,999
0.6203,1422
0.6219667,1178
0.6236333,1410
0.6253,1059
0.6269667,1100
0.6286333,1119
0.6303,875
0.6319667,1013
0.6336333,1037
0.6353,940
0.6369666,885
0.6386333,1037
0.6403,675
0.6419666,773
0.6436333,797
0.6453,885
0.6469667,889
0.6486334,951
0.6503,734
0.6519667,722
0.6536334,929
0.6553,835
0.6569667,754
0.6586334,814
0.6603,865
0.6619667,807
0.6636333,749
0.6653,902
0.6669667,768
0.6686333,728
0.6703,568
0.6719667,778
0.6736333,836
0.6753,687
0.6769667,754
0.6786333,812
0.6803,823
0.6819667,609
0.6836333,627
0.6853,764
0.6869667,711
0.6886333,705
0.6903,705
0.6919667,731
0.6936333,713
0.6953,695
0.6969666,567
0.6986333,531
0.7003,581
0.7019666,577
0.7036333,573
0.7053,700
0.7069666,717
0.7086333,607
0.7103,777
0.7119667,771
0.7136334,581
0.7153,638
0.7169667,774
0.7186334,598
0.7203,561
0.7219667,728
0.7236333,604
0.7253,485
0.7269667,675
0.7286333,649
0.7303,642
0.7319667,571
0.7336333,705
0.7353,654
0.7369667,617
0.7386333,761
0.7403,471
0.7419667,805
0.7436333,644
0.7453,757
0.7469667,640
0.7486333,761
0.7503,780
0.7519667,529
0.7536333,744
0.7553,738
0.7569667,678
0.7586333,695
0.7603,742
0.7619666,566
0.7636333,627
0.7653,699
0.7669666,638
0.7686333,675
0.7703,712
0.7719667,515
0.7736334,758
0.7753,527
0.7769667,722
0.7786334,552
0.7803,660
0.7819667,563
0.7836334,679
0.7853,656
0.7869667,441
0.7886333,654
0.7903,449
0.7919667,656
0.7936333,567
0.7953,584
0.7969667,632
0.7986333,529
0.8003,670
0.8019667,745
0.8036333,641
0.8053,780
0.8069667,737
0.8086333,645
0.8103,576
0.8119667,639
0.8136333,613
0.8153,584
0.8169667,576
0.8186333,626
0.8203,677
0.8219666,657
0.8236333,638
0.8253,638
0.8269666,639
0.8286333,662
0.8303,683
0.8319666,658
0.8336333,633
0.8353,702
0.8369667,689
0.8386334,576
0.8403,709
0.8419667,579
0.8436334,765
0.8453,672
0.8469667,606
0.8486333,716
0.8503,733
0.8519667,688
0.8536333,676
0.8553,450
0.8569667,725
0.8586333,717
0.8603,714
0.8619667,639
0.8636333,584
0.8653,698
0.8669667,615
0.8686333,612
0.8703,642
0.8719667,592
0.8736333,618
0.8753,520
0.8769667,569
0.8786333,800
0.8803,1103
0.8819667,1117
0.8836333,1464
0.8853,1719
0.8869666,2400
0.8886333,2708
0.8903,2595
0.8919666,2837
0.8936333,2839
0.8953,2840
0.8969667,3304
0.8986334,3225
0.9003,3099
0.9019667,2960
0.9036334,3167
0.9053,2833
0.9069667,3062
0.9086334,2756
0.9103,2808
0.9119667,2956
0.9136333,2981
0.9153,3053
0.9169667,3019
0.9186333,2986
0.9203,3150
0.9219667,2766
0.9236333,2702
0.9253,3026
0.9269667,3052
0.9286333,2954
0.9303,2975
0.9319667,2950
0.9336333,2980
0.9353,2743
0.9369667,2726
0.9386333,2775
0.9403,2537
0.9419667,2757
0.9436333,2259
0.9453,2301
0.9469666,2406
0.9486333,2127
0.9503,2247
0.9519666,1971
0.9536333,1915
0.9553,1596
0.9569666,1607
0.9586333,1791
0.9603,1846
0.9619667,1317
0.9636334,1514
0.9653,1347
0.9669667,1252
0.9686334,1093
0.9703,1272
0.9719667,1083
0.9736333,1134
0.9753,871
0.9769667,929
0.9786333,892
0.9803,860
0.9819667,827
0.9836333,762
0.9853,589
0.9869667,631
0.9886333,608
0.9903,621
0.9919667,634
0.9936333,529
0.9953,631
0.9969667,631
0.9986333,715
1.0003,343
1.001967,569
1.003633,489
1.0053,485
1.006967,595
1.008633,578
1.0103,609
1.011967,454
1.013633,421
1.0153,429
1.016967,437
1.018633,444
1.0203,536
1.021967,432
1.023633,327
1.0253,497
1.026967,657
1.028633,677
1.0303,655
1.031967,485
1.033633,512
1.0353,548
1.036967,492
1.038633,457
1.0403,420
1.041967,606
1.043633,625
1.0453,447
1.046967,674
1.048633,571
1.0503,551
1.051967,492
1.053633,565
1.0553,666
1.056967,624
1.058633,510
1.0603,639
1.061967,606
1.063633,580
1.0653,553
1.066967,606
1.068633,608
1.0703,610
1.071967,566
1.073633,536
1.0753,465
1.076967,409
1.078633,472
1.0803,536
1.081967,699
1.083633,679
1.0853,526
1.086967,524
1.088633,650
1.0903,606
1.091967,595
1.093633,560
1.0953,468
1.096967,672
1.098633,610
1.1003,729
1.101967,621
1.103633,529
1.1053,666
1.106967,709
1.108633,704
1.1103,577
1.111967,568
1.113633,700
1.1153,476
1.116967,564
1.118633,558
1.1203,553
1.121967,591
1.123633,630
1.1253,488
1.126967,570
1.128633,561
1.1303,553
1.131967,595
1.133633,637
1.1353,640
1.136967,643
1.138633,436
1.1403,650
1.141967,710
1.143633,545
1.1453,601
1.146967,576
1.148633,538
1.1503,500
1.151967,485
1.153633,670
1.1553,695
1.156967,562
1.158633,662
1.1603,578
1.161967,611
1.163633,644
1.1653,677
1.166967,600
1.168633,524
1.1703,608
1.171967,662
1.173633,589
1.1753,609
1.176967,458
1.178633,748
1.1803,685
1.181967,663
1.183633,564
1.1853,816
1.186967,742
1.188633,563
1.1903,700
1.191967,584
1.193633,785
1.1953,700
1.196967,596
1.198633,647
