"SampleName","A2Rd2_01-30"
"Target Mass 1",
"Column Name","IA-3 (3um, 4.6X100)"
"Channel","QDa 1: SIR Ch1"
0.00195,323
0.003616667,527
0.005283333,801
0.00695,640
0.008616666,734
0.01028333,700
0.01195,742
0.01361667,589
0.01528333,558
0.01695,673
0.01861667,551
0.02028333,664
0.02195,652
0.02361667,598
0.02528333,610
0.02695,622
0.02861667,635
0.03028333,630
0.03195,614
0.03361667,580
0.03528333,547
0.03695,560
0.03861667,574
0.04028333,525
0.04195,621
0.04361667,592
0.04528333,590
0.04695,607
0.04861667,667
0.05028334,657
0.05195,607
0.05361667,630
0.05528333,654
0.05695,527
0.05861667,522
0.06028333,568
0.06195,613
0.06361666,606
0.06528334,645
0.06695,670
0.06861667,695
0.07028333,570
0.07195,626
0.07361667,533
0.07528333,534
0.07695,677
0.07861666,463
0.08028334,662
0.08195,632
0.08361667,602
0.08528333,582
0.08695,593
0.08861667,692
0.09028333,417
0.09195,514
0.09361666,632
0.09528334,504
0.09695,587
0.09861667,475
0.1002833,465
0.10195,455
0.1036167,503
0.1052833,552
0.10695,534
0.1086167,565
0.1102833,569
0.11195,573
0.1136167,542
0.1152833,532
0.11695,521
0.1186167,516
0.1202833,510
0.12195,506
0.1236167,503
0.1252833,550
0.12695,546
0.1286167,533
0.1302833,470
0.13195,606
0.1336167,661
0.1352833,616
0.13695,666
0.1386167,640
0.1402833,614
0.14195,587
0.1436167,610
0.1452833,632
0.14695,643
0.1486167,620
0.1502833,596
0.15195,486
0.1536167,561
0.1552833,668
0.15695,661
0.1586167,636
0.1602833,558
0.16195,548
0.1636167,623
0.1652833,606
0.16695,590
0.1686167,506
0.1702833,643
0.17195,586
0.1736167,688
0.1752833,603
0.17695,704
0.1786167,470
0.1802833,773
0.18195,425
0.1836167,562
0.1852833,511
0.18695,616
0.1886167,618
0.1902833,590
0.19195,563
0.1936167,546
0.1952833,562
0.19695,575
0.1986167,602
0.2002833,662
0.20195,477
0.2036167,713
0.2052833,595
0.20695,575
0.2086167,712
0.2102833,650
0.21195,679
0.2136167,715
0.2152833,534
0.21695,763
0.2186167,570
0.2202833,597
0.22195,478
0.2236167,554
0.2252833,576
0.22695,546
0.2286167,517
0.2302833,472
0.23195,501
0.2336167,518
0.2352833,535
0.23695,517
0.2386167,500
0.2402833,666
0.24195,596
0.2436167,526
0.2453,614
0.24695,612
0.2486167,565
0.2502833,539
0.25195,513
0.2536167,568
0.2552833,576
0.25695,561
0.2586167,551
0.2602833,647
0.26195,650
0.2636167,690
0.2652833,474
0.26695,492
0.2686167,540
0.2702833,446
0.27195,618
0.2736167,602
0.2752833,624
0.27695,600
0.2786167,642
0.2803,543
0.28195,617
0.2836167,460
0.2852833,550
0.28695,565
0.2886167,694
0.2902833,696
0.29195,490
0.2936167,701
0.2953,565
0.29695,716
0.2986333,656
0.3002833,795
0.30195,683
0.3036167,620
0.3052833,713
0.30695,606
0.3086167,725
0.3102833,659
0.31195,749
0.3136167,699
0.3153,541
0.31695,596
0.3186167,752
0.3202833,554
0.3219667,513
0.3236167,629
0.3252833,627
0.32695,588
0.3286333,620
0.3302833,533
0.33195,671
0.3336333,627
0.3352833,676
0.3369667,476
0.3386333,640
0.3402833,555
0.3419667,666
0.3436167,676
0.3453,470
0.34695,532
0.3486167,519
0.3503,601
0.35195,625
0.3536333,584
0.3553,624
0.3569667,622
0.3586333,620
0.3602833,909
0.3619667,1013
0.3636167,1142
0.3652833,2489
0.36695,4708
0.3686333,6398
0.3703,7433
0.3719667,7517
0.3736333,7133
0.3753,6094
0.3769667,4313
0.3786333,4024
0.3802833,2956
0.3819667,2747
0.3836167,2516
0.3853,1814
0.3869667,1638
0.3886333,1394
0.3903,1392
0.3919667,1149
0.3936333,1091
0.3953,1415
0.39695,1319
0.3986333,1528
0.4002833,1562
0.4019667,1562
0.4036333,2375
0.4053,2538
0.4069667,2189
0.4086333,2786
0.4103,2694
0.4119667,2397
0.4136333,2598
0.4153,2415
0.41695,2500
0.4186333,2272
0.4203,2367
0.4219667,2530
0.4236333,1700
0.4253,2235
0.4269667,2035
0.4286333,2007
0.4303,1905
0.4319667,2063
0.4336333,2229
0.4353,2462
0.4369667,2592
0.4386333,3666
0.4403,5205
0.4419667,6496
0.4436333,8356
0.4453,12048
0.4469667,14908
0.4486333,21412
0.4503,28144
0.4519667,38272
0.4536333,50736
0.4553,68432
0.4569667,93760
0.4586333,122816
0.4603,159424
0.4619667,202496
0.4636333,242880
0.4653,298944
0.4669667,352064
0.4686333,389888
0.4703,422784
0.4719667,431808
0.4736333,427968
0.4753,416576
0.4769667,376768
0.4786333,331200
0.4803,281984
0.4819667,227712
0.4836333,185152
0.4853,146944
0.4869667,114512
0.4886333,89680
0.4903,68720
0.4919667,51600
0.4936333,43008
0.4953,33104
0.4969667,27684
0.4986333,22452
0.5003,17728
0.5019667,14896
0.5036333,13664
0.5053,12480
0.5069667,10132
0.5086333,9132
0.5103,7784
0.5119666,7034
0.5136333,6501
0.5153,5901
0.5169666,5539
0.5186333,4933
0.5203,5140
0.5219667,4860
0.5236334,4919
0.5253,4335
0.5269667,4222
0.5286334,3952
0.5303,3737
0.5319667,3872
0.5336334,3805
0.5353,3778
0.5369667,3090
0.5386333,3600
0.5403,3351
0.5419667,3172
0.5436333,3044
0.5453,3036
0.5469667,2652
0.5486333,2653
0.5503,2654
0.5519667,2536
0.5536333,2542
0.5553,2330
0.5569667,2622
0.5586333,2555
0.5603,2267
0.5619667,2253
0.5636333,2095
0.5653,2245
0.5669667,2390
0.5686333,1994
0.5703,1828
0.5719666,1882
0.5736333,1764
0.5753,1834
0.5769666,1904
0.5786333,1917
0.5803,1929
0.5819666,2118
0.5836333,2066
0.5853,2011
0.5869667,1957
0.5886334,2013
0.5903,2055
0.5919667,2030
0.5936334,2005
0.5953,1840
0.5969667,1707
0.5986333,1698
0.6003,1690
0.6019667,1793
0.6036333,1896
0.6053,1937
0.6069667,1977
0.6086333,1925
0.6103,1872
0.6119667,1898
0.6136333,2167
0.6153,2117
0.6169667,1567
0.6186333,1633
0.6203,1803
0.6219667,1545
0.6236333,1912
0.6253,1845
0.6269667,1710
0.6286333,1626
0.6303,1666
0.6319667,1622
0.6336333,1488
0.6353,1339
0.6369666,1359
0.6386333,1308
0.6403,1257
0.6419666,1403
0.6436333,1345
0.6453,1216
0.6469667,1327
0.6486334,1438
0.6503,1438
0.6519667,1204
0.6536334,1329
0.6553,1117
0.6569667,1082
0.6586334,1226
0.6603,1262
0.6619667,1283
0.6636333,1021
0.6653,1126
0.6669667,998
0.6686333,1071
0.6703,1144
0.6719667,1265
0.6736333,1186
0.6753,1209
0.6769667,1087
0.6786333,1143
0.6803,1244
0.6819667,1321
0.6836333,1274
0.6853,1060
0.6869667,1004
0.6886333,1091
0.6903,847
0.6919667,1070
0.6936333,1192
0.6953,1177
0.6969666,1031
0.6986333,1126
0.7003,844
0.7019666,1027
0.7036333,845
0.7053,904
0.7069666,1084
0.7086333,1049
0.7103,1174
0.7119667,1038
0.7136334,1100
0.7153,932
0.7169667,1141
0.7186334,1097
0.7203,995
0.7219667,1058
0.7236333,873
0.7253,886
0.7269667,989
0.7286333,1061
0.7303,979
0.7319667,974
0.7336333,970
0.7353,999
0.7369667,1098
0.7386333,1080
0.7403,1062
0.7419667,848
0.7436333,1293
0.7453,1126
0.7469667,1245
0.7486333,1053
0.7503,1106
0.7519667,1144
0.7536333,1109
0.7553,874
0.7569667,1037
0.7586333,920
0.7603,912
0.7619666,987
0.7636333,1193
0.7653,1135
0.7669666,906
0.7686333,1008
0.7703,939
0.7719667,1049
0.7736334,1010
0.7753,971
0.7769667,933
0.7786334,895
0.7803,861
0.7819667,896
0.7836334,930
0.7853,937
0.7869667,943
0.7886333,943
0.7903,943
0.7919667,964
0.7936333,985
0.7953,972
0.7969667,959
0.7986333,978
0.8003,977
0.8019667,1058
0.8036333,1051
0.8053,1024
0.8069667,990
0.8086333,896
0.8103,990
0.8119667,1007
0.8136333,843
0.8153,1056
0.8169667,922
0.8186333,932
0.8203,1026
0.8219666,946
0.8236333,1055
0.8253,1036
0.8269666,938
0.8286333,1004
0.8303,1022
0.8319666,895
0.8336333,1102
0.8353,1042
0.8369667,917
0.8386334,1016
0.8403,860
0.8419667,918
0.8436334,809
0.8453,1090
0.8469667,1067
0.8486333,1043
0.8503,712
0.8519667,1110
0.8536333,733
0.8553,957
0.8569667,644
0.8586333,1001
0.8603,1024
0.8619667,1048
0.8636333,1230
0.8653,1375
0.8669667,1779
0.8686333,2351
0.8703,2693
0.8719667,3488
0.8736333,4177
0.8753,4646
0.8769667,4406
0.8786333,4844
0.8803,4726
0.8819667,4240
0.8836333,4165
0.8853,3876
0.8869666,4395
0.8886333,4403
0.8903,4266
0.8919666,4175
0.8936333,4337
0.8953,4105
0.8969667,3944
0.8986334,3963
0.9003,4034
0.9019667,4105
0.9036334,4147
0.9053,4562
0.9069667,4532
0.9086334,3974
0.9103,3996
0.9119667,4544
0.9136333,4123
0.9153,4422
0.9169667,4330
0.9186333,4441
0.9203,4020
0.9219667,4381
0.9236333,4007
0.9253,4205
0.9269667,4054
0.9286333,4082
0.9303,3927
0.9319667,4065
0.9336333,3497
0.9353,3385
0.9369667,3022
0.9386333,3338
0.9403,3316
0.9419667,2916
0.9436333,2833
0.9453,2652
0.9469666,2447
0.9486333,2530
0.9503,2172
0.9519666,2140
0.9536333,2123
0.9553,1942
0.9569666,1727
0.9586333,1590
0.9603,1713
0.9619667,1726
0.9636334,1206
0.9653,1416
0.9669667,1470
0.9686334,1493
0.9703,1112
0.9719667,1102
0.9736333,1027
0.9753,1059
0.9769667,1092
0.9786333,1153
0.9803,860
0.9819667,843
0.9836333,822
0.9853,794
0.9869667,766
0.9886333,664
0.9903,867
0.9919667,783
0.9936333,692
0.9953,722
0.9969667,679
0.9986333,658
1.0003,637
1.001967,669
1.003633,685
1.0053,700
1.006967,618
1.008633,562
1.0103,548
1.011967,759
1.013633,725
1.0153,692
1.016967,804
1.018633,773
1.0203,683
1.021967,868
1.023633,786
1.0253,627
1.026967,746
1.028633,686
1.0303,798
1.031967,839
1.033633,559
1.0353,642
1.036967,758
1.038633,686
1.0403,767
1.041967,742
1.043633,716
1.0453,613
1.046967,673
1.048633,733
1.0503,720
1.051967,708
1.053633,749
1.0553,776
1.056967,804
1.058633,769
1.0603,691
1.061967,659
1.063633,628
1.0653,607
1.066967,623
1.068633,827
1.0703,791
1.071967,808
1.073633,704
1.0753,874
1.076967,624
1.078633,676
1.0803,845
1.081967,596
1.083633,877
1.0853,643
1.086967,818
1.088633,693
1.0903,646
1.091967,716
1.093633,676
1.0953,636
1.096967,726
1.098633,733
1.1003,741
1.101967,480
1.103633,560
1.1053,666
1.106967,748
1.108633,768
1.1103,721
1.111967,674
1.113633,711
1.1153,722
1.116967,711
1.118633,699
1.1203,645
1.121967,730
1.123633,815
1.1253,771
1.126967,727
1.128633,725
1.1303,599
1.131967,763
1.133633,684
1.1353,820
1.136967,740
1.138633,574
1.1403,788
1.141967,800
1.143633,783
1.1453,760
1.146967,736
1.148633,757
1.1503,870
1.151967,797
1.153633,723
1.1553,758
1.156967,800
1.158633,785
1.1603,770
1.161967,706
1.163633,723
1.1653,804
1.166967,635
1.168633,792
1.1703,826
1.171967,846
1.173633,751
1.1753,855
1.176967,857
1.178633,848
1.1803,635
1.181967,707
1.183633,777
1.1853,766
1.186967,754
1.188633,814
1.1903,817
1.191967,819
1.193633,764
1.1953,746
1.196967,802
1.198633,727
