"SampleName","A2Rd2_01-94"
"Target Mass 1",
"Column Name","IA-3 (3um, 4.6X100)"
"Channel","QDa 1: SIR Ch1"
0.00195,366
0.003616667,460
0.005283333,646
0.00695,523
0.008616666,606
0.01028333,529
0.01195,439
0.01361667,494
0.01528333,513
0.01695,593
0.01861667,546
0.02028333,462
0.02195,481
0.02361667,577
0.02528333,546
0.02695,570
0.02861667,521
0.03028333,534
0.03195,589
0.03361667,592
0.03528333,513
0.03695,581
0.03861667,563
0.04028333,560
0.04195,597
0.04361667,619
0.04528333,642
0.04695,442
0.04861667,588
0.05028334,649
0.05195,498
0.05361667,466
0.05528333,471
0.05695,656
0.05861667,656
0.06028333,506
0.06195,479
0.06361666,494
0.06528334,493
0.06695,487
0.06861667,539
0.07028333,513
0.07195,486
0.07361667,466
0.07528333,481
0.07695,487
0.07861666,493
0.08028334,463
0.08195,482
0.08361667,502
0.08528333,516
0.08695,531
0.08861667,501
0.09028333,437
0.09195,408
0.09361666,485
0.09528334,473
0.09695,461
0.09861667,479
0.1002833,488
0.10195,474
0.1036167,509
0.1052833,507
0.10695,505
0.1086167,529
0.1102833,528
0.11195,544
0.1136333,559
0.1152833,506
0.11695,559
0.1186167,533
0.1202833,500
0.12195,468
0.1236167,504
0.1252833,486
0.12695,468
0.1286167,493
0.1302833,509
0.13195,530
0.1336167,534
0.1352833,490
0.13695,510
0.1386167,455
0.1402833,523
0.14195,349
0.1436167,568
0.1452833,498
0.14695,554
0.1486167,469
0.1502833,461
0.15195,453
0.1536167,484
0.1552833,515
0.15695,596
0.1586167,362
0.1602833,506
0.16195,584
0.1636167,560
0.1652833,436
0.16695,448
0.1686167,542
0.1702833,408
0.17195,523
0.1736167,544
0.1752833,453
0.17695,475
0.1786167,572
0.1802833,429
0.18195,563
0.1836167,471
0.1852833,503
0.18695,554
0.1886167,436
0.1902833,478
0.19195,521
0.1936167,481
0.1952833,478
0.19695,453
0.1986167,427
0.2002833,421
0.20195,415
0.2036167,418
0.2052833,528
0.20695,535
0.2086167,542
0.2102833,438
0.21195,545
0.2136167,434
0.2152833,451
0.21695,518
0.2186167,312
0.2202833,429
0.22195,483
0.2236167,618
0.2252833,532
0.22695,450
0.2286167,548
0.2302833,603
0.23195,458
0.2336167,581
0.2352833,508
0.23695,533
0.2386167,557
0.2402833,454
0.24195,587
0.2436167,502
0.2452833,546
0.24695,581
0.2486167,531
0.2502833,502
0.25195,473
0.2536167,536
0.2552833,489
0.25695,489
0.2586167,625
0.2602833,609
0.26195,404
0.2636333,493
0.2652833,552
0.26695,592
0.2686167,471
0.2702833,456
0.27195,410
0.2736167,424
0.2752833,479
0.27695,468
0.2786167,458
0.2803,447
0.28195,431
0.2836333,476
0.2852833,447
0.28695,419
0.2886167,479
0.2902833,620
0.29195,589
0.2936167,559
0.2952833,606
0.29695,551
0.2986333,507
0.3002833,463
0.30195,532
0.3036167,601
0.3052833,637
0.30695,603
0.3086167,569
0.3102833,642
0.31195,561
0.3136167,411
0.3153,505
0.31695,461
0.3186167,548
0.3203,713
0.32195,682
0.3236167,626
0.3252833,595
0.32695,620
0.3286167,490
0.3302833,447
0.33195,426
0.3336333,444
0.3352833,515
0.33695,586
0.3386333,640
0.3402833,557
0.34195,542
0.3436167,527
0.3453,506
0.34695,486
0.3486167,633
0.3503,655
0.35195,624
0.3536167,628
0.3552833,552
0.35695,463
0.3586167,677
0.3602833,586
0.36195,513
0.3636333,815
0.3652833,1412
0.36695,2086
0.3686333,3178
0.3702833,4070
0.3719667,4945
0.3736167,5934
0.3753,6161
0.37695,7008
0.3786333,6942
0.3803,7034
0.38195,6267
0.3836333,5089
0.3853,4807
0.38695,4144
0.3886333,3478
0.3902833,2899
0.3919667,2298
0.3936333,1805
0.3953,1727
0.3969667,1481
0.3986167,1391
0.4002833,1076
0.40195,1273
0.4036333,898
0.4053,1100
0.4069667,1131
0.4086167,1178
0.4103,1039
0.4119667,952
0.4136333,1176
0.4153,997
0.4169667,1173
0.4186333,1263
0.4203,1301
0.4219667,1206
0.4236333,1247
0.4253,1084
0.4269667,1314
0.4286333,1172
0.4303,1225
0.4319667,1219
0.4336333,1929
0.4353,2807
0.4369667,4034
0.4386333,6159
0.4403,9628
0.4419667,14648
0.4436333,22552
0.4453,32600
0.4469667,46288
0.4486333,61040
0.4503,77296
0.4519667,93040
0.4536333,110688
0.4553,127344
0.4569667,141696
0.4586333,155072
0.4603,173056
0.4619667,179968
0.4636333,196672
0.4653,207552
0.4669667,226304
0.4686333,244032
0.4703,260800
0.4719667,269248
0.4736333,283968
0.4753,291648
0.4769667,283584
0.4786333,270144
0.4803,254336
0.4819667,238016
0.4836333,208384
0.4853,182144
0.4869667,156608
0.4886333,127440
0.4903,108592
0.4919667,85648
0.4936333,69024
0.4953,53920
0.4969667,44560
0.4986333,35424
0.5003,26920
0.5019667,22156
0.5036333,17244
0.5053,15000
0.5069667,11316
0.5086333,9264
0.5103,8248
0.5119666,7223
0.5136333,6503
0.5153,6204
0.5169666,5743
0.5186333,4992
0.5203,4782
0.5219667,4339
0.5236334,4382
0.5253,3627
0.5269667,3572
0.5286334,3404
0.5303,3186
0.5319667,3208
0.5336334,3369
0.5353,2864
0.5369667,2660
0.5386333,2545
0.5403,2713
0.5419667,2424
0.5436333,2432
0.5453,2518
0.5469667,2583
0.5486333,2118
0.5503,2557
0.5519667,2044
0.5536333,2107
0.5553,1862
0.5569667,2065
0.5586333,1826
0.5603,1817
0.5619667,1579
0.5636333,1980
0.5653,1470
0.5669667,1414
0.5686333,1876
0.5703,1502
0.5719666,1347
0.5736333,1447
0.5753,1380
0.5769666,1395
0.5786333,1411
0.5803,1466
0.5819666,1447
0.5836333,1428
0.5853,1436
0.5869667,1349
0.5886334,1351
0.5903,1297
0.5919667,1346
0.5936334,1395
0.5953,1250
0.5969667,1446
0.5986333,1273
0.6003,1216
0.6019667,1153
0.6036333,1439
0.6053,1439
0.6069667,1405
0.6086333,1373
0.6103,1204
0.6119667,1321
0.6136333,1360
0.6153,1375
0.6169667,1314
0.6186333,1234
0.6203,1212
0.6219667,1119
0.6236333,1181
0.6253,1242
0.6269667,1089
0.6286333,1037
0.6303,1123
0.6319667,977
0.6336333,1168
0.6353,1114
0.6369666,1035
0.6386333,1064
0.6403,1205
0.6419666,901
0.6436333,916
0.6453,1151
0.6469667,1121
0.6486334,919
0.6503,995
0.6519667,936
0.6536334,914
0.6553,774
0.6569667,765
0.6586334,882
0.6603,1004
0.6619667,971
0.6636333,820
0.6653,1012
0.6669667,707
0.6686333,886
0.6703,831
0.6719667,865
0.6736333,765
0.6753,728
0.6769667,884
0.6786333,768
0.6803,863
0.6819667,908
0.6836333,841
0.6853,923
0.6869667,788
0.6886333,643
0.6903,972
0.6919667,852
0.6936333,773
0.6953,752
0.6969666,775
0.6986333,783
0.7003,791
0.7019666,773
0.7036333,725
0.7053,735
0.7069666,741
0.7086333,718
0.7103,695
0.7119667,680
0.7136334,665
0.7153,701
0.7169667,737
0.7186334,756
0.7203,738
0.7219667,720
0.7236333,685
0.7253,649
0.7269667,747
0.7286333,789
0.7303,779
0.7319667,781
0.7336333,699
0.7353,646
0.7369667,827
0.7386333,802
0.7403,740
0.7419667,839
0.7436333,820
0.7453,788
0.7469667,829
0.7486333,823
0.7503,817
0.7519667,669
0.7536333,896
0.7553,907
0.7569667,611
0.7586333,616
0.7603,750
0.7619666,661
0.7636333,746
0.7653,830
0.7669666,868
0.7686333,914
0.7703,732
0.7719667,890
0.7736334,761
0.7753,860
0.7769667,771
0.7786334,830
0.7803,740
0.7819667,775
0.7836334,732
0.7853,692
0.7869667,782
0.7886333,757
0.7903,783
0.7919667,690
0.7936333,718
0.7953,749
0.7969667,810
0.7986333,872
0.8003,803
0.8019667,734
0.8036333,751
0.8053,681
0.8069667,680
0.8086333,815
0.8103,842
0.8119667,828
0.8136333,796
0.8153,763
0.8169667,812
0.8186333,786
0.8203,760
0.8219666,712
0.8236333,786
0.8253,814
0.8269666,833
0.8286333,1022
0.8303,1007
0.8319666,926
0.8336333,1012
0.8353,939
0.8369667,828
0.8386334,999
0.8403,891
0.8419667,924
0.8436334,708
0.8453,1049
0.8469667,1116
0.8486333,919
0.8503,899
0.8519667,879
0.8536333,747
0.8553,770
0.8569667,785
0.8586333,605
0.8603,822
0.8619667,755
0.8636333,808
0.8653,772
0.8669667,735
0.8686333,876
0.8703,863
0.8719667,692
0.8736333,732
0.8753,870
0.8769667,1028
0.8786333,1280
0.8803,1582
0.8819667,1839
0.8836333,2319
0.8853,2754
0.8869666,3056
0.8886333,3255
0.8903,3235
0.8919666,3263
0.8936333,3197
0.8953,3038
0.8969667,3301
0.8986334,3390
0.9003,3415
0.9019667,3440
0.9036334,3474
0.9053,3262
0.9069667,3051
0.9086334,3242
0.9103,3629
0.9119667,3517
0.9136333,3317
0.9153,3567
0.9169667,3279
0.9186333,3413
0.9203,3001
0.9219667,3156
0.9236333,3328
0.9253,3412
0.9269667,2676
0.9286333,2919
0.9303,3264
0.9319667,3072
0.9336333,3129
0.9353,2948
0.9369667,2879
0.9386333,3097
0.9403,2877
0.9419667,2784
0.9436333,2574
0.9453,2724
0.9469666,2581
0.9486333,2490
0.9503,2510
0.9519666,2662
0.9536333,2279
0.9553,2188
0.9569666,2083
0.9586333,2098
0.9603,1980
0.9619667,1567
0.9636334,1405
0.9653,1409
0.9669667,1400
0.9686334,1459
0.9703,1295
0.9719667,1124
0.9736333,1241
0.9753,1152
0.9769667,1123
0.9786333,854
0.9803,1002
0.9819667,874
0.9836333,703
0.9853,757
0.9869667,854
0.9886333,831
0.9903,810
0.9919667,661
0.9936333,778
0.9953,679
0.9969667,422
0.9986333,519
1.0003,766
1.001967,664
1.003633,660
1.0053,582
1.006967,629
1.008633,618
1.0103,635
1.011967,652
1.013633,511
1.0153,648
1.016967,590
1.018633,592
1.0203,593
1.021967,580
1.023633,685
1.0253,712
1.026967,649
1.028633,586
1.0303,545
1.031967,527
1.033633,518
1.0353,510
1.036967,638
1.038633,557
1.0403,476
1.041967,479
1.043633,481
1.0453,643
1.046967,619
1.048633,660
1.0503,643
1.051967,663
1.053633,618
1.0553,681
1.056967,589
1.058633,698
1.0603,599
1.061967,560
1.063633,666
1.0653,727
1.066967,758
1.068633,692
1.0703,645
1.071967,732
1.073633,726
1.0753,747
1.076967,576
1.078633,714
1.0803,779
1.081967,582
1.083633,744
1.0853,614
1.086967,781
1.088633,605
1.0903,717
1.091967,654
1.093633,660
1.0953,667
1.096967,647
1.098633,707
1.1003,694
1.101967,668
1.103633,700
1.1053,760
1.106967,711
1.108633,661
1.1103,659
1.111967,617
1.113633,574
1.1153,736
1.116967,692
1.118633,649
1.1203,590
1.121967,722
1.123633,618
1.1253,717
1.126967,658
1.128633,596
1.1303,640
1.131967,647
1.133633,653
1.1353,689
1.136967,594
1.138633,727
1.1403,668
1.141967,609
1.143633,737
1.1453,714
1.146967,667
1.148633,603
1.1503,880
1.151967,841
1.153633,854
1.1553,711
1.156967,891
1.158633,634
1.1603,797
1.161967,955
1.163633,860
1.1653,738
1.166967,851
1.168633,719
1.1703,843
1.171967,587
1.173633,730
1.1753,711
1.176967,693
1.178633,727
1.1803,761
1.181967,868
1.183633,952
1.1853,925
1.186967,900
1.188633,787
1.1903,886
1.191967,960
1.193633,907
1.1953,1047
1.196967,1017
1.198633,916
