"SampleName","A2Rd2_01-91"
"Target Mass 1",
"Column Name","IA-3 (3um, 4.6X100)"
"Channel","QDa 1: SIR Ch2"
0.00195,508
0.003616667,548
0.005283333,622
0.00695,660
0.008616666,929
0.01028333,999
0.01195,865
0.01361667,864
0.01528333,744
0.01695,899
0.01861667,835
0.02028333,800
0.02195,1006
0.02361667,981
0.02528333,881
0.02695,934
0.02861667,828
0.03028333,849
0.03195,871
0.03361667,834
0.03528333,798
0.03695,761
0.03861667,940
0.04028333,1025
0.04195,929
0.04361667,1044
0.04528333,953
0.04695,875
0.04861667,960
0.05028334,996
0.05195,925
0.05361667,921
0.05528333,664
0.05695,1105
0.05861667,1047
0.06028333,857
0.06195,850
0.06361666,909
0.06528334,758
0.06695,789
0.06861667,786
0.07028333,783
0.07195,781
0.07361667,837
0.07528333,829
0.07695,821
0.07861666,835
0.08028334,850
0.08195,837
0.08361667,824
0.08528333,876
0.08695,883
0.08861667,890
0.09028333,759
0.09195,820
0.09361666,778
0.09528334,782
0.09695,914
0.09861667,948
0.1002833,1064
0.10195,992
0.1036167,857
0.1052833,764
0.10695,1002
0.1086167,941
0.1102833,748
0.11195,789
0.1136167,763
0.1152833,800
0.11695,891
0.1186167,913
0.1202833,789
0.12195,856
0.1236167,876
0.1252833,899
0.12695,871
0.1286167,878
0.1302833,885
0.13195,924
0.1336167,709
0.1352833,783
0.13695,873
0.1386167,895
0.1402833,902
0.14195,776
0.1436167,805
0.1452833,888
0.14695,814
0.1486167,980
0.1502833,952
0.15195,845
0.1536167,927
0.1552833,818
0.15695,802
0.1586167,852
0.1602833,821
0.16195,802
0.1636167,784
0.1652833,779
0.16695,774
0.1686167,796
0.1702833,817
0.17195,612
0.1736167,824
0.1752833,873
0.17695,832
0.1786167,872
0.1802833,964
0.18195,972
0.1836167,909
0.1852833,837
0.18695,631
0.1886167,720
0.1902833,825
0.19195,801
0.1936167,777
0.1952833,683
0.19695,733
0.1986167,765
0.2002833,825
0.20195,824
0.2036167,823
0.2052833,790
0.20695,756
0.2086167,870
0.2102833,826
0.21195,793
0.2136167,997
0.2152833,989
0.21695,1060
0.2186167,943
0.2202833,1025
0.22195,829
0.2236167,936
0.2252833,1042
0.22695,1172
0.2286333,1153
0.2302833,1070
0.23195,986
0.2336167,1068
0.2352833,1084
0.23695,1132
0.2386167,1200
0.2402833,1268
0.24195,1312
0.2436167,1090
0.2453,1092
0.24695,1140
0.2486167,1235
0.2503,1203
0.25195,1029
0.2536167,1019
0.2552833,979
0.25695,1239
0.2586167,1334
0.2602833,1165
0.26195,1261
0.2636333,1149
0.2652833,1352
0.26695,1017
0.2686167,1431
0.2702833,1136
0.27195,1179
0.2736167,950
0.2752833,1054
0.27695,1247
0.2786167,1047
0.2803,848
0.28195,952
0.2836167,919
0.2852833,935
0.28695,930
0.2886333,964
0.2902833,1001
0.29195,1038
0.2936167,1076
0.2952833,1115
0.2969667,978
0.2986333,1058
0.3003,970
0.30195,1181
0.3036167,1227
0.3053,991
0.30695,1288
0.3086167,990
0.3102833,1116
0.31195,1159
0.3136333,1259
0.3153,1243
0.31695,1173
0.3186333,1104
0.3202833,1164
0.3219667,1085
0.3236167,1157
0.3252833,1157
0.32695,1157
0.3286167,1151
0.3303,1146
0.33195,1205
0.3336333,1236
0.3353,1224
0.33695,1212
0.3386333,1119
0.3402833,1025
0.34195,1230
0.3436167,1287
0.3452833,1234
0.3469667,1303
0.3486333,1259
0.3503,1215
0.3519667,1216
0.3536333,1218
0.3553,1178
0.3569667,1138
0.3586333,1268
0.3603,1578
0.3619667,1597
0.3636333,1586
0.3653,2261
0.3669667,3139
0.3686333,3821
0.3703,4400
0.3719667,4132
0.3736333,4584
0.3753,4484
0.3769667,4348
0.3786333,4178
0.3803,3538
0.3819667,2890
0.3836333,2308
0.3853,2262
0.3869667,1961
0.3886333,1725
0.3903,1253
0.3919667,990
0.3936333,767
0.3953,815
0.3969667,741
0.3986333,613
0.4003,536
0.4019667,499
0.4036333,620
0.4053,573
0.4069667,616
0.4086333,658
0.4103,553
0.4119667,575
0.4136333,642
0.4153,581
0.4169667,521
0.4186333,815
0.4203,865
0.4219667,970
0.4236333,786
0.4253,921
0.4269667,793
0.4286333,962
0.4303,717
0.4319667,733
0.4336333,1062
0.4353,1039
0.4369667,1016
0.4386333,917
0.4403,1095
0.4419667,1084
0.4436333,955
0.4453,1114
0.4469667,1250
0.4486333,1247
0.4503,1108
0.4519667,1322
0.4536333,1262
0.4553,1316
0.4569667,1382
0.4586333,1318
0.4603,1253
0.4619667,1402
0.4636333,1415
0.4653,1327
0.4669667,1239
0.4686333,1338
0.4703,1337
0.4719667,1336
0.4736333,1384
0.4753,1432
0.4769667,1553
0.4786333,1607
0.4803,1275
0.4819667,1239
0.4836333,1321
0.4853,1287
0.4869667,1308
0.4886333,1089
0.4903,1224
0.4919667,989
0.4936333,1192
0.4953,1069
0.4969667,1175
0.4986333,1173
0.5003,1230
0.5019667,1196
0.5036333,1161
0.5053,956
0.5069667,985
0.5086333,906
0.5103,839
0.5119666,773
0.5136333,933
0.5153,1012
0.5169666,994
0.5186333,975
0.5203,848
0.5219667,861
0.5236334,721
0.5253,975
0.5269667,924
0.5286334,1015
0.5303,964
0.5319667,930
0.5336334,830
0.5353,890
0.5369667,865
0.5386333,890
0.5403,914
0.5419667,948
0.5436333,983
0.5453,834
0.5469667,944
0.5486333,1006
0.5503,1019
0.5519667,931
0.5536333,1029
0.5553,916
0.5569667,1026
0.5586333,941
0.5603,953
0.5619667,833
0.5636333,775
0.5653,824
0.5669667,767
0.5686333,762
0.5703,758
0.5719666,788
0.5736333,818
0.5753,873
0.5769666,934
0.5786333,962
0.5803,1006
0.5819666,986
0.5836333,966
0.5853,938
0.5869667,909
0.5886334,993
0.5903,923
0.5919667,854
0.5936334,947
0.5953,894
0.5969667,960
0.5986333,1026
0.6003,1092
0.6019667,1055
0.6036333,1017
0.6053,1075
0.6069667,884
0.6086333,886
0.6103,912
0.6119667,874
0.6136333,888
0.6153,870
0.6169667,894
0.6186333,679
0.6203,1039
0.6219667,950
0.6236333,917
0.6253,717
0.6269667,967
0.6286333,1066
0.6303,1047
0.6319667,961
0.6336333,955
0.6353,935
0.6369666,1028
0.6386333,775
0.6403,995
0.6419666,848
0.6436333,923
0.6453,726
0.6469667,1038
0.6486334,964
0.6503,818
0.6519667,855
0.6536334,851
0.6553,870
0.6569667,919
0.6586334,905
0.6603,924
0.6619667,944
0.6636333,819
0.6653,991
0.6669667,822
0.6686333,877
0.6703,789
0.6719667,913
0.6736333,909
0.6753,880
0.6769667,895
0.6786333,1047
0.6803,655
0.6819667,776
0.6836333,793
0.6853,723
0.6869667,773
0.6886333,895
0.6903,841
0.6919667,786
0.6936333,616
0.6953,767
0.6969666,749
0.6986333,880
0.7003,911
0.7019666,805
0.7036333,764
0.7053,848
0.7069666,802
0.7086333,834
0.7103,813
0.7119667,837
0.7136334,857
0.7153,877
0.7169667,860
0.7186334,843
0.7203,847
0.7219667,816
0.7236333,784
0.7253,843
0.7269667,816
0.7286333,789
0.7303,931
0.7319667,917
0.7336333,926
0.7353,951
0.7369667,764
0.7386333,834
0.7403,741
0.7419667,853
0.7436333,864
0.7453,856
0.7469667,670
0.7486333,810
0.7503,861
0.7519667,884
0.7536333,815
0.7553,744
0.7569667,957
0.7586333,936
0.7603,915
0.7619666,843
0.7636333,891
0.7653,926
0.7669666,888
0.7686333,915
0.7703,853
0.7719667,790
0.7736334,804
0.7753,817
0.7769667,802
0.7786334,786
0.7803,769
0.7819667,751
0.7836334,931
0.7853,889
0.7869667,792
0.7886333,878
0.7903,933
0.7919667,788
0.7936333,880
0.7953,979
0.7969667,859
0.7986333,955
0.8003,978
0.8019667,881
0.8036333,932
0.8053,802
0.8069667,671
0.8086333,1048
0.8103,992
0.8119667,1075
0.8136333,954
0.8153,834
0.8169667,980
0.8186333,880
0.8203,793
0.8219666,772
0.8236333,847
0.8253,814
0.8269666,781
0.8286333,863
0.8303,946
0.8319666,911
0.8336333,877
0.8353,928
0.8369667,980
0.8386334,797
0.8403,816
0.8419667,835
0.8436334,840
0.8453,828
0.8469667,816
0.8486333,894
0.8503,875
0.8519667,856
0.8536333,782
0.8553,756
0.8569667,729
0.8586333,721
0.8603,714
0.8619667,696
0.8636333,679
0.8653,789
0.8669667,826
0.8686333,863
0.8703,790
0.8719667,844
0.8736333,897
0.8753,942
0.8769667,905
0.8786333,868
0.8803,1007
0.8819667,1073
0.8836333,1180
0.8853,1220
0.8869666,1235
0.8886333,1254
0.8903,1074
0.8919666,1172
0.8936333,1103
0.8953,1132
0.8969667,1161
0.8986334,1188
0.9003,1170
0.9019667,1153
0.9036334,1017
0.9053,1124
0.9069667,1088
0.9086334,1116
0.9103,1081
0.9119667,1081
0.9136333,1035
0.9153,1086
0.9169667,1034
0.9186333,981
0.9203,1000
0.9219667,1024
0.9236333,1127
0.9253,1230
0.9269667,1091
0.9286333,952
0.9303,1151
0.9319667,1172
0.9336333,1283
0.9353,1212
0.9369667,905
0.9386333,1268
0.9403,1287
0.9419667,1126
0.9436333,1010
0.9453,931
0.9469666,1011
0.9486333,1006
0.9503,1002
0.9519666,1148
0.9536333,1195
0.9553,1100
0.9569666,1062
0.9586333,1199
0.9603,1141
0.9619667,1000
0.9636334,1158
0.9653,796
0.9669667,720
0.9686334,990
0.9703,1017
0.9719667,1002
0.9736333,858
0.9753,836
0.9769667,978
0.9786333,933
0.9803,919
0.9819667,1049
0.9836333,1121
0.9853,801
0.9869667,704
0.9886333,646
0.9903,862
0.9919667,815
0.9936333,773
0.9953,953
0.9969667,922
0.9986333,749
1.0003,832
1.001967,941
1.003633,719
1.0053,990
1.006967,935
1.008633,802
1.0103,792
1.011967,786
1.013633,779
1.0153,818
1.016967,899
1.018633,981
1.0203,911
1.021967,808
1.023633,856
1.0253,849
1.026967,735
1.028633,909
1.0303,859
1.031967,980
1.033633,977
1.0353,975
1.036967,796
1.038633,1013
1.0403,869
1.041967,783
1.043633,823
1.0453,792
1.046967,761
1.048633,881
1.0503,674
1.051967,885
1.053633,821
1.0553,798
1.056967,808
1.058633,817
1.0603,731
1.061967,852
1.063633,837
1.0653,822
1.066967,833
1.068633,844
1.0703,891
1.071967,921
1.073633,951
1.0753,801
1.076967,806
1.078633,812
1.0803,768
1.081967,723
1.083633,880
1.0853,916
1.086967,951
1.088633,830
1.0903,757
1.091967,747
1.093633,799
1.0953,884
1.096967,818
1.098633,751
1.1003,769
1.101967,860
1.103633,908
1.1053,844
1.106967,849
1.108633,793
1.1103,793
1.111967,792
1.113633,845
1.1153,817
1.116967,789
1.118633,767
1.1203,851
1.121967,853
1.123633,962
1.1253,944
1.126967,771
1.128633,799
1.1303,729
1.131967,899
1.133633,934
1.1353,884
1.136967,687
1.138633,903
1.1403,863
1.141967,775
1.143633,841
1.1453,788
1.146967,736
1.148633,705
1.1503,750
1.151967,793
1.153633,836
1.1553,646
1.156967,632
1.158633,888
1.1603,853
1.161967,722
1.163633,727
1.1653,743
1.166967,758
1.168633,798
1.1703,838
1.171967,899
1.173633,872
1.1753,745
1.176967,847
1.178633,731
1.1803,822
1.181967,773
1.183633,723
1.1853,771
1.186967,850
1.188633,930
1.1903,864
1.191967,815
1.193633,766
1.1953,764
1.196967,788
1.198633,786
