"SampleName","A2Rd2_01-57"
"Target Mass 1",
"Column Name","IA-3 (3um, 4.6X100)"
"Channel","QDa 1: SIR Ch2"
0.00195,566
0.003616667,847
0.005283333,623
0.00695,815
0.008616666,990
0.01028333,857
0.01195,860
0.01361667,863
0.01528333,760
0.01695,984
0.01861667,948
0.02028333,911
0.02195,1018
0.02361667,1025
0.02528333,1032
0.02695,932
0.02861667,1063
0.03028333,944
0.03195,813
0.03361667,955
0.03528333,987
0.03695,1020
0.03861667,969
0.04028333,1055
0.04195,1071
0.04361667,924
0.04528333,1083
0.04695,940
0.04861667,1007
0.05028334,915
0.05195,968
0.05361667,1021
0.05528333,1040
0.05695,933
0.05861667,898
0.06028333,915
0.06195,797
0.06361666,1002
0.06528334,940
0.06695,846
0.06861667,804
0.07028333,955
0.07195,937
0.07361667,990
0.07528333,989
0.07695,988
0.07861666,907
0.08028334,1036
0.08195,1050
0.08361667,816
0.08528333,857
0.08695,962
0.08861667,825
0.09028333,849
0.09195,873
0.09361666,955
0.09528334,918
0.09695,881
0.09861667,894
0.1002833,907
0.10195,909
0.1036167,911
0.1052833,974
0.10695,1032
0.1086167,1090
0.1102833,650
0.11195,1120
0.1136167,846
0.1152833,842
0.11695,1107
0.1186167,1050
0.1202833,1034
0.12195,828
0.1236167,1061
0.1252833,855
0.12695,986
0.1286167,872
0.1302833,967
0.13195,925
0.1336167,782
0.1352833,944
0.13695,871
0.1386167,935
0.1402833,1011
0.14195,971
0.1436167,897
0.1452833,943
0.14695,988
0.1486167,1015
0.1502833,1053
0.15195,1084
0.1536167,939
0.1552833,932
0.15695,1091
0.1586167,1025
0.1602833,1049
0.16195,964
0.1636167,1063
0.1652833,1044
0.16695,897
0.1686167,1030
0.1702833,992
0.17195,1088
0.1736167,822
0.1752833,1024
0.17695,873
0.1786167,1156
0.1802833,1056
0.18195,965
0.1836167,1104
0.1852833,929
0.18695,906
0.1886167,882
0.1902833,847
0.19195,1006
0.1936167,1039
0.1952833,749
0.19695,1136
0.1986167,869
0.2002833,1063
0.20195,899
0.2036167,900
0.2052833,1137
0.20695,1019
0.2086167,979
0.2102833,874
0.21195,991
0.2136167,1031
0.2152833,978
0.21695,1009
0.2186167,1041
0.2202833,868
0.22195,1014
0.2236167,957
0.2252833,900
0.22695,953
0.2286167,1005
0.2302833,1026
0.23195,1085
0.2336167,1067
0.2353,1048
0.23695,1105
0.2386167,1162
0.2402833,1167
0.24195,1375
0.2436167,1353
0.2453,1464
0.24695,1238
0.2486167,1267
0.2502833,1182
0.25195,1086
0.2536167,1167
0.2552833,1298
0.25695,959
0.2586167,1359
0.2602833,1257
0.26195,1204
0.2636333,1089
0.2652833,1006
0.26695,1147
0.2686167,950
0.2702833,1187
0.27195,1117
0.2736333,1125
0.2752833,1066
0.27695,1050
0.2786167,1033
0.2803,980
0.28195,1009
0.2836167,1002
0.2852833,1067
0.28695,1120
0.2886167,1137
0.2903,982
0.29195,1003
0.2936167,1096
0.2952833,1096
0.29695,1096
0.2986333,1074
0.3002833,1051
0.30195,1100
0.3036333,1104
0.3052833,1107
0.3069667,1168
0.3086167,1202
0.3102833,1237
0.31195,1447
0.3136333,1352
0.3153,1257
0.3169667,1276
0.3186167,1174
0.3203,1131
0.3219667,1241
0.3236333,1150
0.3252833,1054
0.32695,1288
0.3286167,1193
0.3303,1272
0.33195,1374
0.3336333,1527
0.3352833,1428
0.3369667,1050
0.3386333,1416
0.3403,1594
0.34195,1429
0.3436167,1410
0.3452833,1170
0.3469667,1372
0.3486333,1376
0.3503,1165
0.35195,1671
0.3536333,1646
0.3553,1276
0.3569667,1278
0.3586167,1511
0.3602833,1455
0.36195,1420
0.3636333,1835
0.3653,2727
0.3669667,4017
0.3686333,4130
0.3703,4892
0.3719667,5815
0.3736333,5272
0.3753,4172
0.37695,3591
0.3786333,3123
0.3803,2713
0.3819667,1882
0.3836333,1491
0.3853,1156
0.3869667,630
0.3886333,535
0.3903,530
0.3919667,440
0.3936333,456
0.3953,471
0.3969667,487
0.3986333,430
0.4003,452
0.4019667,529
0.4036333,606
0.4053,581
0.4069667,599
0.4086333,659
0.4103,856
0.4119667,993
0.4136333,962
0.4153,931
0.4169667,964
0.4186333,984
0.4203,1003
0.4219667,1175
0.4236333,1181
0.4253,1087
0.4269667,1001
0.4286333,1095
0.4303,866
0.4319667,1016
0.4336333,1010
0.4353,1003
0.4369667,1154
0.4386333,1261
0.4403,1154
0.4419667,1435
0.4436333,1367
0.4453,1325
0.4469667,1472
0.4486333,1438
0.4503,1403
0.4519667,1369
0.4536333,1445
0.4553,1520
0.4569667,1725
0.4586333,1714
0.4603,1395
0.4619667,1778
0.4636333,1785
0.4653,1807
0.4669667,1749
0.4686333,1438
0.4703,1565
0.4719667,1697
0.4736333,1392
0.4753,1717
0.4769667,1395
0.4786333,1410
0.4803,1261
0.4819667,1343
0.4836333,1425
0.4853,1386
0.4869667,1374
0.4886333,1246
0.4903,1291
0.4919667,1261
0.4936333,1299
0.4953,1117
0.4969667,1223
0.4986333,1099
0.5003,1084
0.5019667,1069
0.5036333,998
0.5053,917
0.5069667,954
0.5086333,910
0.5103,1009
0.5119666,1160
0.5136333,1117
0.5153,863
0.5169666,1007
0.5186333,960
0.5203,993
0.5219667,931
0.5236334,979
0.5253,968
0.5269667,957
0.5286334,1117
0.5303,1209
0.5319667,1228
0.5336334,1169
0.5353,1181
0.5369667,928
0.5386333,1027
0.5403,893
0.5419667,1191
0.5436333,1344
0.5453,1151
0.5469667,881
0.5486333,1061
0.5503,1007
0.5519667,1182
0.5536333,1102
0.5553,1188
0.5569667,943
0.5586333,1073
0.5603,1142
0.5619667,944
0.5636333,1091
0.5653,999
0.5669667,1002
0.5686333,998
0.5703,834
0.5719666,971
0.5736333,972
0.5753,813
0.5769666,837
0.5786333,820
0.5803,989
0.5819666,1019
0.5836333,996
0.5853,1114
0.5869667,1114
0.5886334,1101
0.5903,1064
0.5919667,1026
0.5936334,1078
0.5953,1034
0.5969667,1015
0.5986333,990
0.6003,938
0.6019667,959
0.6036333,980
0.6053,949
0.6069667,1078
0.6086333,1034
0.6103,990
0.6119667,1154
0.6136333,1168
0.6153,1199
0.6169667,1272
0.6186333,977
0.6203,1147
0.6219667,1310
0.6236333,1557
0.6253,1575
0.6269667,1070
0.6286333,1303
0.6303,1486
0.6319667,1419
0.6336333,1309
0.6353,1482
0.6369666,1564
0.6386333,1635
0.6403,1211
0.6419666,1261
0.6436333,1490
0.6453,1252
0.6469667,1080
0.6486334,1146
0.6503,1095
0.6519667,1214
0.6536334,1135
0.6553,1057
0.6569667,1001
0.6586334,1147
0.6603,1170
0.6619667,1077
0.6636333,953
0.6653,1085
0.6669667,1109
0.6686333,1222
0.6703,844
0.6719667,866
0.6736333,1245
0.6753,1163
0.6769667,1155
0.6786333,1218
0.6803,1260
0.6819667,1063
0.6836333,1530
0.6853,1447
0.6869667,1731
0.6886333,2154
0.6903,2252
0.6919667,2353
0.6936333,2716
0.6953,2984
0.6969666,3075
0.6986333,3862
0.7003,4525
0.7019666,4806
0.7036333,5170
0.7053,5587
0.7069666,6142
0.7086333,5743
0.7103,6240
0.7119667,6419
0.7136334,6484
0.7153,6511
0.7169667,6686
0.7186334,6539
0.7203,6393
0.7219667,6614
0.7236333,6026
0.7253,5440
0.7269667,5213
0.7286333,4754
0.7303,4789
0.7319667,3833
0.7336333,3246
0.7353,2697
0.7369667,2935
0.7386333,2518
0.7403,2345
0.7419667,1931
0.7436333,1862
0.7453,1899
0.7469667,1585
0.7486333,1545
0.7503,1504
0.7519667,1613
0.7536333,1213
0.7553,1072
0.7569667,1264
0.7586333,1296
0.7603,1232
0.7619666,901
0.7636333,1275
0.7653,1051
0.7669666,1057
0.7686333,1056
0.7703,960
0.7719667,1144
0.7736334,1079
0.7753,1414
0.7769667,1373
0.7786334,1121
0.7803,1439
0.7819667,1478
0.7836334,1681
0.7853,2003
0.7869667,2249
0.7886333,2682
0.7903,3338
0.7919667,3563
0.7936333,3922
0.7953,5144
0.7969667,5070
0.7986333,6720
0.8003,7190
0.8019667,7586
0.8036333,8760
0.8053,9008
0.8069667,9948
0.8086333,10540
0.8103,11776
0.8119667,12252
0.8136333,12476
0.8153,12900
0.8169667,13472
0.8186333,14676
0.8203,14576
0.8219666,14436
0.8236333,14512
0.8253,13928
0.8269666,13448
0.8286333,11896
0.8303,10920
0.8319666,10052
0.8336333,8920
0.8353,8122
0.8369667,6909
0.8386334,6507
0.8403,5935
0.8419667,4997
0.8436334,4140
0.8453,3605
0.8469667,3229
0.8486333,2571
0.8503,2824
0.8519667,2471
0.8536333,1931
0.8553,1718
0.8569667,1907
0.8586333,2205
0.8603,2089
0.8619667,2421
0.8636333,2297
0.8653,2542
0.8669667,2877
0.8686333,3077
0.8703,2890
0.8719667,2729
0.8736333,2866
0.8753,2920
0.8769667,2351
0.8786333,2579
0.8803,2548
0.8819667,2548
0.8836333,2400
0.8853,2282
0.8869666,2206
0.8886333,2307
0.8903,2286
0.8919666,2266
0.8936333,2184
0.8953,2169
0.8969667,2060
0.8986334,1826
0.9003,1850
0.9019667,2093
0.9036334,2079
0.9053,2060
0.9069667,2064
0.9086334,2069
0.9103,2004
0.9119667,1939
0.9136333,2078
0.9153,1994
0.9169667,2113
0.9186333,2096
0.9203,2230
0.9219667,1892
0.9236333,2078
0.9253,2085
0.9269667,1987
0.9286333,1799
0.9303,1986
0.9319667,1839
0.9336333,1749
0.9353,1992
0.9369667,1940
0.9386333,1522
0.9403,1744
0.9419667,1921
0.9436333,1847
0.9453,1687
0.9469666,1696
0.9486333,1615
0.9503,1770
0.9519666,1873
0.9536333,1828
0.9553,1832
0.9569666,1836
0.9586333,1734
0.9603,1960
0.9619667,2652
0.9636334,2605
0.9653,2728
0.9669667,3114
0.9686334,3586
0.9703,3617
0.9719667,4157
0.9736333,5013
0.9753,5574
0.9769667,6179
0.9786333,7269
0.9803,7480
0.9819667,8328
0.9836333,9216
0.9853,10896
0.9869667,11268
0.9886333,12392
0.9903,13900
0.9919667,14464
0.9936333,15252
0.9953,16060
0.9969667,17592
0.9986333,18036
1.0003,18696
1.001967,19688
1.003633,21296
1.0053,20376
1.006967,21300
1.008633,21568
1.0103,21840
1.011967,20680
1.013633,20596
1.0153,20176
1.016967,19592
1.018633,17408
1.0203,16300
1.021967,15296
1.023633,14524
1.0253,13312
1.026967,12312
1.028633,11296
1.0303,10204
1.031967,8644
1.033633,7313
1.0353,7261
1.036967,6273
1.038633,6048
1.0403,4917
1.041967,4863
1.043633,4795
1.0453,4510
1.046967,3860
1.048633,3699
1.0503,3615
1.051967,3422
1.053633,3353
1.0553,3339
1.056967,2844
1.058633,3243
1.0603,3126
1.061967,2960
1.063633,2589
1.0653,2817
1.066967,3054
1.068633,2802
1.0703,2679
1.071967,2956
1.073633,2821
1.0753,2757
1.076967,2753
1.078633,2876
1.0803,3149
1.081967,3420
1.083633,3472
1.0853,3488
1.086967,3506
1.088633,3523
1.0903,3634
1.091967,4075
1.093633,4183
1.0953,3800
1.096967,4046
1.098633,4034
1.1003,4704
1.101967,4554
1.103633,4141
1.1053,5067
1.106967,3965
1.108633,4637
1.1103,4657
1.111967,4851
1.113633,3990
1.1153,4022
1.116967,4136
1.118633,3765
1.1203,3550
1.121967,3101
1.123633,3211
1.1253,3116
1.126967,3185
1.128633,2823
1.1303,2454
1.131967,2626
1.133633,2726
1.1353,2354
1.136967,2353
1.138633,1770
1.1403,2148
1.141967,1826
1.143633,1782
1.1453,1437
1.146967,1721
1.148633,1449
1.1503,1679
1.151967,1613
1.153633,1248
1.1553,1376
1.156967,1596
1.158633,1405
1.1603,1176
1.161967,1165
1.163633,1368
1.1653,1308
1.166967,1268
1.168633,1199
1.1703,1361
1.171967,1375
1.173633,1407
1.1753,1147
1.176967,1205
1.178633,1240
1.1803,960
1.181967,1058
1.183633,1042
1.1853,1098
1.186967,1222
1.188633,1090
1.1903,957
1.191967,947
1.193633,1035
1.1953,1156
1.196967,1236
1.198633,1383
