"SampleName","A2Rd2_01-73"
"Target Mass 1",
"Column Name","IA-3 (3um, 4.6X100)"
"Channel","QDa 1: SIR Ch2"
0.00195,658
0.003616667,623
0.005283333,808
0.00695,597
0.008616666,750
0.01028333,907
0.01195,702
0.01361667,740
0.01528333,778
0.01695,920
0.01861667,1007
0.02028333,1090
0.02195,961
0.02361667,980
0.02528333,830
0.02695,594
0.02861667,789
0.03028333,795
0.03195,784
0.03361667,835
0.03528333,900
0.03695,884
0.03861667,880
0.04028333,881
0.04195,928
0.04361667,927
0.04528333,908
0.04695,918
0.04861667,928
0.05028334,999
0.05195,1007
0.05361667,876
0.05528333,1029
0.05695,915
0.05861667,849
0.06028333,823
0.06195,906
0.06361666,875
0.06528334,843
0.06695,859
0.06861667,854
0.07028333,849
0.07195,852
0.07361667,854
0.07528333,869
0.07695,884
0.07861666,874
0.08028334,846
0.08195,857
0.08361667,869
0.08528333,733
0.08695,593
0.08861667,985
0.09028333,779
0.09195,838
0.09361666,796
0.09528334,773
0.09695,750
0.09861667,750
0.1002833,737
0.10195,725
0.1036167,653
0.1052833,580
0.10695,696
0.1086167,812
0.1102833,1093
0.11195,1006
0.1136167,949
0.1152833,911
0.11695,916
0.1186167,821
0.1202833,738
0.12195,945
0.1236167,835
0.1252833,843
0.12695,885
0.1286167,851
0.1302833,817
0.13195,899
0.1336167,798
0.1352833,818
0.13695,839
0.1386167,765
0.1402833,789
0.14195,813
0.1436167,863
0.1452833,860
0.14695,856
0.1486167,872
0.1502833,677
0.15195,957
0.1536167,854
0.1552833,832
0.15695,998
0.1586167,783
0.1602833,852
0.16195,847
0.1636167,900
0.1652833,845
0.16695,873
0.1686167,901
0.1702833,822
0.17195,805
0.1736167,787
0.1752833,830
0.17695,830
0.1786167,829
0.1802833,746
0.18195,817
0.1836167,809
0.1852833,800
0.18695,896
0.1886167,701
0.1902833,744
0.19195,970
0.1936167,1014
0.1952833,909
0.19695,854
0.1986167,895
0.2002833,723
0.20195,806
0.2036167,863
0.2052833,915
0.20695,981
0.2086167,961
0.2102833,920
0.21195,1077
0.2136167,804
0.2152833,950
0.21695,981
0.2186167,951
0.2202833,922
0.22195,997
0.2236167,923
0.2252833,1133
0.22695,1156
0.2286167,961
0.2302833,1030
0.23195,1145
0.2336167,1073
0.2352833,1002
0.23695,1150
0.2386167,958
0.2402833,1148
0.24195,1030
0.2436167,1121
0.2452833,1211
0.24695,958
0.2486167,1275
0.2502833,1116
0.25195,1141
0.2536167,1135
0.2552833,1208
0.25695,990
0.2586167,1016
0.2602833,1011
0.26195,1176
0.2636333,1173
0.2652833,1005
0.26695,1141
0.2686167,962
0.2702833,902
0.27195,941
0.2736167,980
0.2752833,953
0.27695,893
0.2786167,832
0.2803,833
0.28195,834
0.2836167,854
0.2852833,1019
0.28695,1023
0.2886167,1154
0.2902833,1112
0.29195,1155
0.2936167,973
0.2952833,1104
0.29695,1046
0.2986333,1111
0.3002833,1110
0.30195,1041
0.3036167,1049
0.3052833,1286
0.30695,1242
0.3086167,1331
0.3102833,1210
0.3119667,1193
0.3136167,1361
0.3153,1271
0.31695,1181
0.3186167,1220
0.3202833,1176
0.32195,1268
0.3236167,1297
0.3252833,1252
0.32695,1265
0.3286167,1258
0.3302833,1084
0.33195,1320
0.3336333,1080
0.3352833,972
0.3369667,1296
0.3386167,1049
0.3402833,1263
0.34195,1094
0.3436167,1140
0.3452833,1142
0.3469667,1145
0.3486167,1231
0.3503,1317
0.35195,1248
0.3536167,1178
0.3553,1453
0.3569667,1382
0.3586167,1416
0.3602833,1467
0.36195,1447
0.3636333,1520
0.3653,2617
0.36695,4032
0.3686333,4334
0.3703,4554
0.3719667,5098
0.3736333,5096
0.3753,5095
0.37695,5214
0.3786333,4478
0.3803,3846
0.3819667,3132
0.3836167,2360
0.3853,1984
0.38695,1639
0.3886333,1363
0.3903,1210
0.3919667,1203
0.3936167,696
0.3953,657
0.3969667,538
0.3986333,678
0.4002833,463
0.4019667,539
0.4036333,449
0.4053,605
0.4069667,603
0.4086333,700
0.4102833,635
0.4119667,571
0.4136333,762
0.4153,757
0.41695,686
0.4186333,702
0.4203,720
0.4219667,692
0.4236333,739
0.4253,680
0.4269667,621
0.4286333,793
0.4303,839
0.4319667,903
0.4336333,860
0.4353,946
0.4369667,776
0.4386333,863
0.4403,1051
0.4419667,967
0.4436333,1005
0.4453,1077
0.4469667,982
0.4486333,1129
0.4503,1316
0.4519667,1300
0.4536333,1232
0.4553,1118
0.4569667,1155
0.4586333,1192
0.4603,1187
0.4619667,1229
0.4636333,1272
0.4653,1500
0.4669667,1437
0.4686333,1374
0.4703,1372
0.4719667,1370
0.4736333,1349
0.4753,1399
0.4769667,1369
0.4786333,1339
0.4803,1299
0.4819667,1258
0.4836333,1090
0.4853,1093
0.4869667,1254
0.4886333,1217
0.4903,1174
0.4919667,1063
0.4936333,1113
0.4953,1061
0.4969667,769
0.4986333,939
0.5003,1050
0.5019667,1051
0.5036333,1051
0.5053,1051
0.5069667,1028
0.5086333,1044
0.5103,1000
0.5119666,999
0.5136333,780
0.5153,833
0.5169666,857
0.5186333,881
0.5203,1027
0.5219667,1009
0.5236334,788
0.5253,1079
0.5269667,969
0.5286334,825
0.5303,833
0.5319667,852
0.5336334,790
0.5353,837
0.5369667,923
0.5386333,931
0.5403,1043
0.5419667,1127
0.5436333,810
0.5453,890
0.5469667,934
0.5486333,953
0.5503,1063
0.5519667,1058
0.5536333,1053
0.5553,1018
0.5569667,1153
0.5586333,899
0.5603,775
0.5619667,770
0.5636333,970
0.5653,957
0.5669667,1003
0.5686333,973
0.5703,899
0.5719666,898
0.5736333,879
0.5753,846
0.5769666,814
0.5786333,933
0.5803,912
0.5819666,979
0.5836333,779
0.5853,1067
0.5869667,907
0.5886334,980
0.5903,875
0.5919667,1018
0.5936334,1060
0.5953,1101
0.5969667,1020
0.5986333,942
0.6003,1001
0.6019667,963
0.6036333,1014
0.6053,962
0.6069667,893
0.6086333,954
0.6103,1014
0.6119667,848
0.6136333,843
0.6153,898
0.6169667,852
0.6186333,785
0.6203,1003
0.6219667,947
0.6236333,990
0.6253,953
0.6269667,916
0.6286333,939
0.6303,965
0.6319667,817
0.6336333,931
0.6353,913
0.6369666,841
0.6386333,866
0.6403,893
0.6419666,941
0.6436333,886
0.6453,831
0.6469667,875
0.6486334,879
0.6503,883
0.6519667,851
0.6536334,820
0.6553,855
0.6569667,877
0.6586334,899
0.6603,791
0.6619667,860
0.6636333,756
0.6653,662
0.6669667,882
0.6686333,814
0.6703,788
0.6719667,762
0.6736333,825
0.6753,830
0.6769667,708
0.6786333,667
0.6803,627
0.6819667,938
0.6836333,865
0.6853,960
0.6869667,871
0.6886333,945
0.6903,1002
0.6919667,955
0.6936333,984
0.6953,948
0.6969666,873
0.6986333,920
0.7003,919
0.7019666,949
0.7036333,933
0.7053,918
0.7069666,877
0.7086333,837
0.7103,852
0.7119667,868
0.7136334,1040
0.7153,1087
0.7169667,1059
0.7186334,1132
0.7203,901
0.7219667,1004
0.7236333,1017
0.7253,988
0.7269667,829
0.7286333,940
0.7303,889
0.7319667,992
0.7336333,1029
0.7353,709
0.7369667,868
0.7386333,854
0.7403,727
0.7419667,883
0.7436333,821
0.7453,759
0.7469667,713
0.7486333,748
0.7503,783
0.7519667,846
0.7536333,771
0.7553,696
0.7569667,854
0.7586333,798
0.7603,906
0.7619666,663
0.7636333,835
0.7653,900
0.7669666,932
0.7686333,931
0.7703,634
0.7719667,1000
0.7736334,797
0.7753,708
0.7769667,872
0.7786334,840
0.7803,808
0.7819667,712
0.7836334,867
0.7853,849
0.7869667,831
0.7886333,835
0.7903,839
0.7919667,854
0.7936333,870
0.7953,1007
0.7969667,1039
0.7986333,1091
0.8003,889
0.8019667,1143
0.8036333,888
0.8053,965
0.8069667,1241
0.8086333,1374
0.8103,1233
0.8119667,1340
0.8136333,1101
0.8153,1277
0.8169667,1333
0.8186333,1345
0.8203,1225
0.8219666,1439
0.8236333,1350
0.8253,1183
0.8269666,1225
0.8286333,1221
0.8303,1182
0.8319666,1227
0.8336333,1058
0.8353,1110
0.8369667,884
0.8386334,860
0.8403,1091
0.8419667,901
0.8436334,859
0.8453,839
0.8469667,862
0.8486333,854
0.8503,846
0.8519667,849
0.8536333,958
0.8553,950
0.8569667,1019
0.8586333,806
0.8603,825
0.8619667,882
0.8636333,866
0.8653,829
0.8669667,851
0.8686333,873
0.8703,926
0.8719667,594
0.8736333,825
0.8753,1078
0.8769667,844
0.8786333,1031
0.8803,885
0.8819667,960
0.8836333,1034
0.8853,1405
0.8869666,1416
0.8886333,1321
0.8903,1173
0.8919666,1057
0.8936333,1419
0.8953,1434
0.8969667,1349
0.8986334,1242
0.9003,1113
0.9019667,1123
0.9036334,1230
0.9053,1120
0.9069667,1001
0.9086334,1063
0.9103,1276
0.9119667,1236
0.9136333,1270
0.9153,1133
0.9169667,1299
0.9186333,1371
0.9203,1121
0.9219667,1023
0.9236333,1194
0.9253,1158
0.9269667,1148
0.9286333,1139
0.9303,1180
0.9319667,1222
0.9336333,1264
0.9353,1037
0.9369667,1098
0.9386333,1160
0.9403,1173
0.9419667,1187
0.9436333,1258
0.9453,1255
0.9469666,1251
0.9486333,1184
0.9503,1092
0.9519666,1216
0.9536333,1276
0.9553,1033
0.9569666,1121
0.9586333,1071
0.9603,990
0.9619667,996
0.9636334,922
0.9653,958
0.9669667,1134
0.9686334,1122
0.9703,1021
0.9719667,958
0.9736333,990
0.9753,895
0.9769667,667
0.9786333,1003
0.9803,820
0.9819667,1023
0.9836333,946
0.9853,847
0.9869667,824
0.9886333,911
0.9903,950
0.9919667,989
0.9936333,976
0.9953,1111
0.9969667,1075
0.9986333,1026
1.0003,976
1.001967,1054
1.003633,1008
1.0053,815
1.006967,1027
1.008633,1229
1.0103,1142
1.011967,1055
1.013633,1083
1.0153,1111
1.016967,1097
1.018633,1083
1.0203,1137
1.021967,957
1.023633,1034
1.0253,1160
1.026967,1127
1.028633,930
1.0303,1103
1.031967,1112
1.033633,1189
1.0353,1012
1.036967,1131
1.038633,901
1.0403,1132
1.041967,1054
1.043633,980
1.0453,1013
1.046967,956
1.048633,935
1.0503,1081
1.051967,762
1.053633,1160
1.0553,1017
1.056967,922
1.058633,948
1.0603,1018
1.061967,1011
1.063633,963
1.0653,946
1.066967,928
1.068633,956
1.0703,946
1.071967,887
1.073633,841
1.0753,1098
1.076967,1053
1.078633,1008
1.0803,1097
1.081967,843
1.083633,915
1.0853,994
1.086967,856
1.088633,810
1.0903,1070
1.091967,1077
1.093633,1114
1.0953,1068
1.096967,1021
1.098633,907
1.1003,1157
1.101967,792
1.103633,1099
1.1053,1030
1.106967,1039
1.108633,1001
1.1103,1045
1.111967,794
1.113633,998
1.1153,1005
1.116967,1033
1.118633,893
1.1203,876
1.121967,967
1.123633,935
1.1253,903
1.126967,845
1.128633,881
1.1303,942
1.131967,785
1.133633,835
1.1353,809
1.136967,827
1.138633,830
1.1403,833
1.141967,805
1.143633,777
1.1453,823
1.146967,802
1.148633,782
1.1503,797
1.151967,812
1.153633,882
1.1553,905
1.156967,732
1.158633,762
1.1603,787
1.161967,569
1.163633,865
1.1653,868
1.166967,660
1.168633,752
1.1703,854
1.171967,717
1.173633,812
1.1753,777
1.176967,829
1.178633,830
1.1803,831
1.181967,695
1.183633,915
1.1853,735
1.186967,598
1.188633,863
1.1903,912
1.191967,922
1.193633,679
1.1953,908
1.196967,688
1.198633,981
