"SampleName","A2Rd2_01-96"
"Target Mass 1",
"Column Name","IA-3 (3um, 4.6X100)"
"Channel","QDa 1: SIR Ch1"
0.00195,323
0.003616667,397
0.005283333,564
0.00695,569
0.008616666,643
0.01028333,579
0.01195,525
0.01361667,532
0.01528333,547
0.01695,543
0.01861667,442
0.02028333,466
0.02195,490
0.02361667,484
0.02528333,542
0.02695,557
0.02861667,564
0.03028333,577
0.03195,590
0.03361667,524
0.03528333,465
0.03695,482
0.03861667,420
0.04028333,471
0.04195,523
0.04361667,585
0.04528333,652
0.04695,569
0.04861667,487
0.05028334,532
0.05195,490
0.05361667,447
0.05528333,657
0.05695,610
0.05861667,586
0.06028333,567
0.06195,554
0.06361666,555
0.06528334,557
0.06695,498
0.06861667,558
0.07028333,510
0.07195,602
0.07361667,602
0.07528333,601
0.07695,479
0.07861666,701
0.08028334,596
0.08195,708
0.08361667,612
0.08528333,586
0.08695,439
0.08861667,488
0.09028333,587
0.09195,553
0.09361666,611
0.09528334,437
0.09695,564
0.09861667,532
0.1002833,499
0.10195,498
0.1036167,524
0.1052833,513
0.10695,493
0.1086167,424
0.1102833,430
0.11195,436
0.1136167,443
0.1152833,461
0.11695,613
0.1186167,584
0.1202833,579
0.12195,428
0.1236167,684
0.1252833,463
0.12695,620
0.1286167,600
0.1302833,481
0.13195,482
0.1336167,605
0.1352833,564
0.13695,536
0.1386167,559
0.1402833,582
0.14195,421
0.1436167,595
0.1452833,394
0.14695,516
0.1486167,372
0.1502833,344
0.15195,467
0.1536167,598
0.1552833,525
0.15695,470
0.1586167,414
0.1602833,478
0.16195,495
0.1636167,555
0.1652833,511
0.16695,507
0.1686167,503
0.1702833,415
0.17195,455
0.1736167,495
0.1752833,444
0.17695,394
0.1786167,404
0.1802833,415
0.18195,353
0.1836167,521
0.1852833,534
0.18695,545
0.1886167,573
0.1902833,680
0.19195,659
0.1936167,518
0.1952833,491
0.19695,376
0.1986167,507
0.2002833,478
0.20195,457
0.2036167,437
0.2052833,416
0.20695,479
0.2086167,483
0.2102833,487
0.21195,574
0.2136167,533
0.2152833,493
0.21695,473
0.2186167,487
0.2202833,501
0.22195,505
0.2236167,508
0.2252833,495
0.22695,481
0.2286167,464
0.2302833,447
0.23195,475
0.2336167,468
0.2352833,461
0.23695,488
0.2386167,368
0.2402833,601
0.24195,562
0.2436167,469
0.2452833,545
0.24695,481
0.2486167,399
0.2502833,631
0.25195,557
0.2536167,426
0.2552833,582
0.25695,524
0.2586167,614
0.2602833,452
0.26195,539
0.2636167,569
0.2652833,545
0.26695,436
0.2686167,513
0.2702833,382
0.27195,533
0.2736167,399
0.2752833,417
0.27695,523
0.2786167,465
0.2803,408
0.28195,447
0.2836167,638
0.2852833,606
0.28695,612
0.2886333,551
0.2902833,612
0.2919667,638
0.2936167,528
0.2952833,483
0.29695,527
0.2986333,380
0.3002833,598
0.30195,554
0.3036167,704
0.3053,415
0.30695,577
0.3086167,656
0.3102833,532
0.31195,559
0.3136167,530
0.3153,450
0.31695,535
0.3186167,561
0.3202833,549
0.32195,547
0.3236167,545
0.3252833,567
0.32695,570
0.3286167,572
0.3302833,560
0.33195,566
0.3336333,646
0.3352833,637
0.33695,435
0.3386333,507
0.3402833,550
0.3419667,525
0.3436167,560
0.3452833,466
0.3469667,441
0.3486333,596
0.3503,476
0.35195,513
0.3536333,548
0.3553,503
0.3569667,519
0.3586167,535
0.3602833,591
0.36195,634
0.3636333,692
0.3652833,1147
0.36695,1685
0.3686333,2880
0.3702833,3242
0.3719667,3940
0.3736333,4981
0.3752833,5650
0.37695,5807
0.3786167,5907
0.3803,6007
0.38195,5115
0.3836167,5273
0.3853,4535
0.3869667,4055
0.3886333,4048
0.3902833,3552
0.3919667,2797
0.3936167,2569
0.3952833,1804
0.3969667,1496
0.3986167,1479
0.4002833,1395
0.40195,1444
0.4036333,1352
0.4053,1388
0.4069667,1440
0.4086333,1372
0.4103,1304
0.41195,1505
0.4136333,1469
0.4152833,1434
0.41695,1846
0.4186167,1762
0.4203,1750
0.4219667,1837
0.4236333,1602
0.4253,1740
0.4269667,1913
0.4286167,1648
0.4303,1579
0.4319667,1615
0.4336167,1526
0.4352833,1995
0.43695,2611
0.4386333,3290
0.4403,5245
0.4419667,8524
0.4436333,13872
0.4453,21016
0.4469667,32448
0.4486333,48704
0.4503,65648
0.4519667,87120
0.4536333,114992
0.4553,139328
0.4569667,164096
0.4586333,191360
0.4603,212992
0.4619667,240320
0.4636333,261248
0.4653,279168
0.4669667,300672
0.4686333,329664
0.4703,346880
0.4719667,373248
0.4736333,392128
0.4753,410880
0.4769667,409600
0.4786333,403200
0.4803,398464
0.4819667,379392
0.4836333,352128
0.4853,316480
0.4869667,279104
0.4886333,236160
0.4903,198848
0.4919667,167168
0.4936333,137344
0.4953,110288
0.4969667,91136
0.4986333,68048
0.5003,55312
0.5019667,43040
0.5036333,33760
0.5053,26620
0.5069667,21244
0.5086333,18308
0.5103,15384
0.5119666,12324
0.5136333,11192
0.5153,9608
0.5169666,7879
0.5186333,7997
0.5203,6960
0.5219667,6209
0.5236334,5750
0.5253,5771
0.5269667,5718
0.5286334,5081
0.5303,5165
0.5319667,4335
0.5336334,4336
0.5353,3956
0.5369667,4036
0.5386333,3859
0.5403,3620
0.5419667,3608
0.5436333,3709
0.5453,3322
0.5469667,3231
0.5486333,2872
0.5503,3062
0.5519667,2620
0.5536333,2739
0.5553,2873
0.5569667,2801
0.5586333,2498
0.5603,2620
0.5619667,2326
0.5636333,2357
0.5653,2242
0.5669667,2347
0.5686333,2161
0.5703,2193
0.5719666,2056
0.5736333,1741
0.5753,1765
0.5769666,1745
0.5786333,1690
0.5803,1674
0.5819666,1657
0.5836333,1662
0.5853,1795
0.5869667,1762
0.5886334,1740
0.5903,1756
0.5919667,1606
0.5936334,1747
0.5953,1614
0.5969667,1518
0.5986333,1943
0.6003,1923
0.6019667,1763
0.6036333,1402
0.6053,1620
0.6069667,1423
0.6086333,1537
0.6103,1545
0.6119667,1479
0.6136333,1497
0.6153,1542
0.6169667,1501
0.6186333,1460
0.6203,1409
0.6219667,1407
0.6236333,1398
0.6253,1381
0.6269667,1364
0.6286333,1283
0.6303,1144
0.6319667,1430
0.6336333,1404
0.6353,1362
0.6369666,1251
0.6386333,1234
0.6403,1219
0.6419666,942
0.6436333,980
0.6453,1129
0.6469667,1070
0.6486334,1050
0.6503,1023
0.6519667,987
0.6536334,984
0.6553,857
0.6569667,1011
0.6586334,1039
0.6603,1015
0.6619667,983
0.6636333,951
0.6653,988
0.6669667,1025
0.6686333,797
0.6703,855
0.6719667,1116
0.6736333,1105
0.6753,925
0.6769667,738
0.6786333,1179
0.6803,720
0.6819667,1038
0.6836333,924
0.6853,1090
0.6869667,911
0.6886333,970
0.6903,716
0.6919667,969
0.6936333,901
0.6953,945
0.6969666,690
0.6986333,889
0.7003,811
0.7019666,884
0.7036333,826
0.7053,815
0.7069666,711
0.7086333,786
0.7103,749
0.7119667,756
0.7136334,763
0.7153,798
0.7169667,832
0.7186334,605
0.7203,802
0.7219667,787
0.7236333,773
0.7253,825
0.7269667,836
0.7286333,847
0.7303,868
0.7319667,777
0.7336333,870
0.7353,816
0.7369667,828
0.7386333,841
0.7403,820
0.7419667,799
0.7436333,877
0.7453,748
0.7469667,733
0.7486333,698
0.7503,751
0.7519667,671
0.7536333,740
0.7553,810
0.7569667,764
0.7586333,865
0.7603,655
0.7619666,713
0.7636333,728
0.7653,872
0.7669666,773
0.7686333,674
0.7703,727
0.7719667,635
0.7736334,658
0.7753,710
0.7769667,755
0.7786334,734
0.7803,768
0.7819667,802
0.7836334,823
0.7853,818
0.7869667,718
0.7886333,813
0.7903,663
0.7919667,660
0.7936333,684
0.7953,621
0.7969667,596
0.7986333,752
0.8003,870
0.8019667,862
0.8036333,721
0.8053,612
0.8069667,859
0.8086333,913
0.8103,784
0.8119667,707
0.8136333,695
0.8153,804
0.8169667,718
0.8186333,632
0.8203,698
0.8219666,838
0.8236333,784
0.8253,789
0.8269666,913
0.8286333,646
0.8303,741
0.8319666,812
0.8336333,851
0.8353,824
0.8369667,898
0.8386334,913
0.8403,876
0.8419667,839
0.8436334,828
0.8453,817
0.8469667,800
0.8486333,631
0.8503,812
0.8519667,905
0.8536333,868
0.8553,781
0.8569667,876
0.8586333,804
0.8603,613
0.8619667,797
0.8636333,741
0.8653,702
0.8669667,818
0.8686333,771
0.8703,790
0.8719667,759
0.8736333,552
0.8753,685
0.8769667,740
0.8786333,946
0.8803,901
0.8819667,1498
0.8836333,1880
0.8853,1881
0.8869666,2290
0.8886333,2509
0.8903,2925
0.8919666,2674
0.8936333,2936
0.8953,3004
0.8969667,3054
0.8986334,3503
0.9003,3363
0.9019667,3273
0.9036334,3163
0.9053,3463
0.9069667,3412
0.9086334,3624
0.9103,3186
0.9119667,3293
0.9136333,3529
0.9153,3381
0.9169667,3301
0.9186333,3265
0.9203,3405
0.9219667,3053
0.9236333,3257
0.9253,3110
0.9269667,2953
0.9286333,2975
0.9303,2997
0.9319667,2971
0.9336333,2946
0.9353,3128
0.9369667,2787
0.9386333,3237
0.9403,2574
0.9419667,3119
0.9436333,2766
0.9453,2549
0.9469666,2862
0.9486333,2513
0.9503,2276
0.9519666,2087
0.9536333,2184
0.9553,2061
0.9569666,2133
0.9586333,1827
0.9603,1647
0.9619667,1816
0.9636334,1633
0.9653,1458
0.9669667,1444
0.9686334,1559
0.9703,1198
0.9719667,1207
0.9736333,1113
0.9753,1034
0.9769667,1098
0.9786333,964
0.9803,1020
0.9819667,915
0.9836333,807
0.9853,808
0.9869667,633
0.9886333,747
0.9903,726
0.9919667,716
0.9936333,632
0.9953,773
0.9969667,753
0.9986333,616
1.0003,411
1.001967,501
1.003633,532
1.0053,562
1.006967,685
1.008633,649
1.0103,649
1.011967,613
1.013633,652
1.0153,711
1.016967,512
1.018633,597
1.0203,443
1.021967,542
1.023633,499
1.0253,456
1.026967,621
1.028633,639
1.0303,691
1.031967,545
1.033633,590
1.0353,636
1.036967,595
1.038633,602
1.0403,609
1.041967,614
1.043633,618
1.0453,601
1.046967,585
1.048633,662
1.0503,452
1.051967,585
1.053633,542
1.0553,519
1.056967,497
1.058633,641
1.0603,637
1.061967,722
1.063633,668
1.0653,705
1.066967,586
1.068633,622
1.0703,680
1.071967,589
1.073633,654
1.0753,712
1.076967,751
1.078633,675
1.0803,645
1.081967,632
1.083633,632
1.0853,632
1.086967,380
1.088633,702
1.0903,717
1.091967,675
1.093633,616
1.0953,698
1.096967,626
1.098633,645
1.1003,710
1.101967,688
1.103633,667
1.1053,624
1.106967,621
1.108633,707
1.1103,725
1.111967,594
1.113633,465
1.1153,642
1.116967,691
1.118633,635
1.1203,486
1.121967,666
1.123633,476
1.1253,705
1.126967,700
1.128633,843
1.1303,812
1.131967,628
1.133633,636
1.1353,767
1.136967,602
1.138633,665
1.1403,704
1.141967,683
1.143633,681
1.1453,710
1.146967,669
1.148633,629
1.1503,709
1.151967,689
1.153633,632
1.1553,710
1.156967,697
1.158633,683
1.1603,659
1.161967,650
1.163633,642
1.1653,604
1.166967,690
1.168633,750
1.1703,828
1.171967,752
1.173633,840
1.1753,705
1.176967,825
1.178633,771
1.1803,703
1.181967,721
1.183633,720
1.1853,719
1.186967,717
1.188633,715
1.1903,709
1.191967,704
1.193633,648
1.1953,619
1.196967,633
1.198633,674
