"SampleName","A2Rd2_01-44"
"Target Mass 1",
"Column Name","IA-3 (3um, 4.6X100)"
"Channel","QDa 1: SIR Ch1"
0.00195,383
0.003616667,630
0.005283333,649
0.00695,564
0.008616666,599
0.01028333,610
0.01195,634
0.01361667,562
0.01528333,553
0.01695,543
0.01861667,533
0.02028333,544
0.02195,555
0.02361667,602
0.02528333,649
0.02695,637
0.02861667,529
0.03028333,537
0.03195,636
0.03361667,554
0.03528333,554
0.03695,659
0.03861667,599
0.04028333,605
0.04195,556
0.04361667,643
0.04528333,543
0.04695,724
0.04861667,689
0.05028334,655
0.05195,589
0.05361667,585
0.05528333,598
0.05695,610
0.05861667,613
0.06028333,554
0.06195,563
0.06361666,506
0.06528334,656
0.06695,624
0.06861667,380
0.07028333,542
0.07195,832
0.07361667,763
0.07528333,741
0.07695,781
0.07861666,566
0.08028334,551
0.08195,634
0.08361667,514
0.08528333,689
0.08695,698
0.08861667,612
0.09028333,711
0.09195,582
0.09361666,641
0.09528334,602
0.09695,568
0.09861667,490
0.1002833,606
0.10195,602
0.1036167,564
0.1052833,551
0.10695,538
0.1086167,579
0.1102833,574
0.11195,569
0.1136167,531
0.1152833,605
0.11695,618
0.1186167,588
0.1202833,612
0.12195,635
0.1236167,467
0.1252833,434
0.12695,693
0.1286167,679
0.1302833,606
0.13195,459
0.1336167,520
0.1352833,531
0.13695,448
0.1386167,529
0.1402833,533
0.14195,537
0.1436167,426
0.1452833,612
0.14695,605
0.1486167,665
0.1502833,420
0.15195,454
0.1536167,632
0.1552833,558
0.15695,642
0.1586167,580
0.1602833,557
0.16195,541
0.1636167,525
0.1652833,508
0.16695,671
0.1686167,634
0.1702833,624
0.17195,613
0.1736167,619
0.1752833,547
0.17695,553
0.1786167,421
0.1802833,496
0.18195,542
0.1836167,587
0.1852833,590
0.18695,592
0.1886167,589
0.1902833,580
0.19195,571
0.1936167,490
0.1952833,553
0.19695,524
0.1986167,529
0.2002833,534
0.20195,618
0.2036167,627
0.2052833,546
0.20695,606
0.2086167,666
0.2102833,642
0.21195,610
0.2136167,535
0.2152833,586
0.21695,648
0.2186167,653
0.2202833,643
0.22195,632
0.2236167,618
0.2252833,680
0.22695,546
0.2286167,515
0.2302833,696
0.23195,482
0.2336167,408
0.2352833,710
0.23695,443
0.2386167,629
0.2403,540
0.24195,538
0.2436167,521
0.2452833,504
0.24695,474
0.2486167,532
0.2502833,591
0.25195,583
0.2536167,610
0.2552833,636
0.25695,552
0.2586167,507
0.2602833,505
0.26195,529
0.2636333,498
0.2652833,466
0.26695,466
0.2686333,466
0.2702833,529
0.27195,559
0.2736167,528
0.2752833,577
0.27695,474
0.2786167,471
0.2803,378
0.28195,538
0.2836167,487
0.2852833,538
0.28695,590
0.2886167,586
0.2903,517
0.2919667,649
0.2936167,654
0.2952833,584
0.29695,621
0.2986333,728
0.3002833,764
0.30195,611
0.3036167,618
0.3052833,695
0.30695,675
0.3086167,667
0.3102833,624
0.31195,582
0.3136167,630
0.3153,523
0.31695,547
0.3186167,571
0.3202833,553
0.32195,598
0.3236167,454
0.3252833,613
0.32695,688
0.3286167,553
0.3302833,626
0.33195,634
0.3336333,684
0.3353,548
0.3369667,615
0.3386333,569
0.3403,442
0.3419667,504
0.3436167,567
0.3453,473
0.34695,451
0.3486333,633
0.3503,696
0.3519667,429
0.3536333,549
0.3553,664
0.3569667,555
0.3586167,550
0.3602833,787
0.36195,761
0.3636333,1054
0.3653,1603
0.3669667,2869
0.3686333,4772
0.3703,6821
0.3719667,6973
0.3736333,8828
0.3753,7724
0.3769667,6152
0.3786333,5537
0.3803,4153
0.3819667,4066
0.3836333,2659
0.3853,2152
0.3869667,1608
0.3886333,1532
0.3903,1336
0.3919667,1452
0.3936333,1313
0.3953,1046
0.3969667,1139
0.3986333,1172
0.4003,1045
0.4019667,1151
0.4036333,1450
0.4053,1436
0.4069667,1424
0.4086333,1462
0.4103,1946
0.4119667,1888
0.4136333,1802
0.4153,1697
0.4169667,1683
0.4186333,1807
0.4203,1579
0.4219667,1796
0.4236333,1812
0.4253,1564
0.4269667,1551
0.4286333,1409
0.4303,1864
0.4319667,2192
0.4336333,2877
0.4353,3340
0.4369667,4289
0.4386333,6303
0.4403,7974
0.4419667,10452
0.4436333,15256
0.4453,21084
0.4469667,26408
0.4486333,37408
0.4503,45472
0.4519667,60368
0.4536333,75152
0.4553,93616
0.4569667,112592
0.4586333,136256
0.4603,164736
0.4619667,192384
0.4636333,226688
0.4653,263488
0.4669667,302080
0.4686333,331136
0.4703,352128
0.4719667,368512
0.4736333,377664
0.4753,365824
0.4769667,343232
0.4786333,313280
0.4803,273664
0.4819667,231360
0.4836333,192960
0.4853,156480
0.4869667,124896
0.4886333,97984
0.4903,75280
0.4919667,58832
0.4936333,45248
0.4953,34384
0.4969667,27364
0.4986333,22464
0.5003,18696
0.5019667,15380
0.5036333,13188
0.5053,11888
0.5069667,10256
0.5086333,8864
0.5103,7745
0.5119666,7423
0.5136333,7439
0.5153,6577
0.5169666,6372
0.5186333,5290
0.5203,4911
0.5219667,5133
0.5236334,4831
0.5253,4874
0.5269667,4223
0.5286334,3877
0.5303,4093
0.5319667,3477
0.5336334,3296
0.5353,3594
0.5369667,3489
0.5386333,3645
0.5403,3108
0.5419667,2956
0.5436333,2904
0.5453,3088
0.5469667,2954
0.5486333,2557
0.5503,2301
0.5519667,2545
0.5536333,2472
0.5553,2419
0.5569667,2033
0.5586333,2045
0.5603,2511
0.5619667,2311
0.5636333,2063
0.5653,2002
0.5669667,2190
0.5686333,1815
0.5703,1798
0.5719666,1995
0.5736333,1792
0.5753,1777
0.5769666,1762
0.5786333,2012
0.5803,1899
0.5819666,1786
0.5836333,1744
0.5853,1809
0.5869667,1874
0.5886334,1666
0.5903,1740
0.5919667,1905
0.5936334,1780
0.5953,1857
0.5969667,1791
0.5986333,1726
0.6003,1758
0.6019667,1790
0.6036333,1839
0.6053,1825
0.6069667,1810
0.6086333,1792
0.6103,1657
0.6119667,1508
0.6136333,1759
0.6153,1623
0.6169667,1344
0.6186333,1614
0.6203,1588
0.6219667,1405
0.6236333,1500
0.6253,1453
0.6269667,1181
0.6286333,1431
0.6303,1494
0.6319667,1513
0.6336333,1253
0.6353,1414
0.6369666,1320
0.6386333,1469
0.6403,1379
0.6419666,1427
0.6436333,1348
0.6453,1205
0.6469667,1104
0.6486334,1391
0.6503,1149
0.6519667,1169
0.6536334,1246
0.6553,1201
0.6569667,1157
0.6586334,1190
0.6603,1147
0.6619667,1208
0.6636333,1218
0.6653,1227
0.6669667,1105
0.6686333,1148
0.6703,1190
0.6719667,1148
0.6736333,1152
0.6753,1172
0.6769667,1083
0.6786333,1382
0.6803,1311
0.6819667,1243
0.6836333,1165
0.6853,1294
0.6869667,1208
0.6886333,1148
0.6903,1109
0.6919667,1204
0.6936333,1219
0.6953,1219
0.6969666,1248
0.6986333,1078
0.7003,1041
0.7019666,1184
0.7036333,1109
0.7053,1068
0.7069666,1138
0.7086333,1137
0.7103,1135
0.7119667,1137
0.7136334,1134
0.7153,1042
0.7169667,1060
0.7186334,1078
0.7203,1053
0.7219667,1181
0.7236333,1253
0.7253,1227
0.7269667,1118
0.7286333,1269
0.7303,1001
0.7319667,1055
0.7336333,1053
0.7353,1108
0.7369667,1145
0.7386333,1003
0.7403,1178
0.7419667,1203
0.7436333,1241
0.7453,1152
0.7469667,1076
0.7486333,1184
0.7503,1005
0.7519667,1023
0.7536333,971
0.7553,924
0.7569667,1171
0.7586333,1256
0.7603,1161
0.7619666,1106
0.7636333,785
0.7653,1118
0.7669666,1119
0.7686333,993
0.7703,998
0.7719667,1043
0.7736334,1088
0.7753,865
0.7769667,1226
0.7786334,1095
0.7803,1164
0.7819667,1205
0.7836334,1265
0.7853,1375
0.7869667,1004
0.7886333,1168
0.7903,1354
0.7919667,1068
0.7936333,1281
0.7953,1286
0.7969667,1161
0.7986333,1134
0.8003,1050
0.8019667,1080
0.8036333,1053
0.8053,1163
0.8069667,1324
0.8086333,1458
0.8103,1306
0.8119667,1131
0.8136333,1223
0.8153,1185
0.8169667,982
0.8186333,1418
0.8203,1394
0.8219666,1128
0.8236333,1146
0.8253,1378
0.8269666,1052
0.8286333,1381
0.8303,1226
0.8319666,1256
0.8336333,1239
0.8353,1222
0.8369667,1350
0.8386334,1391
0.8403,1311
0.8419667,1318
0.8436334,1259
0.8453,1237
0.8469667,1240
0.8486333,1054
0.8503,1223
0.8519667,1045
0.8536333,935
0.8553,1206
0.8569667,1204
0.8586333,952
0.8603,1097
0.8619667,1247
0.8636333,1475
0.8653,1897
0.8669667,2518
0.8686333,3313
0.8703,3726
0.8719667,3983
0.8736333,4972
0.8753,5284
0.8769667,4903
0.8786333,4619
0.8803,4883
0.8819667,4932
0.8836333,4412
0.8853,4757
0.8869666,4496
0.8886333,4300
0.8903,4065
0.8919666,4339
0.8936333,4054
0.8953,4194
0.8969667,4352
0.8986334,4510
0.9003,3805
0.9019667,4188
0.9036334,4458
0.9053,4549
0.9069667,4617
0.9086334,4543
0.9103,4678
0.9119667,4739
0.9136333,4602
0.9153,4465
0.9169667,4131
0.9186333,4582
0.9203,4659
0.9219667,4261
0.9236333,4258
0.9253,4155
0.9269667,3976
0.9286333,3981
0.9303,3679
0.9319667,4090
0.9336333,3613
0.9353,3733
0.9369667,3363
0.9386333,3240
0.9403,3272
0.9419667,3156
0.9436333,2999
0.9453,2798
0.9469666,2922
0.9486333,2514
0.9503,2543
0.9519666,2506
0.9536333,2205
0.9553,2292
0.9569666,1892
0.9586333,1989
0.9603,1673
0.9619667,1619
0.9636334,1890
0.9653,1666
0.9669667,1352
0.9686334,1392
0.9703,1178
0.9719667,1209
0.9736333,1290
0.9753,1304
0.9769667,1230
0.9786333,922
0.9803,898
0.9819667,1008
0.9836333,1107
0.9853,698
0.9869667,741
0.9886333,739
0.9903,723
0.9919667,707
0.9936333,669
0.9953,708
0.9969667,747
0.9986333,649
1.0003,754
1.001967,746
1.003633,844
1.0053,867
1.006967,698
1.008633,691
1.0103,875
1.011967,787
1.013633,605
1.0153,818
1.016967,769
1.018633,932
1.0203,889
1.021967,652
1.023633,876
1.0253,730
1.026967,732
1.028633,793
1.0303,820
1.031967,836
1.033633,835
1.0353,788
1.036967,741
1.038633,828
1.0403,847
1.041967,677
1.043633,870
1.0453,761
1.046967,711
1.048633,798
1.0503,744
1.051967,690
1.053633,783
1.0553,809
1.056967,889
1.058633,825
1.0603,579
1.061967,612
1.063633,1007
1.0653,910
1.066967,849
1.068633,822
1.0703,966
1.071967,688
1.073633,723
1.0753,837
1.076967,717
1.078633,823
1.0803,765
1.081967,707
1.083633,755
1.0853,804
1.086967,826
1.088633,788
1.0903,843
1.091967,670
1.093633,828
1.0953,886
1.096967,685
1.098633,652
1.1003,781
1.101967,808
1.103633,739
1.1053,769
1.106967,867
1.108633,872
1.1103,848
1.111967,727
1.113633,802
1.1153,747
1.116967,734
1.118633,722
1.1203,877
1.121967,900
1.123633,903
1.1253,868
1.126967,834
1.128633,828
1.1303,665
1.131967,688
1.133633,776
1.1353,807
1.136967,805
1.138633,805
1.1403,805
1.141967,872
1.143633,1005
1.1453,983
1.146967,719
1.148633,809
1.1503,763
1.151967,973
1.153633,1012
1.1553,910
1.156967,957
1.158633,743
1.1603,879
1.161967,859
1.163633,955
1.1653,999
1.166967,1027
1.168633,1039
1.1703,1052
1.171967,888
1.173633,920
1.1753,1105
1.176967,1011
1.178633,1021
1.1803,878
1.181967,948
1.183633,979
1.1853,1010
1.186967,1031
1.188633,1091
1.1903,1093
1.191967,826
1.193633,923
1.1953,1131
1.196967,1071
1.198633,1026
