"SampleName","A2Rd2_01-93"
"Target Mass 1",
"Column Name","IA-3 (3um, 4.6X100)"
"Channel","QDa 1: SIR Ch2"
0.00195,503
0.003616667,639
0.005283333,517
0.00695,727
0.008616666,764
0.01028333,801
0.01195,943
0.01361667,927
0.01528333,715
0.01695,878
0.01861667,844
0.02028333,810
0.02195,790
0.02361667,769
0.02528333,811
0.02695,794
0.02861667,820
0.03028333,834
0.03195,844
0.03361667,1038
0.03528333,930
0.03695,823
0.03861667,1117
0.04028333,934
0.04195,874
0.04361667,982
0.04528333,915
0.04695,988
0.04861667,967
0.05028334,900
0.05195,987
0.05361667,870
0.05528333,853
0.05695,929
0.05861667,882
0.06028333,929
0.06195,985
0.06361666,833
0.06528334,985
0.06695,922
0.06861667,921
0.07028333,871
0.07195,875
0.07361667,899
0.07528333,866
0.07695,833
0.07861666,836
0.08028334,838
0.08195,812
0.08361667,960
0.08528333,859
0.08695,757
0.08861667,1069
0.09028333,955
0.09195,819
0.09361666,826
0.09528334,927
0.09695,764
0.09861667,811
0.1002833,684
0.10195,749
0.1036167,815
0.1052833,814
0.10695,744
0.1086167,820
0.1102833,769
0.11195,759
0.1136167,748
0.1152833,758
0.11695,725
0.1186167,692
0.1202833,826
0.12195,786
0.1236167,878
0.1252833,864
0.12695,849
0.1286167,781
0.1302833,878
0.13195,908
0.1336167,703
0.1352833,895
0.13695,767
0.1386167,936
0.1402833,915
0.14195,890
0.1436167,872
0.1452833,854
0.14695,796
0.1486167,832
0.1502833,814
0.15195,788
0.1536167,762
0.1552833,889
0.15695,924
0.1586167,709
0.1602833,760
0.16195,907
0.1636167,1011
0.1652833,894
0.16695,812
0.1686167,865
0.1702833,875
0.17195,669
0.1736167,798
0.1752833,889
0.17695,802
0.1786167,837
0.1802833,940
0.18195,991
0.1836167,774
0.1852833,989
0.18695,750
0.1886167,958
0.1902833,893
0.19195,845
0.1936167,956
0.1952833,819
0.19695,836
0.1986167,855
0.2002833,931
0.20195,914
0.2036167,797
0.2052833,933
0.20695,917
0.2086167,930
0.2103,982
0.21195,783
0.2136167,711
0.2152833,1067
0.21695,709
0.2186167,777
0.2202833,1016
0.22195,1025
0.2236167,819
0.2252833,1143
0.22695,1160
0.2286167,1245
0.2302833,1073
0.23195,1139
0.2336167,1056
0.2352833,1008
0.23695,1056
0.2386167,1044
0.2402833,1064
0.24195,1075
0.2436167,1060
0.2453,934
0.24695,1248
0.2486167,1310
0.2502833,1007
0.25195,1110
0.2536167,1264
0.2552833,1096
0.25695,957
0.2586167,1267
0.2602833,1194
0.26195,1134
0.2636333,1212
0.2652833,1145
0.26695,1038
0.2686167,915
0.2702833,1030
0.27195,1075
0.2736167,1041
0.2752833,784
0.27695,989
0.2786167,1041
0.2803,905
0.28195,1101
0.2836167,858
0.2852833,913
0.28695,853
0.2886167,953
0.2902833,914
0.29195,1023
0.2936333,1009
0.2952833,995
0.29695,1010
0.2986333,1024
0.3002833,928
0.3019667,906
0.3036167,884
0.3053,889
0.30695,1016
0.3086167,993
0.3102833,1081
0.31195,1204
0.3136333,1304
0.3153,1192
0.31695,1241
0.3186333,1289
0.3202833,1127
0.3219667,1224
0.3236167,1198
0.3252833,1144
0.32695,1166
0.3286167,1134
0.3303,1091
0.3319667,1213
0.3336333,1287
0.3353,1385
0.3369667,1317
0.3386333,1253
0.3402833,1200
0.34195,1238
0.3436167,1180
0.3452833,1121
0.34695,1254
0.3486167,1379
0.3503,1445
0.3519667,1252
0.3536333,1264
0.3553,1245
0.35695,1206
0.3586333,1166
0.3602833,1332
0.3619667,1744
0.3636167,1743
0.3653,2910
0.36695,3998
0.3686333,4614
0.3703,4450
0.3719667,4645
0.3736333,4627
0.3753,4475
0.3769667,4556
0.3786333,4029
0.3803,3986
0.38195,3171
0.3836333,2653
0.3853,2237
0.3869667,1758
0.3886333,1375
0.3903,1111
0.3919667,807
0.3936333,666
0.3953,572
0.3969667,511
0.3986333,492
0.4003,405
0.4019667,540
0.4036333,534
0.4053,529
0.4069667,586
0.4086333,676
0.4103,752
0.4119667,664
0.4136333,632
0.4153,591
0.4169667,739
0.4186333,748
0.4203,666
0.4219667,531
0.4236333,583
0.4253,682
0.4269667,681
0.4286333,711
0.4303,741
0.4319667,848
0.4336333,851
0.4353,854
0.4369667,956
0.4386333,933
0.4403,1027
0.4419667,1077
0.4436333,1127
0.4453,1126
0.4469667,1217
0.4486333,976
0.4503,1051
0.4519667,1062
0.4536333,1091
0.4553,1195
0.4569667,1201
0.4586333,1196
0.4603,1191
0.4619667,1250
0.4636333,1309
0.4653,1275
0.4669667,1241
0.4686333,1243
0.4703,1246
0.4719667,1265
0.4736333,1307
0.4753,1301
0.4769667,1264
0.4786333,1310
0.4803,1265
0.4819667,1268
0.4836333,1253
0.4853,1314
0.4869667,1199
0.4886333,1205
0.4903,1148
0.4919667,981
0.4936333,1123
0.4953,1045
0.4969667,972
0.4986333,1062
0.5003,932
0.5019667,965
0.5036333,974
0.5053,967
0.5069667,879
0.5086333,967
0.5103,847
0.5119666,925
0.5136333,810
0.5153,929
0.5169666,929
0.5186333,792
0.5203,819
0.5219667,846
0.5236334,805
0.5253,995
0.5269667,979
0.5286334,841
0.5303,774
0.5319667,1001
0.5336334,945
0.5353,947
0.5369667,933
0.5386333,904
0.5403,875
0.5419667,971
0.5436333,903
0.5453,835
0.5469667,912
0.5486333,899
0.5503,880
0.5519667,861
0.5536333,978
0.5553,729
0.5569667,956
0.5586333,896
0.5603,783
0.5619667,755
0.5636333,774
0.5653,789
0.5669667,887
0.5686333,961
0.5703,911
0.5719666,1044
0.5736333,683
0.5753,948
0.5769666,781
0.5786333,817
0.5803,1025
0.5819666,899
0.5836333,801
0.5853,1030
0.5869667,824
0.5886334,779
0.5903,865
0.5919667,879
0.5936334,893
0.5953,909
0.5969667,924
0.5986333,754
0.6003,869
0.6019667,943
0.6036333,867
0.6053,1065
0.6069667,1069
0.6086333,930
0.6103,875
0.6119667,851
0.6136333,866
0.6153,878
0.6169667,813
0.6186333,924
0.6203,943
0.6219667,925
0.6236333,835
0.6253,924
0.6269667,868
0.6286333,813
0.6303,658
0.6319667,974
0.6336333,817
0.6353,761
0.6369666,1052
0.6386333,1137
0.6403,975
0.6419666,1021
0.6436333,848
0.6453,1001
0.6469667,903
0.6486334,838
0.6503,945
0.6519667,983
0.6536334,922
0.6553,857
0.6569667,953
0.6586334,756
0.6603,705
0.6619667,967
0.6636333,932
0.6653,837
0.6669667,733
0.6686333,781
0.6703,783
0.6719667,734
0.6736333,686
0.6753,794
0.6769667,902
0.6786333,898
0.6803,734
0.6819667,721
0.6836333,792
0.6853,863
0.6869667,890
0.6886333,671
0.6903,961
0.6919667,918
0.6936333,799
0.6953,786
0.6969666,910
0.6986333,759
0.7003,910
0.7019666,802
0.7036333,848
0.7053,638
0.7069666,687
0.7086333,924
0.7103,793
0.7119667,717
0.7136334,701
0.7153,722
0.7169667,743
0.7186334,741
0.7203,740
0.7219667,708
0.7236333,676
0.7253,678
0.7269667,680
0.7286333,736
0.7303,709
0.7319667,683
0.7336333,732
0.7353,782
0.7369667,763
0.7386333,744
0.7403,792
0.7419667,672
0.7436333,781
0.7453,749
0.7469667,680
0.7486333,849
0.7503,914
0.7519667,988
0.7536333,704
0.7553,877
0.7569667,952
0.7586333,772
0.7603,931
0.7619666,762
0.7636333,829
0.7653,896
0.7669666,948
0.7686333,853
0.7703,884
0.7719667,912
0.7736334,836
0.7753,623
0.7769667,784
0.7786334,711
0.7803,823
0.7819667,746
0.7836334,669
0.7853,963
0.7869667,947
0.7886333,820
0.7903,1074
0.7919667,758
0.7936333,993
0.7953,1009
0.7969667,811
0.7986333,1025
0.8003,847
0.8019667,1006
0.8036333,782
0.8053,1043
0.8069667,847
0.8086333,832
0.8103,908
0.8119667,880
0.8136333,853
0.8153,676
0.8169667,905
0.8186333,862
0.8203,820
0.8219666,842
0.8236333,865
0.8253,872
0.8269666,817
0.8286333,761
0.8303,855
0.8319666,813
0.8336333,833
0.8353,812
0.8369667,1006
0.8386334,1002
0.8403,664
0.8419667,788
0.8436334,845
0.8453,838
0.8469667,823
0.8486333,678
0.8503,714
0.8519667,691
0.8536333,837
0.8553,852
0.8569667,792
0.8586333,812
0.8603,779
0.8619667,746
0.8636333,776
0.8653,806
0.8669667,782
0.8686333,759
0.8703,747
0.8719667,736
0.8736333,714
0.8753,770
0.8769667,793
0.8786333,868
0.8803,1025
0.8819667,1032
0.8836333,1166
0.8853,1155
0.8869666,1212
0.8886333,1069
0.8903,1100
0.8919666,1071
0.8936333,1041
0.8953,1035
0.8969667,1028
0.8986334,1185
0.9003,1175
0.9019667,1164
0.9036334,1233
0.9053,1021
0.9069667,1009
0.9086334,1225
0.9103,1061
0.9119667,1046
0.9136333,1199
0.9153,1144
0.9169667,1100
0.9186333,1106
0.9203,1068
0.9219667,977
0.9236333,1142
0.9253,912
0.9269667,1100
0.9286333,1257
0.9303,1374
0.9319667,903
0.9336333,1189
0.9353,954
0.9369667,921
0.9386333,1134
0.9403,1075
0.9419667,1008
0.9436333,1142
0.9453,994
0.9469666,1172
0.9486333,1135
0.9503,1158
0.9519666,1162
0.9536333,1023
0.9553,1011
0.9569666,1124
0.9586333,1071
0.9603,873
0.9619667,891
0.9636334,1074
0.9653,1052
0.9669667,851
0.9686334,843
0.9703,849
0.9719667,866
0.9736333,743
0.9753,721
0.9769667,700
0.9786333,772
0.9803,746
0.9819667,721
0.9836333,811
0.9853,886
0.9869667,850
0.9886333,713
0.9903,785
0.9919667,857
0.9936333,764
0.9953,813
0.9969667,916
0.9986333,874
1.0003,959
1.001967,803
1.003633,917
1.0053,886
1.006967,771
1.008633,749
1.0103,726
1.011967,701
1.013633,698
1.0153,694
1.016967,979
1.018633,938
1.0203,960
1.021967,732
1.023633,934
1.0253,839
1.026967,789
1.028633,802
1.0303,816
1.031967,770
1.033633,725
1.0353,773
1.036967,821
1.038633,891
1.0403,1007
1.041967,1013
1.043633,1079
1.0453,824
1.046967,932
1.048633,806
1.0503,803
1.051967,831
1.053633,942
1.0553,892
1.056967,842
1.058633,590
1.0603,848
1.061967,763
1.063633,826
1.0653,888
1.066967,560
1.068633,1022
1.0703,776
1.071967,762
1.073633,750
1.0753,855
1.076967,832
1.078633,762
1.0803,909
1.081967,895
1.083633,794
1.0853,717
1.086967,836
1.088633,670
1.0903,887
1.091967,991
1.093633,835
1.0953,735
1.096967,929
1.098633,717
1.1003,773
1.101967,903
1.103633,930
1.1053,901
1.106967,716
1.108633,916
1.1103,860
1.111967,838
1.113633,871
1.1153,670
1.116967,959
1.118633,808
1.1203,678
1.121967,1083
1.123633,952
1.1253,709
1.126967,761
1.128633,851
1.1303,625
1.131967,1017
1.133633,906
1.1353,838
1.136967,958
1.138633,741
1.1403,803
1.141967,948
1.143633,908
1.1453,710
1.146967,821
1.148633,929
1.1503,861
1.151967,777
1.153633,1017
1.1553,706
1.156967,871
1.158633,718
1.1603,801
1.161967,914
1.163633,776
1.1653,805
1.166967,969
1.168633,888
1.1703,924
1.171967,816
1.173633,957
1.1753,659
1.176967,837
1.178633,759
1.1803,797
1.181967,720
1.183633,775
1.1853,704
1.186967,682
1.188633,650
1.1903,814
1.191967,870
1.193633,727
1.1953,792
1.196967,797
1.198633,803
