"SampleName","A2Rd2_01-88"
"Target Mass 1",
"Column Name","IA-3 (3um, 4.6X100)"
"Channel","QDa 1: SIR Ch1"
0.00195,323
0.003616667,402
0.005283333,575
0.00695,490
0.008616666,599
0.01028333,446
0.01195,444
0.01361667,443
0.01528333,637
0.01695,647
0.01861667,612
0.02028333,530
0.02195,584
0.02361667,448
0.02528333,626
0.02695,457
0.02861667,474
0.03028333,486
0.03195,475
0.03361667,462
0.03528333,477
0.03695,491
0.03861667,509
0.04028333,575
0.04195,588
0.04361667,592
0.04528333,507
0.04695,625
0.04861667,596
0.05028334,551
0.05195,454
0.05361667,513
0.05528333,419
0.05695,460
0.05861667,607
0.06028333,547
0.06195,594
0.06361666,482
0.06528334,576
0.06695,344
0.06861667,523
0.07028333,506
0.07195,597
0.07361667,522
0.07528333,596
0.07695,443
0.07861666,607
0.08028334,539
0.08195,495
0.08361667,382
0.08528333,540
0.08695,590
0.08861667,463
0.09028333,448
0.09195,474
0.09361666,567
0.09528334,623
0.09695,543
0.09861667,515
0.1002833,487
0.10195,466
0.1036167,530
0.1052833,435
0.10695,500
0.1086167,492
0.1102833,534
0.11195,538
0.1136167,543
0.1152833,478
0.11695,569
0.1186167,566
0.1202833,426
0.12195,485
0.1236167,518
0.1252833,511
0.12695,505
0.1286167,543
0.1302833,472
0.13195,430
0.1336167,580
0.1352833,520
0.13695,461
0.1386167,439
0.1402833,525
0.14195,589
0.1436167,571
0.1452833,553
0.14695,433
0.1486167,607
0.1502833,562
0.15195,491
0.1536167,526
0.1552833,613
0.15695,434
0.1586167,434
0.1602833,489
0.16195,487
0.1636167,484
0.1652833,440
0.16695,460
0.1686167,482
0.1702833,396
0.17195,443
0.1736167,491
0.1752833,580
0.17695,525
0.1786167,470
0.1802833,490
0.18195,531
0.1836167,535
0.1852833,540
0.18695,503
0.1886167,569
0.1902833,435
0.19195,509
0.1936167,460
0.1952833,446
0.19695,463
0.1986167,474
0.2002833,515
0.20195,446
0.2036167,378
0.2052833,454
0.20695,462
0.2086167,471
0.2102833,484
0.21195,489
0.2136167,421
0.2152833,446
0.21695,492
0.2186167,541
0.2202833,500
0.22195,496
0.2236167,493
0.2252833,465
0.22695,504
0.2286167,496
0.2302833,488
0.23195,508
0.2336167,527
0.2352833,536
0.23695,466
0.2386167,331
0.2402833,440
0.24195,420
0.2436167,376
0.2453,350
0.24695,324
0.2486167,402
0.2502833,455
0.25195,508
0.2536167,496
0.2552833,484
0.25695,528
0.2586167,542
0.2602833,431
0.26195,595
0.2636333,628
0.2652833,556
0.26695,577
0.2686167,594
0.2702833,562
0.27195,508
0.2736167,501
0.2752833,419
0.27695,492
0.2786167,402
0.2803,447
0.28195,515
0.2836167,554
0.2852833,499
0.28695,531
0.2886167,563
0.2902833,474
0.29195,498
0.2936167,521
0.2952833,498
0.29695,476
0.2986333,526
0.3002833,564
0.30195,601
0.3036167,439
0.3052833,569
0.30695,576
0.3086167,633
0.3103,758
0.31195,740
0.3136167,585
0.3153,448
0.31695,554
0.3186167,538
0.3203,573
0.32195,396
0.3236333,583
0.3252833,553
0.3269667,628
0.3286167,641
0.3302833,375
0.3319667,465
0.3336333,664
0.3352833,593
0.3369667,485
0.3386167,719
0.3403,702
0.34195,585
0.3436167,431
0.3453,652
0.34695,542
0.3486167,490
0.3503,482
0.35195,508
0.3536167,545
0.3552833,572
0.3569667,427
0.3586167,542
0.3603,407
0.3619667,854
0.3636333,743
0.3652833,1520
0.3669667,1798
0.3686333,3616
0.3703,5088
0.3719667,5315
0.3736333,6294
0.3752833,7019
0.3769667,7543
0.3786333,7771
0.3803,7432
0.3819667,6699
0.3836333,5572
0.3853,4818
0.3869667,4086
0.3886333,3763
0.3903,2871
0.3919667,2214
0.3936333,1811
0.3953,1313
0.3969667,1329
0.3986333,983
0.4003,1117
0.40195,934
0.4036333,938
0.4053,967
0.4069667,770
0.4086333,953
0.4103,1221
0.4119667,1136
0.4136333,1051
0.4153,945
0.4169667,940
0.4186333,888
0.4203,883
0.4219667,878
0.4236333,964
0.4253,1049
0.4269667,1064
0.4286333,1098
0.4303,1030
0.4319667,1166
0.4336333,1936
0.4353,1962
0.4369667,3187
0.4386333,5024
0.4403,8169
0.4419667,12556
0.4436333,19960
0.4453,27492
0.4469667,40704
0.4486333,52080
0.4503,68944
0.4519667,86320
0.4536333,106512
0.4553,125872
0.4569667,140288
0.4586333,159616
0.4603,174784
0.4619667,190080
0.4636333,206144
0.4653,222208
0.4669667,238784
0.4686333,258496
0.4703,280256
0.4719667,291392
0.4736333,310784
0.4753,314944
0.4769667,316544
0.4786333,310016
0.4803,293120
0.4819667,271680
0.4836333,245760
0.4853,216384
0.4869667,188608
0.4886333,155840
0.4903,132096
0.4919667,108640
0.4936333,86864
0.4953,70256
0.4969667,56704
0.4986333,44816
0.5003,35568
0.5019667,28404
0.5036333,21244
0.5053,17688
0.5069667,14280
0.5086333,12240
0.5103,9892
0.5119666,8616
0.5136333,7379
0.5153,6968
0.5169666,6621
0.5186333,5794
0.5203,5374
0.5219667,4921
0.5236334,4816
0.5253,4616
0.5269667,4059
0.5286334,3655
0.5303,3791
0.5319667,3551
0.5336334,3422
0.5353,3553
0.5369667,3171
0.5386333,3166
0.5403,2776
0.5419667,2769
0.5436333,2804
0.5453,2623
0.5469667,2658
0.5486333,2586
0.5503,2401
0.5519667,2335
0.5536333,2156
0.5553,2024
0.5569667,2259
0.5586333,1883
0.5603,1886
0.5619667,2043
0.5636333,1909
0.5653,1833
0.5669667,1639
0.5686333,1888
0.5703,1690
0.5719666,1636
0.5736333,1590
0.5753,1616
0.5769666,1736
0.5786333,1249
0.5803,1508
0.5819666,1664
0.5836333,1400
0.5853,1563
0.5869667,1578
0.5886334,1598
0.5903,1296
0.5919667,1480
0.5936334,1553
0.5953,1562
0.5969667,1177
0.5986333,1328
0.6003,1251
0.6019667,1146
0.6036333,1222
0.6053,1290
0.6069667,1318
0.6086333,1346
0.6103,1350
0.6119667,1326
0.6136333,1302
0.6153,1349
0.6169667,1231
0.6186333,1373
0.6203,1130
0.6219667,1342
0.6236333,1108
0.6253,1140
0.6269667,1257
0.6286333,1047
0.6303,1115
0.6319667,1155
0.6336333,1027
0.6353,936
0.6369666,997
0.6386333,946
0.6403,845
0.6419666,943
0.6436333,902
0.6453,912
0.6469667,992
0.6486334,726
0.6503,1155
0.6519667,1142
0.6536334,992
0.6553,963
0.6569667,900
0.6586334,831
0.6603,1006
0.6619667,870
0.6636333,880
0.6653,760
0.6669667,746
0.6686333,937
0.6703,1006
0.6719667,988
0.6736333,825
0.6753,721
0.6769667,926
0.6786333,757
0.6803,888
0.6819667,784
0.6836333,883
0.6853,837
0.6869667,876
0.6886333,864
0.6903,830
0.6919667,687
0.6936333,795
0.6953,685
0.6969666,678
0.6986333,737
0.7003,793
0.7019666,754
0.7036333,736
0.7053,614
0.7069666,774
0.7086333,666
0.7103,679
0.7119667,684
0.7136334,644
0.7153,604
0.7169667,710
0.7186334,728
0.7203,746
0.7219667,655
0.7236333,713
0.7253,779
0.7269667,589
0.7286333,766
0.7303,723
0.7319667,691
0.7336333,658
0.7353,682
0.7369667,705
0.7386333,773
0.7403,772
0.7419667,661
0.7436333,784
0.7453,730
0.7469667,675
0.7486333,770
0.7503,766
0.7519667,714
0.7536333,736
0.7553,793
0.7569667,808
0.7586333,643
0.7603,805
0.7619666,666
0.7636333,727
0.7653,812
0.7669666,715
0.7686333,828
0.7703,646
0.7719667,774
0.7736334,782
0.7753,735
0.7769667,632
0.7786334,688
0.7803,744
0.7819667,711
0.7836334,674
0.7853,705
0.7869667,669
0.7886333,635
0.7903,601
0.7919667,690
0.7936333,703
0.7953,715
0.7969667,709
0.7986333,703
0.8003,674
0.8019667,732
0.8036333,711
0.8053,719
0.8069667,684
0.8086333,648
0.8103,696
0.8119667,700
0.8136333,704
0.8153,720
0.8169667,717
0.8186333,714
0.8203,894
0.8219666,874
0.8236333,810
0.8253,745
0.8269666,820
0.8286333,822
0.8303,932
0.8319666,990
0.8336333,944
0.8353,807
0.8369667,739
0.8386334,845
0.8403,935
0.8419667,884
0.8436334,798
0.8453,832
0.8469667,874
0.8486333,868
0.8503,862
0.8519667,839
0.8536333,724
0.8553,726
0.8569667,837
0.8586333,831
0.8603,876
0.8619667,827
0.8636333,732
0.8653,583
0.8669667,620
0.8686333,658
0.8703,611
0.8719667,705
0.8736333,698
0.8753,948
0.8769667,1273
0.8786333,1279
0.8803,1639
0.8819667,2285
0.8836333,2245
0.8853,2649
0.8869666,2578
0.8886333,2695
0.8903,2812
0.8919666,3012
0.8936333,3243
0.8953,3513
0.8969667,3400
0.8986334,3255
0.9003,3510
0.9019667,3327
0.9036334,3467
0.9053,3217
0.9069667,3273
0.9086334,3328
0.9103,3143
0.9119667,3278
0.9136333,3487
0.9153,3592
0.9169667,3074
0.9186333,3669
0.9203,3266
0.9219667,3129
0.9236333,3086
0.9253,3259
0.9269667,3180
0.9286333,3101
0.9303,2983
0.9319667,2992
0.9336333,3100
0.9353,3089
0.9369667,2841
0.9386333,2997
0.9403,3059
0.9419667,2554
0.9436333,3069
0.9453,2736
0.9469666,2752
0.9486333,2233
0.9503,2414
0.9519666,2121
0.9536333,2180
0.9553,2262
0.9569666,2008
0.9586333,1672
0.9603,1626
0.9619667,1808
0.9636334,1603
0.9653,1457
0.9669667,1517
0.9686334,1314
0.9703,1003
0.9719667,1175
0.9736333,981
0.9753,895
0.9769667,978
0.9786333,721
0.9803,856
0.9819667,971
0.9836333,679
0.9853,763
0.9869667,679
0.9886333,617
0.9903,555
0.9919667,587
0.9936333,619
0.9953,636
0.9969667,581
0.9986333,465
1.0003,403
1.001967,597
1.003633,512
1.0053,473
1.006967,509
1.008633,545
1.0103,678
1.011967,713
1.013633,518
1.0153,820
1.016967,561
1.018633,819
1.0203,688
1.021967,631
1.023633,598
1.0253,621
1.026967,635
1.028633,646
1.0303,624
1.031967,544
1.033633,605
1.0353,616
1.036967,661
1.038633,547
1.0403,652
1.041967,552
1.043633,673
1.0453,705
1.046967,534
1.048633,691
1.0503,787
1.051967,635
1.053633,625
1.0553,659
1.056967,718
1.058633,733
1.0603,623
1.061967,577
1.063633,683
1.0653,722
1.066967,705
1.068633,687
1.0703,658
1.071967,686
1.073633,620
1.0753,715
1.076967,676
1.078633,637
1.0803,591
1.081967,696
1.083633,670
1.0853,643
1.086967,537
1.088633,640
1.0903,608
1.091967,772
1.093633,739
1.0953,793
1.096967,604
1.098633,693
1.1003,636
1.101967,429
1.103633,592
1.1053,674
1.106967,676
1.108633,653
1.1103,631
1.111967,528
1.113633,577
1.1153,775
1.116967,752
1.118633,673
1.1203,744
1.121967,702
1.123633,593
1.1253,662
1.126967,604
1.128633,663
1.1303,702
1.131967,740
1.133633,544
1.1353,627
1.136967,650
1.138633,650
1.1403,545
1.141967,633
1.143633,680
1.1453,580
1.146967,761
1.148633,701
1.1503,670
1.151967,644
1.153633,618
1.1553,676
1.156967,735
1.158633,747
1.1603,807
1.161967,770
1.163633,733
1.1653,686
1.166967,736
1.168633,665
1.1703,695
1.171967,579
1.173633,553
1.1753,840
1.176967,1016
1.178633,840
1.1803,757
1.181967,618
1.183633,716
1.1853,814
1.186967,761
1.188633,770
1.1903,779
1.191967,782
1.193633,784
1.1953,566
1.196967,620
1.198633,663
