"SampleName","A2Rd2_01-46"
"Target Mass 1",
"Column Name","IA-3 (3um, 4.6X100)"
"Channel","QDa 1: SIR Ch2"
0.00195,939
0.003616667,834
0.005283333,796
0.00695,1029
0.008616666,1163
0.01028333,1107
0.01195,1239
0.01361667,1295
0.01528333,1263
0.01695,1230
0.01861667,1032
0.02028333,1319
0.02195,1397
0.02361667,1160
0.02528333,1183
0.02695,1362
0.02861667,1092
0.03028333,1222
0.03195,951
0.03361667,1180
0.03528333,1232
0.03695,1108
0.03861667,1269
0.04028333,1317
0.04195,1058
0.04361667,1125
0.04528333,1191
0.04695,1242
0.04861667,1285
0.05028334,1420
0.05195,988
0.05361667,1201
0.05528333,1243
0.05695,1006
0.05861667,1103
0.06028333,1149
0.06195,1171
0.06361666,985
0.06528334,1072
0.06695,1069
0.06861667,1160
0.07028333,807
0.07195,1066
0.07361667,1043
0.07528333,1020
0.07695,1032
0.07861666,1044
0.08028334,1012
0.08195,1037
0.08361667,1003
0.08528333,968
0.08695,931
0.08861667,893
0.09028333,1000
0.09195,939
0.09361666,997
0.09528334,1042
0.09695,1045
0.09861667,1095
0.1002833,1049
0.10195,1002
0.1036167,1104
0.1052833,1076
0.10695,1104
0.1086167,912
0.1102833,1062
0.11195,1003
0.1136167,1220
0.1152833,1321
0.11695,1212
0.1186167,1086
0.1202833,976
0.12195,972
0.1236167,991
0.1252833,960
0.12695,930
0.1286167,986
0.1302833,959
0.13195,927
0.1336167,1111
0.1352833,1127
0.13695,897
0.1386167,957
0.1402833,1054
0.14195,942
0.1436167,972
0.1452833,950
0.14695,995
0.1486167,1040
0.1502833,1049
0.15195,1057
0.1536167,1051
0.1552833,1074
0.15695,1097
0.1586167,1099
0.1602833,1027
0.16195,1076
0.1636167,963
0.1652833,1132
0.16695,1095
0.1686167,1014
0.1702833,1004
0.17195,1050
0.1736167,1032
0.1752833,1014
0.17695,1076
0.1786167,1093
0.1802833,933
0.18195,838
0.1836167,897
0.1852833,926
0.18695,955
0.1886167,1046
0.1902833,1043
0.19195,979
0.1936167,1067
0.1952833,898
0.19695,1063
0.1986167,1046
0.2002833,1128
0.20195,1085
0.2036167,1063
0.2052833,1047
0.20695,1060
0.2086167,1023
0.2102833,788
0.21195,1041
0.2136167,1121
0.2152833,1115
0.21695,1108
0.2186167,997
0.2202833,1032
0.22195,1067
0.2236167,1145
0.2252833,1181
0.22695,1217
0.2286167,1222
0.2302833,1227
0.23195,1299
0.2336167,1121
0.2352833,1169
0.23695,1427
0.2386167,1330
0.2402833,1318
0.24195,1330
0.2436167,1415
0.2453,1398
0.24695,1417
0.2486167,1437
0.2502833,1422
0.25195,1408
0.2536167,1428
0.2552833,1481
0.25695,1534
0.2586167,1535
0.2602833,1536
0.26195,1277
0.2636167,1498
0.2652833,1523
0.26695,1851
0.2686167,1784
0.2702833,1806
0.27195,1688
0.2736167,1751
0.2752833,1751
0.27695,1751
0.2786167,2006
0.2803,2074
0.28195,1980
0.2836167,1873
0.2852833,2128
0.28695,1960
0.2886167,2026
0.2902833,2163
0.29195,1889
0.2936167,1955
0.2953,2369
0.29695,2407
0.2986333,2590
0.3002833,2607
0.30195,2347
0.3036167,2133
0.3052833,2365
0.30695,2225
0.3086167,2290
0.3102833,2478
0.31195,2395
0.3136167,2370
0.3153,2073
0.31695,2389
0.3186167,2243
0.3202833,2386
0.32195,2068
0.3236167,1984
0.3253,2147
0.32695,2002
0.3286167,2051
0.3302833,1863
0.33195,1922
0.3336333,1977
0.3352833,1645
0.3369667,2055
0.3386167,1739
0.3402833,1619
0.34195,1857
0.3436167,1846
0.3453,1802
0.34695,1759
0.3486167,1678
0.3503,1544
0.35195,1756
0.3536167,1814
0.3552833,1554
0.35695,1811
0.3586167,1446
0.3602833,1688
0.36195,1900
0.3636167,2720
0.3652833,5338
0.3669667,5264
0.3686333,5540
0.3703,5301
0.3719667,5062
0.3736333,5591
0.3753,4439
0.3769667,3198
0.3786167,2687
0.3803,2198
0.38195,1336
0.3836167,930
0.3853,652
0.3869667,701
0.3886333,500
0.3903,570
0.39195,526
0.3936333,483
0.3953,504
0.3969667,466
0.3986167,387
0.4003,629
0.40195,633
0.4036333,653
0.4053,674
0.4069667,882
0.4086333,983
0.4103,1029
0.4119667,1010
0.4136333,1002
0.4152833,971
0.4169667,944
0.4186167,918
0.4203,1056
0.4219667,1128
0.4236333,1149
0.4253,868
0.4269667,1010
0.4286333,1165
0.4303,1087
0.4319667,1116
0.4336333,1209
0.4353,1185
0.4369667,1251
0.4386333,1317
0.4403,1291
0.4419667,1266
0.4436333,1291
0.4453,1316
0.4469667,1441
0.4486333,1779
0.4503,1768
0.4519667,1706
0.4536333,1760
0.4553,1778
0.4569667,1770
0.4586333,1649
0.4603,1759
0.4619667,1690
0.4636333,1712
0.4653,1751
0.4669667,1705
0.4686333,1658
0.4703,1722
0.4719667,1598
0.4736333,1590
0.4753,1583
0.4769667,1379
0.4786333,1517
0.4803,1560
0.4819667,1462
0.4836333,1364
0.4853,1339
0.4869667,1535
0.4886333,1539
0.4903,1339
0.4919667,1270
0.4936333,1295
0.4953,1182
0.4969667,1084
0.4986333,1117
0.5003,1246
0.5019667,1223
0.5036333,1038
0.5053,1026
0.5069667,1010
0.5086333,1021
0.5103,1194
0.5119666,1226
0.5136333,948
0.5153,1246
0.5169666,1128
0.5186333,1100
0.5203,1222
0.5219667,1035
0.5236334,1091
0.5253,1127
0.5269667,1095
0.5286334,1063
0.5303,984
0.5319667,1125
0.5336334,1020
0.5353,1140
0.5369667,1289
0.5386333,1245
0.5403,1154
0.5419667,1163
0.5436333,1151
0.5453,1041
0.5469667,1059
0.5486333,1076
0.5503,1071
0.5519667,1118
0.5536333,1192
0.5553,1211
0.5569667,1118
0.5586333,1158
0.5603,1149
0.5619667,1043
0.5636333,938
0.5653,898
0.5669667,959
0.5686333,886
0.5703,1010
0.5719666,991
0.5736333,973
0.5753,998
0.5769666,914
0.5786333,831
0.5803,1188
0.5819666,1078
0.5836333,968
0.5853,908
0.5869667,986
0.5886334,972
0.5903,957
0.5919667,1138
0.5936334,1191
0.5953,1162
0.5969667,1162
0.5986333,1024
0.6003,1008
0.6019667,1028
0.6036333,1034
0.6053,1000
0.6069667,1074
0.6086333,1025
0.6103,976
0.6119667,1147
0.6136333,1166
0.6153,1216
0.6169667,988
0.6186333,1146
0.6203,1088
0.6219667,1201
0.6236333,973
0.6253,1123
0.6269667,1228
0.6286333,1089
0.6303,880
0.6319667,1359
0.6336333,956
0.6353,1048
0.6369666,1274
0.6386333,1337
0.6403,1302
0.6419666,1237
0.6436333,1227
0.6453,898
0.6469667,1095
0.6486334,1146
0.6503,1110
0.6519667,1140
0.6536334,1124
0.6553,1108
0.6569667,1076
0.6586334,1045
0.6603,1017
0.6619667,828
0.6636333,897
0.6653,967
0.6669667,1016
0.6686333,966
0.6703,916
0.6719667,955
0.6736333,994
0.6753,1054
0.6769667,1098
0.6786333,1142
0.6803,1559
0.6819667,1498
0.6836333,1545
0.6853,1532
0.6869667,1953
0.6886333,2413
0.6903,2513
0.6919667,3048
0.6936333,3361
0.6953,3921
0.6969666,4586
0.6986333,4537
0.7003,5115
0.7019666,5913
0.7036333,6221
0.7053,6668
0.7069666,7027
0.7086333,7502
0.7103,7756
0.7119667,7695
0.7136334,7792
0.7153,7708
0.7169667,7872
0.7186334,7527
0.7203,7066
0.7219667,6508
0.7236333,6290
0.7253,5853
0.7269667,5586
0.7286333,4644
0.7303,3988
0.7319667,3717
0.7336333,3660
0.7353,3137
0.7369667,2361
0.7386333,2232
0.7403,2436
0.7419667,1911
0.7436333,2097
0.7453,1639
0.7469667,1522
0.7486333,1721
0.7503,1538
0.7519667,1304
0.7536333,1359
0.7553,1328
0.7569667,1254
0.7586333,1144
0.7603,1282
0.7619666,1377
0.7636333,1067
0.7653,1199
0.7669666,1243
0.7686333,1069
0.7703,1059
0.7719667,1082
0.7736334,1189
0.7753,1140
0.7769667,1092
0.7786334,1205
0.7803,1090
0.7819667,1230
0.7836334,1297
0.7853,1331
0.7869667,1641
0.7886333,1578
0.7903,1605
0.7919667,1760
0.7936333,2103
0.7953,2253
0.7969667,2769
0.7986333,2735
0.8003,2953
0.8019667,3034
0.8036333,3666
0.8053,3877
0.8069667,3801
0.8086333,4107
0.8103,4293
0.8119667,4087
0.8136333,4632
0.8153,5136
0.8169667,4896
0.8186333,5133
0.8203,5017
0.8219666,4901
0.8236333,5151
0.8253,4840
0.8269666,4264
0.8286333,3936
0.8303,3574
0.8319666,4079
0.8336333,3180
0.8353,2843
0.8369667,2513
0.8386334,2404
0.8403,2481
0.8419667,2018
0.8436334,2032
0.8453,1979
0.8469667,1898
0.8486333,1535
0.8503,1723
0.8519667,1596
0.8536333,1599
0.8553,1363
0.8569667,1653
0.8586333,1209
0.8603,1518
0.8619667,1426
0.8636333,1464
0.8653,1692
0.8669667,2037
0.8686333,2247
0.8703,2386
0.8719667,2395
0.8736333,2264
0.8753,2278
0.8769667,2284
0.8786333,2260
0.8803,1948
0.8819667,1791
0.8836333,1914
0.8853,2036
0.8869666,1611
0.8886333,1988
0.8903,2087
0.8919666,1837
0.8936333,1903
0.8953,1601
0.8969667,1726
0.8986334,1932
0.9003,1709
0.9019667,1675
0.9036334,1701
0.9053,1604
0.9069667,1889
0.9086334,2019
0.9103,1859
0.9119667,1724
0.9136333,1480
0.9153,2033
0.9169667,1781
0.9186333,1759
0.9203,1732
0.9219667,1589
0.9236333,1526
0.9253,1585
0.9269667,1547
0.9286333,1508
0.9303,1675
0.9319667,1772
0.9336333,1664
0.9353,1641
0.9369667,1412
0.9386333,1456
0.9403,1501
0.9419667,1288
0.9436333,1624
0.9453,1571
0.9469666,1550
0.9486333,1530
0.9503,1586
0.9519666,1642
0.9536333,1631
0.9553,1821
0.9569666,1911
0.9586333,1880
0.9603,2459
0.9619667,3043
0.9636334,3023
0.9653,3342
0.9669667,3828
0.9686334,4226
0.9703,5031
0.9719667,5929
0.9736333,6610
0.9753,6919
0.9769667,9012
0.9786333,9284
0.9803,10876
0.9819667,12168
0.9836333,13756
0.9853,14780
0.9869667,16420
0.9886333,18156
0.9903,19912
0.9919667,19508
0.9936333,24324
0.9953,25304
0.9969667,26460
0.9986333,26872
1.0003,29448
1.001967,28536
1.003633,30548
1.0053,28904
1.006967,28064
1.008633,29732
1.0103,28700
1.011967,28208
1.013633,26400
1.0153,24732
1.016967,22892
1.018633,21904
1.0203,19412
1.021967,18224
1.023633,16112
1.0253,14456
1.026967,13864
1.028633,11988
1.0303,10244
1.031967,9744
1.033633,8888
1.0353,7847
1.036967,7372
1.038633,7496
1.0403,6603
1.041967,5578
1.043633,6240
1.0453,5773
1.046967,4739
1.048633,5352
1.0503,5125
1.051967,4531
1.053633,4590
1.0553,4609
1.056967,4674
1.058633,4632
1.0603,4631
1.061967,4629
1.063633,4512
1.0653,4171
1.066967,4798
1.068633,4527
1.0703,4836
1.071967,4399
1.073633,4496
1.0753,5127
1.076967,4900
1.078633,5098
1.0803,5610
1.081967,5600
1.083633,5938
1.0853,6037
1.086967,7423
1.088633,6981
1.0903,6918
1.091967,7626
1.093633,7648
1.0953,8472
1.096967,8724
1.098633,8336
1.1003,8772
1.101967,8736
1.103633,9120
1.1053,9296
1.106967,8280
1.108633,8204
1.1103,7483
1.111967,7764
1.113633,7967
1.1153,7479
1.116967,7507
1.118633,7032
1.1203,6311
1.121967,5851
1.123633,5431
1.1253,4898
1.126967,4745
1.128633,4799
1.1303,4427
1.131967,3943
1.133633,3501
1.1353,3292
1.136967,3210
1.138633,3041
1.1403,2782
1.141967,2406
1.143633,2406
1.1453,2715
1.146967,2307
1.148633,1891
1.1503,2240
1.151967,2384
1.153633,1904
1.1553,1950
1.156967,1522
1.158633,1666
1.1603,1538
1.161967,1429
1.163633,1384
1.1653,1334
1.166967,1283
1.168633,1402
1.1703,1530
1.171967,1466
1.173633,1328
1.1753,1417
1.176967,1406
1.178633,1370
1.1803,1333
1.181967,1497
1.183633,1181
1.1853,1369
1.186967,1243
1.188633,1498
1.1903,1480
1.191967,1360
1.193633,1510
1.1953,1517
1.196967,1528
1.198633,1349
