"SampleName","A2Rd2_01-78"
"Target Mass 1",
"Column Name","IA-3 (3um, 4.6X100)"
"Channel","QDa 1: SIR Ch2"
0.00195,591
0.003616667,785
0.005283333,635
0.00695,849
0.008616666,810
0.01028333,771
0.01195,708
0.01361667,827
0.01528333,842
0.01695,857
0.01861667,1019
0.02028333,973
0.02195,837
0.02361667,863
0.02528333,703
0.02695,866
0.02861667,914
0.03028333,1020
0.03195,889
0.03361667,894
0.03528333,740
0.03695,1004
0.03861667,980
0.04028333,777
0.04195,880
0.04361667,1028
0.04528333,892
0.04695,923
0.04861667,1002
0.05028334,852
0.05195,875
0.05361667,779
0.05528333,835
0.05695,891
0.05861667,911
0.06028333,774
0.06195,792
0.06361666,801
0.06528334,1034
0.06695,915
0.06861667,797
0.07028333,715
0.07195,878
0.07361667,936
0.07528333,859
0.07695,801
0.07861666,881
0.08028334,783
0.08195,917
0.08361667,936
0.08528333,899
0.08695,862
0.08861667,834
0.09028333,816
0.09195,801
0.09361666,787
0.09528334,788
0.09695,788
0.09861667,835
0.1002833,827
0.10195,819
0.1036167,796
0.1052833,809
0.10695,748
0.1086167,785
0.1102833,810
0.11195,834
0.1136167,896
0.1152833,900
0.11695,948
0.1186167,1042
0.1202833,751
0.12195,722
0.1236167,868
0.1252833,828
0.12695,806
0.1286167,785
0.1302833,899
0.13195,888
0.1336167,877
0.1352833,774
0.13695,760
0.1386167,797
0.1402833,811
0.14195,824
0.1436167,905
0.1452833,886
0.14695,865
0.1486167,914
0.1502833,896
0.15195,877
0.1536167,708
0.1552833,818
0.15695,773
0.1586167,728
0.1602833,772
0.16195,736
0.1636167,700
0.1652833,862
0.16695,867
0.1686167,908
0.1702833,833
0.17195,917
0.1736167,790
0.1752833,834
0.17695,971
0.1786167,930
0.1802833,967
0.18195,839
0.1836167,847
0.1852833,923
0.18695,954
0.1886167,890
0.1902833,802
0.19195,791
0.1936167,856
0.1952833,921
0.19695,677
0.1986167,1029
0.2002833,1067
0.20195,1077
0.2036167,695
0.2052833,1014
0.20695,888
0.2086167,1051
0.2102833,942
0.21195,955
0.2136167,973
0.2152833,857
0.21695,1004
0.2186167,1089
0.2202833,1018
0.22195,947
0.2236167,1026
0.2252833,979
0.22695,1047
0.2286333,1059
0.2302833,1133
0.23195,1114
0.2336167,1095
0.2352833,1149
0.23695,1172
0.2386167,1131
0.2402833,1248
0.24195,1329
0.2436167,1308
0.2453,1047
0.24695,970
0.2486167,1221
0.2502833,1194
0.25195,1147
0.2536167,1141
0.2552833,1135
0.25695,1214
0.2586167,972
0.2602833,1101
0.26195,1133
0.2636333,1252
0.2652833,1160
0.26695,1190
0.2686167,1245
0.2702833,1021
0.27195,878
0.2736167,988
0.2752833,985
0.27695,897
0.2786167,1050
0.2803,1078
0.28195,1095
0.2836167,1046
0.2852833,958
0.2869667,917
0.2886167,966
0.2902833,952
0.29195,938
0.2936167,908
0.2952833,877
0.29695,988
0.2986333,1099
0.3002833,1039
0.30195,1021
0.3036167,1003
0.3052833,1080
0.30695,1013
0.3086167,946
0.3102833,1193
0.31195,1281
0.3136167,1116
0.3153,1304
0.31695,1178
0.3186167,1260
0.3202833,1102
0.32195,1119
0.3236167,1288
0.3252833,1199
0.32695,1222
0.3286333,1073
0.3302833,1294
0.3319667,1088
0.3336333,1122
0.3353,1297
0.33695,1303
0.3386333,1355
0.3402833,1187
0.3419667,1425
0.3436333,1526
0.3453,1493
0.3469667,1405
0.3486333,1196
0.3503,1382
0.3519667,1441
0.3536333,1230
0.3553,1679
0.3569667,1621
0.3586333,1318
0.3602833,1257
0.3619667,1521
0.3636167,1464
0.3653,2684
0.3669667,4029
0.3686333,4234
0.3703,4469
0.3719667,4471
0.3736333,4473
0.3753,4378
0.3769667,4283
0.3786333,4060
0.3803,3482
0.3819667,3045
0.3836333,2439
0.3853,2267
0.3869667,1741
0.3886333,1343
0.3903,1261
0.3919667,1032
0.3936333,782
0.3953,802
0.3969667,639
0.3986333,465
0.4003,495
0.4019667,543
0.4036333,447
0.4053,470
0.4069667,493
0.4086333,580
0.4103,643
0.4119667,700
0.4136333,578
0.4153,677
0.4169667,812
0.4186333,471
0.4203,836
0.4219667,470
0.4236333,691
0.4253,721
0.4269667,723
0.4286333,909
0.4303,915
0.4319667,818
0.4336333,831
0.4353,844
0.4369667,964
0.4386333,959
0.4403,953
0.4419667,868
0.4436333,1072
0.4453,1219
0.4469667,1148
0.4486333,1235
0.4503,1205
0.4519667,1125
0.4536333,1045
0.4553,1269
0.4569667,1378
0.4586333,1367
0.4603,1163
0.4619667,1519
0.4636333,1360
0.4653,1455
0.4669667,1539
0.4686333,1457
0.4703,1456
0.4719667,1673
0.4736333,1506
0.4753,1339
0.4769667,1411
0.4786333,1247
0.4803,1263
0.4819667,1138
0.4836333,1113
0.4853,1245
0.4869667,1214
0.4886333,1226
0.4903,1238
0.4919667,1171
0.4936333,1120
0.4953,1070
0.4969667,1132
0.4986333,1109
0.5003,1013
0.5019667,948
0.5036333,1159
0.5053,1068
0.5069667,1082
0.5086333,929
0.5103,990
0.5119666,914
0.5136333,953
0.5153,929
0.5169666,941
0.5186333,922
0.5203,968
0.5219667,796
0.5236334,1056
0.5253,1019
0.5269667,783
0.5286334,874
0.5303,962
0.5319667,829
0.5336334,927
0.5353,916
0.5369667,906
0.5386333,897
0.5403,920
0.5419667,894
0.5436333,868
0.5453,951
0.5469667,888
0.5486333,826
0.5503,866
0.5519667,972
0.5536333,914
0.5553,856
0.5569667,802
0.5586333,889
0.5603,713
0.5619667,769
0.5636333,809
0.5653,762
0.5669667,715
0.5686333,990
0.5703,1086
0.5719666,855
0.5736333,1031
0.5753,858
0.5769666,1029
0.5786333,703
0.5803,806
0.5819666,758
0.5836333,983
0.5853,1033
0.5869667,915
0.5886334,894
0.5903,942
0.5919667,913
0.5936334,869
0.5953,826
0.5969667,842
0.5986333,859
0.6003,884
0.6019667,1012
0.6036333,1100
0.6053,1039
0.6069667,911
0.6086333,1024
0.6103,813
0.6119667,869
0.6136333,924
0.6153,846
0.6169667,810
0.6186333,1026
0.6203,1009
0.6219667,963
0.6236333,889
0.6253,949
0.6269667,984
0.6286333,702
0.6303,780
0.6319667,858
0.6336333,784
0.6353,857
0.6369666,740
0.6386333,891
0.6403,690
0.6419666,864
0.6436333,914
0.6453,797
0.6469667,930
0.6486334,834
0.6503,885
0.6519667,706
0.6536334,747
0.6553,842
0.6569667,838
0.6586334,940
0.6603,908
0.6619667,823
0.6636333,806
0.6653,882
0.6669667,810
0.6686333,954
0.6703,678
0.6719667,772
0.6736333,805
0.6753,881
0.6769667,875
0.6786333,833
0.6803,834
0.6819667,866
0.6836333,897
0.6853,922
0.6869667,888
0.6886333,948
0.6903,844
0.6919667,678
0.6936333,720
0.6953,693
0.6969666,862
0.6986333,937
0.7003,871
0.7019666,770
0.7036333,888
0.7053,761
0.7069666,858
0.7086333,903
0.7103,1020
0.7119667,1030
0.7136334,736
0.7153,887
0.7169667,1014
0.7186334,762
0.7203,739
0.7219667,801
0.7236333,984
0.7253,965
0.7269667,750
0.7286333,861
0.7303,789
0.7319667,755
0.7336333,877
0.7353,736
0.7369667,820
0.7386333,791
0.7403,771
0.7419667,751
0.7436333,852
0.7453,830
0.7469667,902
0.7486333,897
0.7503,802
0.7519667,805
0.7536333,825
0.7553,845
0.7569667,654
0.7586333,679
0.7603,703
0.7619666,774
0.7636333,884
0.7653,535
0.7669666,685
0.7686333,810
0.7703,849
0.7719667,896
0.7736334,892
0.7753,765
0.7769667,720
0.7786334,827
0.7803,880
0.7819667,888
0.7836334,907
0.7853,925
0.7869667,746
0.7886333,817
0.7903,864
0.7919667,958
0.7936333,909
0.7953,860
0.7969667,879
0.7986333,890
0.8003,684
0.8019667,809
0.8036333,928
0.8053,895
0.8069667,889
0.8086333,882
0.8103,858
0.8119667,834
0.8136333,781
0.8153,829
0.8169667,878
0.8186333,891
0.8203,931
0.8219666,617
0.8236333,866
0.8253,949
0.8269666,1112
0.8286333,808
0.8303,787
0.8319666,901
0.8336333,915
0.8353,822
0.8369667,730
0.8386334,779
0.8403,873
0.8419667,807
0.8436334,806
0.8453,805
0.8469667,924
0.8486333,908
0.8503,681
0.8519667,830
0.8536333,834
0.8553,830
0.8569667,752
0.8586333,874
0.8603,809
0.8619667,802
0.8636333,878
0.8653,829
0.8669667,912
0.8686333,930
0.8703,837
0.8719667,978
0.8736333,919
0.8753,900
0.8769667,896
0.8786333,764
0.8803,1025
0.8819667,992
0.8836333,959
0.8853,864
0.8869666,1015
0.8886333,1212
0.8903,1148
0.8919666,1172
0.8936333,1196
0.8953,1038
0.8969667,1097
0.8986334,1155
0.9003,1172
0.9019667,1188
0.9036334,1155
0.9053,1123
0.9069667,1133
0.9086334,1118
0.9103,1151
0.9119667,1134
0.9136333,1117
0.9153,1156
0.9169667,1120
0.9186333,1194
0.9203,1266
0.9219667,1268
0.9236333,1173
0.9253,1162
0.9269667,1142
0.9286333,1156
0.9303,1169
0.9319667,1151
0.9336333,1132
0.9353,1056
0.9369667,1005
0.9386333,1093
0.9403,1051
0.9419667,1052
0.9436333,1053
0.9453,1067
0.9469666,1081
0.9486333,1077
0.9503,1063
0.9519666,976
0.9536333,957
0.9553,1067
0.9569666,1032
0.9586333,930
0.9603,1014
0.9619667,1099
0.9636334,1036
0.9653,973
0.9669667,1056
0.9686334,805
0.9703,837
0.9719667,899
0.9736333,927
0.9753,803
0.9769667,975
0.9786333,886
0.9803,796
0.9819667,938
0.9836333,821
0.9853,884
0.9869667,932
0.9886333,764
0.9903,760
0.9919667,854
0.9936333,811
0.9953,768
0.9969667,837
0.9986333,836
1.0003,835
1.001967,1014
1.003633,977
1.0053,787
1.006967,705
1.008633,781
1.0103,758
1.011967,736
1.013633,737
1.0153,755
1.016967,774
1.018633,825
1.0203,877
1.021967,950
1.023633,937
1.0253,899
1.026967,831
1.028633,841
1.0303,776
1.031967,839
1.033633,882
1.0353,748
1.036967,759
1.038633,770
1.0403,787
1.041967,812
1.043633,806
1.0453,1070
1.046967,1112
1.048633,870
1.0503,753
1.051967,722
1.053633,688
1.0553,735
1.056967,782
1.058633,753
1.0603,665
1.061967,735
1.063633,818
1.0653,599
1.066967,697
1.068633,795
1.0703,852
1.071967,842
1.073633,857
1.0753,873
1.076967,809
1.078633,816
1.0803,823
1.081967,974
1.083633,989
1.0853,1009
1.086967,901
1.088633,804
1.0903,843
1.091967,774
1.093633,797
1.0953,819
1.096967,841
1.098633,672
1.1003,805
1.101967,885
1.103633,747
1.1053,859
1.106967,790
1.108633,870
1.1103,851
1.111967,785
1.113633,874
1.1153,718
1.116967,957
1.118633,954
1.1203,829
1.121967,805
1.123633,754
1.1253,875
1.126967,897
1.128633,886
1.1303,884
1.131967,881
1.133633,880
1.1353,880
1.136967,764
1.138633,911
1.1403,861
1.141967,810
1.143633,682
1.1453,750
1.146967,714
1.148633,678
1.1503,678
1.151967,677
1.153633,701
1.1553,874
1.156967,845
1.158633,847
1.1603,768
1.161967,780
1.163633,927
1.1653,818
1.166967,709
1.168633,768
1.1703,776
1.171967,784
1.173633,760
1.1753,751
1.176967,776
1.178633,801
1.1803,688
1.181967,824
1.183633,843
1.1853,809
1.186967,748
1.188633,741
1.1903,734
1.191967,758
1.193633,781
1.1953,768
1.196967,729
1.198633,690
