"SampleName","A2Rd2_01-43"
"Target Mass 1",
"Column Name","IA-3 (3um, 4.6X100)"
"Channel","QDa 1: SIR Ch1"
0.00195,358
0.003616667,494
0.005283333,483
0.00695,456
0.008616666,450
0.01028333,440
0.01195,430
0.01361667,441
0.01528333,453
0.01695,466
0.01861667,479
0.02028333,649
0.02195,652
0.02361667,413
0.02528333,523
0.02695,465
0.02861667,628
0.03028333,710
0.03195,607
0.03361667,751
0.03528333,583
0.03695,692
0.03861667,516
0.04028333,580
0.04195,458
0.04361667,589
0.04528333,610
0.04695,449
0.04861667,624
0.05028334,444
0.05195,581
0.05361667,405
0.05528333,470
0.05695,533
0.05861667,446
0.06028333,474
0.06195,501
0.06361666,517
0.06528334,518
0.06695,494
0.06861667,469
0.07028333,508
0.07195,467
0.07361667,382
0.07528333,591
0.07695,629
0.07861666,505
0.08028334,442
0.08195,590
0.08361667,431
0.08528333,660
0.08695,678
0.08861667,580
0.09028333,488
0.09195,429
0.09361666,352
0.09528334,619
0.09695,544
0.09861667,532
0.1002833,610
0.10195,572
0.1036167,534
0.1052833,611
0.10695,605
0.1086167,646
0.1102833,518
0.11195,554
0.1136167,522
0.1152833,478
0.11695,478
0.1186167,495
0.1202833,497
0.12195,499
0.1236167,507
0.1252833,515
0.12695,580
0.1286167,567
0.1302833,554
0.13195,499
0.1336167,518
0.1352833,449
0.13695,483
0.1386167,516
0.1402833,519
0.14195,471
0.1436167,482
0.1452833,515
0.14695,560
0.1486167,569
0.1502833,591
0.15195,468
0.1536167,522
0.1552833,470
0.15695,493
0.1586167,518
0.1602833,532
0.16195,481
0.1636167,506
0.1652833,532
0.16695,527
0.1686167,370
0.1702833,473
0.17195,641
0.1736167,562
0.1752833,438
0.17695,608
0.1786167,558
0.1802833,570
0.18195,549
0.1836167,548
0.1852833,547
0.18695,468
0.1886167,457
0.1902833,594
0.19195,408
0.1936167,390
0.1952833,519
0.19695,511
0.1986167,503
0.2002833,511
0.20195,510
0.2036167,506
0.2052833,541
0.20695,552
0.2086167,393
0.2102833,460
0.21195,462
0.2136167,463
0.2152833,383
0.21695,383
0.2186167,382
0.2202833,548
0.22195,602
0.2236167,476
0.2252833,426
0.22695,416
0.2286167,434
0.2302833,453
0.23195,447
0.2336167,442
0.2352833,510
0.23695,545
0.2386167,580
0.2402833,590
0.24195,468
0.2436167,554
0.2452833,432
0.24695,565
0.2486167,484
0.2502833,513
0.25195,542
0.2536167,652
0.2552833,316
0.25695,552
0.2586167,540
0.2602833,488
0.26195,493
0.2636167,440
0.2652833,476
0.26695,429
0.2686167,530
0.2702833,560
0.27195,584
0.2736167,455
0.2752833,475
0.27695,538
0.2786167,555
0.2802833,597
0.28195,491
0.2836167,586
0.2852833,566
0.28695,546
0.2886167,447
0.2902833,471
0.29195,523
0.2936167,574
0.2952833,594
0.29695,461
0.2986333,482
0.3002833,543
0.30195,493
0.3036167,443
0.3052833,466
0.30695,490
0.3086167,475
0.3102833,621
0.31195,626
0.3136167,590
0.3153,673
0.31695,509
0.3186167,520
0.3202833,455
0.32195,495
0.3236167,608
0.3252833,760
0.32695,668
0.3286167,446
0.3302833,666
0.33195,607
0.3336333,426
0.3352833,575
0.33695,523
0.3386167,641
0.3402833,664
0.34195,489
0.3436167,627
0.3452833,582
0.34695,575
0.3486167,588
0.3503,585
0.35195,578
0.3536333,600
0.3552833,622
0.3569667,542
0.3586167,607
0.3602833,671
0.36195,648
0.3636167,926
0.3653,1368
0.3669667,2899
0.3686333,4607
0.3703,6823
0.3719667,7045
0.3736167,7205
0.3753,6292
0.37695,4645
0.3786167,4443
0.3802833,3488
0.38195,3045
0.3836167,1972
0.3853,1820
0.3869667,1467
0.3886333,1505
0.3903,1307
0.3919667,1104
0.3936167,1010
0.3953,1097
0.39695,910
0.3986167,961
0.4002833,1009
0.40195,1131
0.4036333,1159
0.4053,1187
0.40695,1569
0.4086333,1706
0.4102833,1980
0.4119667,1609
0.4136333,1723
0.4152833,1837
0.41695,1545
0.4186167,1582
0.4203,1751
0.4219667,1704
0.4236333,1224
0.4253,1572
0.4269667,1422
0.4286333,1485
0.4303,1640
0.4319667,1956
0.4336333,2698
0.4353,2987
0.4369667,4025
0.4386333,6090
0.4403,7724
0.4419667,10468
0.4436333,14988
0.4453,20124
0.4469667,26060
0.4486333,35104
0.4503,46080
0.4519667,60720
0.4536333,74128
0.4553,91728
0.4569667,113008
0.4586333,135808
0.4603,160128
0.4619667,196736
0.4636333,231616
0.4653,273088
0.4669667,305344
0.4686333,345088
0.4703,372800
0.4719667,390016
0.4736333,394432
0.4753,386816
0.4769667,368384
0.4786333,337024
0.4803,298560
0.4819667,256448
0.4836333,213824
0.4853,172096
0.4869667,136960
0.4886333,107264
0.4903,82608
0.4919667,62880
0.4936333,49280
0.4953,38272
0.4969667,31016
0.4986333,25236
0.5003,21372
0.5019667,16216
0.5036333,15336
0.5053,12920
0.5069667,11468
0.5086333,10144
0.5103,9036
0.5119666,8600
0.5136333,7251
0.5153,7070
0.5169666,6011
0.5186333,5042
0.5203,5613
0.5219667,4907
0.5236334,4608
0.5253,4860
0.5269667,4519
0.5286334,4429
0.5303,4201
0.5319667,4129
0.5336334,3991
0.5353,3358
0.5369667,3552
0.5386333,3674
0.5403,3720
0.5419667,3360
0.5436333,3309
0.5453,3065
0.5469667,2747
0.5486333,2686
0.5503,2827
0.5519667,2576
0.5536333,2650
0.5553,2532
0.5569667,2518
0.5586333,2548
0.5603,2103
0.5619667,2459
0.5636333,2337
0.5653,2122
0.5669667,1905
0.5686333,2220
0.5703,2013
0.5719666,1741
0.5736333,1962
0.5753,1699
0.5769666,2179
0.5786333,2148
0.5803,1656
0.5819666,2064
0.5836333,1639
0.5853,1986
0.5869667,1965
0.5886334,1997
0.5903,1825
0.5919667,2053
0.5936334,1751
0.5953,1757
0.5969667,1773
0.5986333,1806
0.6003,1576
0.6019667,1655
0.6036333,1680
0.6053,1653
0.6069667,1668
0.6086333,1684
0.6103,1579
0.6119667,1577
0.6136333,1691
0.6153,1620
0.6169667,1549
0.6186333,1316
0.6203,1596
0.6219667,1515
0.6236333,1336
0.6253,1535
0.6269667,1260
0.6286333,1267
0.6303,1273
0.6319667,1495
0.6336333,1423
0.6353,1351
0.6369666,1472
0.6386333,1144
0.6403,1250
0.6419666,1235
0.6436333,1184
0.6453,1357
0.6469667,1363
0.6486334,1250
0.6503,1322
0.6519667,1293
0.6536334,1194
0.6553,1153
0.6569667,1112
0.6586334,1017
0.6603,1111
0.6619667,1060
0.6636333,1010
0.6653,1020
0.6669667,1030
0.6686333,1240
0.6703,1368
0.6719667,1203
0.6736333,1125
0.6753,1115
0.6769667,1205
0.6786333,1091
0.6803,1098
0.6819667,1105
0.6836333,1157
0.6853,996
0.6869667,1103
0.6886333,1143
0.6903,1105
0.6919667,1053
0.6936333,1030
0.6953,1175
0.6969666,1127
0.6986333,925
0.7003,996
0.7019666,1048
0.7036333,1037
0.7053,1045
0.7069666,1054
0.7086333,1029
0.7103,1050
0.7119667,1072
0.7136334,1103
0.7153,1137
0.7169667,1153
0.7186334,1168
0.7203,981
0.7219667,1181
0.7236333,1096
0.7253,983
0.7269667,1132
0.7286333,1047
0.7303,1037
0.7319667,1151
0.7336333,1231
0.7353,1279
0.7369667,1199
0.7386333,1152
0.7403,1152
0.7419667,1152
0.7436333,1107
0.7453,987
0.7469667,1177
0.7486333,1141
0.7503,1020
0.7519667,1166
0.7536333,1124
0.7553,1161
0.7569667,1154
0.7586333,1148
0.7603,910
0.7619666,1046
0.7636333,1251
0.7653,1084
0.7669666,1196
0.7686333,1035
0.7703,1193
0.7719667,1024
0.7736334,1054
0.7753,1248
0.7769667,1162
0.7786334,1125
0.7803,929
0.7819667,980
0.7836334,1173
0.7853,944
0.7869667,1155
0.7886333,1116
0.7903,1170
0.7919667,1096
0.7936333,1061
0.7953,1169
0.7969667,1226
0.7986333,1187
0.8003,1180
0.8019667,1173
0.8036333,1168
0.8053,1162
0.8069667,1076
0.8086333,1141
0.8103,1154
0.8119667,1320
0.8136333,1356
0.8153,1324
0.8169667,1259
0.8186333,1104
0.8203,1319
0.8219666,1176
0.8236333,1190
0.8253,1227
0.8269666,1328
0.8286333,1354
0.8303,1363
0.8319666,1345
0.8336333,1327
0.8353,1353
0.8369667,1049
0.8386334,1184
0.8403,1185
0.8419667,1186
0.8436334,1279
0.8453,1259
0.8469667,1217
0.8486333,1138
0.8503,1120
0.8519667,1149
0.8536333,1058
0.8553,1238
0.8569667,822
0.8586333,910
0.8603,939
0.8619667,1075
0.8636333,1013
0.8653,1467
0.8669667,1727
0.8686333,2257
0.8703,2356
0.8719667,3194
0.8736333,3776
0.8753,4166
0.8769667,4399
0.8786333,5069
0.8803,4800
0.8819667,4693
0.8836333,4735
0.8853,4406
0.8869666,4400
0.8886333,4405
0.8903,4411
0.8919666,4681
0.8936333,4633
0.8953,4054
0.8969667,4498
0.8986334,4117
0.9003,4614
0.9019667,4142
0.9036334,4350
0.9053,4666
0.9069667,4555
0.9086334,4318
0.9103,4817
0.9119667,4510
0.9136333,4548
0.9153,4475
0.9169667,4334
0.9186333,3967
0.9203,4403
0.9219667,4397
0.9236333,4348
0.9253,4035
0.9269667,4261
0.9286333,4134
0.9303,3824
0.9319667,4111
0.9336333,3631
0.9353,3613
0.9369667,3146
0.9386333,3471
0.9403,3559
0.9419667,3141
0.9436333,2719
0.9453,3144
0.9469666,2727
0.9486333,2472
0.9503,2711
0.9519666,2494
0.9536333,2154
0.9553,2165
0.9569666,1966
0.9586333,1863
0.9603,1587
0.9619667,1626
0.9636334,1704
0.9653,1465
0.9669667,1645
0.9686334,1262
0.9703,1376
0.9719667,1047
0.9736333,1245
0.9753,1088
0.9769667,1103
0.9786333,990
0.9803,1049
0.9819667,872
0.9836333,826
0.9853,988
0.9869667,847
0.9886333,930
0.9903,888
0.9919667,800
0.9936333,815
0.9953,943
0.9969667,725
0.9986333,688
1.0003,750
1.001967,706
1.003633,662
1.0053,713
1.006967,718
1.008633,722
1.0103,552
1.011967,817
1.013633,712
1.0153,752
1.016967,719
1.018633,850
1.0203,784
1.021967,719
1.023633,878
1.0253,807
1.026967,939
1.028633,861
1.0303,857
1.031967,714
1.033633,642
1.0353,947
1.036967,824
1.038633,904
1.0403,860
1.041967,745
1.043633,794
1.0453,815
1.046967,719
1.048633,728
1.0503,737
1.051967,772
1.053633,806
1.0553,793
1.056967,779
1.058633,811
1.0603,783
1.061967,813
1.063633,842
1.0653,722
1.066967,786
1.068633,677
1.0703,825
1.071967,725
1.073633,856
1.0753,893
1.076967,923
1.078633,788
1.0803,726
1.081967,600
1.083633,842
1.0853,807
1.086967,885
1.088633,748
1.0903,818
1.091967,774
1.093633,732
1.0953,777
1.096967,796
1.098633,667
1.1003,834
1.101967,690
1.103633,818
1.1053,706
1.106967,703
1.108633,699
1.1103,762
1.111967,761
1.113633,759
1.1153,710
1.116967,771
1.118633,816
1.1203,773
1.121967,729
1.123633,754
1.1253,780
1.126967,805
1.128633,793
1.1303,781
1.131967,732
1.133633,672
1.1353,695
1.136967,917
1.138633,977
1.1403,624
1.141967,889
1.143633,724
1.1453,814
1.146967,782
1.148633,749
1.1503,826
1.151967,1014
1.153633,1057
1.1553,999
1.156967,895
1.158633,749
1.1603,1065
1.161967,1012
1.163633,857
1.1653,1004
1.166967,1035
1.168633,762
1.1703,1018
1.171967,906
1.173633,1081
1.1753,1053
1.176967,743
1.178633,1027
1.1803,995
1.181967,820
1.183633,729
1.1853,963
1.186967,1041
1.188633,833
1.1903,1061
1.191967,1138
1.193633,965
1.1953,777
1.196967,830
1.198633,961
