RT (min),
0.0016666667070239782,6690.0537
0.0033333334140479565,6683.6973
0.004999999888241291,6678.092
0.006666666362434626,6672.7363
0.00833333283662796,6666.7803
0.009999999776482582,6660.574
0.011666666716337204,6656.821
0.013333333656191826,6650.9146
0.015000000596046448,6644.308
0.01666666753590107,6637.802
0.01833333447575569,6631.345
0.020000001415610313,6624.9893
0.021666668355464935,6620.2344
0.023333335295319557,6617.5317
0.02500000223517418,6617.3813
0.0266666691750288,6619.183
0.028333336114883423,6620.2344
0.030000003054738045,6625.139
0.03166666999459267,6631.996
0.03333333507180214,6640.655
0.03500000014901161,6650.9146
0.036666665226221085,6663.027
0.03833333030343056,6674.638
0.03999999538064003,6685.299
0.0416666604578495,6695.1084
0.043333325535058975,6704.2676
0.04499999061226845,6712.676
0.04666665568947792,6720.2837
0.04833332076668739,6727.0903
0.049999985843896866,6733.046
0.05166665092110634,6738.3516
0.05333331599831581,6742.6055
0.054999981075525284,6746.409
0.056666646152734756,6749.4624
0.05833331122994423,6752.0146
0.0599999763071537,6753.9165
0.061666641384363174,6755.4683
0.06333331018686295,6756.719
0.06499997526407242,6758.0205
0.06666664034128189,6759.5723
0.06833330541849136,6761.574
0.06999997049570084,6764.7275
0.07166663557291031,6768.9316
0.07333330065011978,6774.537
0.07499996572732925,6781.644
0.07666663080453873,6790.353
0.0783332958817482,6800.6133
0.07999996095895767,6812.525
0.08166662603616714,6825.838
0.08333329111337662,6840.4023
0.08499995619058609,6855.7676
0.08666662126779556,6871.283
0.08833328634500504,6886.7485
0.08999995142221451,6901.9634
0.09166661649942398,6916.628
0.09333328157663345,6930.792
0.09499994665384293,6944.3057
0.0966666117310524,6957.2183
0.09833327680826187,6969.18
0.09999994188547134,6980.391
0.10166660696268082,6990.7017
0.10333327203989029,7000.511
0.10499993711709976,7009.7705
0.10666660219430923,7018.629
0.10833326727151871,7027.0376
0.10999993234872818,7034.745
0.11166659742593765,7042.1523
0.11333326250314713,7050.16
0.1149999275803566,7058.5186
0.11666659265756607,7066.226
0.11833325773477554,7074.1343
0.11999992281198502,7081.7417
0.12166658788919449,7089.6494
0.12333325296640396,7097.557
0.12499991804361343,7106.066
0.1266665905714035,7114.7744
0.12833325564861298,7123.533
0.12999992072582245,7131.0405
0.13166658580303192,7137.847
0.1333332508802414,7144.804
0.13499991595745087,7151.1606
0.13666658103466034,7157.4165
0.1383332461118698,7162.922
0.13999991118907928,7167.877
0.14166657626628876,7171.731
0.14333324134349823,7174.934
0.1449999064207077,7177.3364
0.14666657149791718,7179.138
0.14833323657512665,7180.2896
0.14999990165233612,7180.7397
0.1516665667295456,7180.79
0.15333323180675507,7180.139
0.15499989688396454,7179.138
0.156666561961174,7177.6367
0.15833322703838348,7175.635
0.15999989211559296,7173.2324
0.16166655719280243,7170.3794
0.1633332222700119,7167.126
0.16499988734722137,7163.673
0.16666655242443085,7159.819
0.16833321750164032,7155.6147
0.1699998825788498,7151.06
0.17166654765605927,7146.2554
0.17333321273326874,7141.3506
0.1749998778104782,7136.2456
0.17666654288768768,7131.0903
0.17833320796489716,7125.9854
0.17999987304210663,7120.83
0.1816665381193161,7115.625
0.18333320319652557,7110.52
0.18499986827373505,7105.415
0.18666653335094452,7100.41
0.188333198428154,7095.355
0.18999986350536346,7090.45
0.19166652858257294,7085.6455
0.1933331936597824,7081.091
0.19499985873699188,7076.5366
0.19666652381420135,7072.182
0.19833318889141083,7067.878
0.1999998539686203,7063.874
0.20166651904582977,7059.97
0.20333318412303925,7056.3164
0.20499984920024872,7052.7627
0.2066665142774582,7049.3594
0.20833317935466766,7046.2065
0.20999984443187714,7043.1533
0.2116665095090866,7040.4004
0.21333317458629608,7037.648
0.21499983966350555,7035.0454
0.21666650474071503,7032.0425
0.2183331698179245,7029.44
0.21999983489513397,7026.687
0.22166649997234344,7023.9844
0.22333316504955292,7020.931
0.2249998301267624,7018.1787
0.22666649520397186,7014.8755
0.22833316028118134,7011.472
0.2299998253583908,7008.319
0.23166649043560028,7005.416
0.23333315551280975,7002.9634
0.23499982059001923,7000.511
0.2366664856672287,6998.409
0.23833315074443817,6996.6074
0.23999981582164764,6995.256
0.24166648089885712,6993.6543
0.2433331459760666,6992.8535
0.24499981105327606,6992.153
0.24666647613048553,6991.6025
0.248333141207695,6990.9517
0.24999980628490448,6990.351
0.25166648626327515,6989.6006
0.2533331513404846,6988.8
0.2549998164176941,6988.049
0.25666648149490356,6987.398
0.25833314657211304,6986.9478
0.2599998116493225,6986.5474
0.261666476726532,6986.147
0.26333314180374146,6985.6465
0.2649998068809509,6985.246
0.2666664719581604,6984.8955
0.2683331370353699,6984.595
0.26999980211257935,6984.3447
0.2716664671897888,6983.9946
0.2733331322669983,6983.644
0.27499979734420776,6983.194
0.27666646242141724,6982.643
0.2783331274986267,6982.093
0.2799997925758362,6981.542
0.28166645765304565,6980.9917
0.2833331227302551,6980.441
0.2849997878074646,6979.9907
0.2866664528846741,6979.54
0.28833311796188354,6979.09
0.289999783039093,6978.639
0.2916664481163025,6978.239
0.29333311319351196,6977.7383
0.29499977827072144,6977.238
0.2966664433479309,6976.7876
0.2983331084251404,6976.237
0.29999977350234985,6975.7363
0.3016664385795593,6975.1357
0.3033331036567688,6974.3853
0.30499976873397827,6973.6343
0.30666643381118774,6972.8335
0.3083330988883972,6971.983
0.3099997639656067,6971.182
0.31166642904281616,6970.4814
0.31333309412002563,6969.781
0.3149997591972351,6969.18
0.3166664242744446,6967.779
0.31833308935165405,6967.028
0.3199997544288635,6966.5273
0.321666419506073,6966.077
0.32333308458328247,6965.5264
0.32499974966049194,6965.026
0.3266664147377014,6964.6255
0.3283330798149109,6964.075
0.32999974489212036,6963.8247
0.33166640996932983,6964.4756
0.3333330750465393,6966.778
0.3349997401237488,6969.5806
0.33666640520095825,6973.635
0.3383330702781677,6978.7896
0.3399997353553772,6985.296
0.34166640043258667,6993.154
0.34333306550979614,7002.1626
0.3449997305870056,7012.523
0.3466663956642151,7023.934
0.34833306074142456,7035.746
0.34999972581863403,7047.808
0.3516663908958435,7060.02
0.353333055973053,7072.282
0.35499972105026245,7084.5444
0.3566663861274719,7096.8066
0.3583330512046814,7108.7686
0.35999971628189087,7120.6304
0.36166638135910034,7132.2417
0.3633330464363098,7143.3525
0.3649997115135193,7154.0635
0.36666637659072876,7164.4233
0.36833304166793823,7174.283
0.3699997067451477,7183.5425
0.3716663718223572,7192.251
0.37333303689956665,7200.309
0.3749997019767761,7207.7163
0.3766663670539856,7214.3228
0.37833303213119507,7220.429
0.37999969720840454,7225.784
0.381666362285614,7230.4893
0.3833330273628235,7234.393
0.38499969244003296,7237.546
0.38666635751724243,7239.748
0.3883330225944519,7241.2495
0.3899996876716614,7241.9004
0.39166635274887085,7242.0503
0.3933330178260803,7241.55
0.3949996829032898,7240.3486
0.39666634798049927,7238.497
0.39833301305770874,7235.8945
0.3999996781349182,7232.6914
0.4016663432121277,7228.887
0.40333300828933716,7224.533
0.40499967336654663,7219.578
0.4066663384437561,7214.173
0.4083330035209656,7208.1167
0.40999966859817505,7201.6104
0.4116663336753845,7194.5034
0.413332998752594,7187.5967
0.41499966382980347,7180.7397
0.41666632890701294,7173.883
0.4183329939842224,7166.8257
0.4199996590614319,7160.2695
0.42166632413864136,7153.8633
0.42333298921585083,7147.707
0.4249996542930603,7141.651
0.4266663193702698,7135.7954
0.42833298444747925,7130.1396
0.4299996495246887,7124.0337
0.4316663146018982,7117.377
0.43333297967910767,7110.2197
0.43499964475631714,7102.8125
0.4366663098335266,7094.554
0.4383329749107361,7085.996
0.43999963998794556,7076.937
0.44166630506515503,7067.4775
0.4433329701423645,7057.668
0.444999635219574,7047.608
0.44666630029678345,7037.398
0.4483329653739929,7027.3877
0.4499996304512024,7017.578
0.45166629552841187,7007.9688
0.45333296060562134,6998.559
0.4549996256828308,6989.35
0.4566662907600403,6980.291
0.45833295583724976,6971.4824
0.45999962091445923,6962.924
0.4616662859916687,6954.5654
0.4633329510688782,6946.3076
0.46499961614608765,6938.199
0.4666662812232971,6930.2915
0.4683329463005066,6922.5337
0.46999961137771606,6914.9263
0.47166627645492554,6907.3687
0.473332941532135,6900.0615
0.4749996066093445,6893.0547
0.47666627168655396,6886.048
0.4783329367637634,6879.2407
0.4799996018409729,6872.6343
0.4816662669181824,6866.178
0.48333293199539185,6859.7715
0.4849995970726013,6853.5654
0.4866662621498108,6847.4097
0.48833292722702026,6841.4033
0.48999959230422974,6835.4478
0.4916662573814392,6829.5415
0.4933329224586487,6823.736
0.49499958753585815,6818.1304
0.4966662526130676,6812.475
0.4983329176902771,6806.9194
0.4999995827674866,6801.564
0.501666247844696,6796.259
0.5033329129219055,6791.154
0.504999577999115,6786.149
0.5066662430763245,6781.194
0.5083329081535339,6776.289
0.5099995732307434,6771.534
0.5116662383079529,6766.7295
0.5133329033851624,6762.4253
0.5149995684623718,6758.121
0.5166662335395813,6753.817
0.5183328986167908,6749.112
0.5199995636940002,6744.758
0.5216662287712097,6740.5034
0.5233328938484192,6736.099
0.5249995589256287,6731.895
0.5266662240028381,6727.4404
0.5283328890800476,6723.036
0.5299995541572571,6718.382
0.5316662192344666,6713.777
0.533332884311676,6709.3228
0.5349995493888855,6705.519
0.536666214466095,6701.5146
0.5383328795433044,6697.661
0.5399995446205139,6694.1074
0.5416662096977234,6690.704
0.5433328747749329,6687.8013
0.5449995398521423,6684.9985
0.5466662049293518,6682.296
0.5483328700065613,6679.8433
0.5499995350837708,6677.441
0.5516662001609802,6675.0386
0.5533328652381897,6672.8364
0.5549995303153992,6670.7344
0.5566661953926086,6668.682
0.5583328604698181,6666.68
0.5599995255470276,6664.678
0.5616661906242371,6662.7764
0.5633328557014465,6660.9746
0.564999520778656,6659.1226
0.5666661858558655,6657.521
0.568332850933075,6655.8696
0.5699995160102844,6654.168
0.5716661810874939,6652.366
0.5733328461647034,6650.6646
0.5749995112419128,6648.863
0.5766661763191223,6647.161
0.5783328413963318,6645.4595
0.5799995064735413,6644.008
0.5816661715507507,6642.6064
0.5833328366279602,6641.205
0.5849995017051697,6639.954
0.5866661667823792,6638.7026
0.5883328318595886,6637.552
0.5899994969367981,6636.4004
0.5916661620140076,6635.249
0.593332827091217,6634.148
0.5949994921684265,6633.1973
0.596666157245636,6632.146
0.5983328223228455,6631.045
0.5999994874000549,6629.8936
0.6016661524772644,6628.843
0.6033328175544739,6627.842
0.6049994826316833,6626.841
0.6066661477088928,6625.8896
0.6083328127861023,6625.089
0.6099994778633118,6624.3384
0.6116661429405212,6623.4873
0.6133328080177307,6622.6865
0.6149994730949402,6622.086
0.6166661381721497,6621.4355
0.6183328032493591,6620.735
0.6199994683265686,6620.034
0.6216661334037781,6619.4834
0.6233327984809875,6618.883
0.624999463558197,6618.182
0.6266661286354065,6617.3813
0.628332793712616,6616.881
0.6299994587898254,6615.93
0.6316661238670349,6614.979
0.6333327889442444,6614.0283
0.6349994540214539,6613.1772
0.6366661190986633,6612.3267
0.6383327841758728,6611.426
0.6399994492530823,6610.625
0.6416661143302917,6610.0244
0.6433327794075012,6609.424
0.6449994444847107,6608.623
0.6466661095619202,6608.2227
0.6483327746391296,6607.772
0.6499994397163391,6607.422
0.6516661047935486,6607.0713
0.6533327698707581,6606.721
0.6549994349479675,6606.321
0.656666100025177,6606.0205
0.6583327651023865,6605.62
0.659999430179596,6605.42
0.6616660952568054,6605.2197
0.6633327603340149,6605.1196
0.6649994254112244,6604.969
0.6666660904884338,6604.9194
0.6683327555656433,6604.8193
0.6699994206428528,6604.969
0.6716660857200623,6604.969
0.6733327507972717,6604.969
0.6749994158744812,6604.969
0.6766660809516907,6604.8193
0.6783327460289001,6604.719
0.6799994111061096,6604.619
0.6816660761833191,6604.769
0.6833327412605286,6604.769
0.684999406337738,6604.769
0.6866660714149475,6604.719
0.688332736492157,6604.719
0.6899994015693665,6604.769
0.6916660666465759,6604.869
0.6933327317237854,6605.0195
0.6949993968009949,6605.2695
0.6966660618782043,6605.4697
0.6983327269554138,6605.62
0.6999993920326233,6605.8203
0.7016660571098328,6606.0205
0.7033327221870422,6606.2207
0.7049993872642517,6606.4707
0.7066660523414612,6606.8213
0.7083327174186707,6606.971
0.7099993824958801,6607.1714
0.7116660475730896,6607.2217
0.7133327126502991,6607.422
0.7149993777275085,6607.622
0.716666042804718,6607.8223
0.7183327078819275,6607.972
0.719999372959137,6608.2725
0.7216660380363464,6607.872
0.7233327031135559,6607.8223
0.7249993681907654,6608.2725
0.7266660332679749,6608.523
0.7283326983451843,6608.823
0.7299993634223938,6608.9233
0.7316660284996033,6609.2236
0.7333326935768127,6609.3237
0.7349993586540222,6609.524
0.7366660237312317,6609.524
0.7383326888084412,6610.1245
0.7399993538856506,6610.1743
0.7416660189628601,6609.974
0.7433326840400696,6609.9243
0.744999349117279,6609.874
0.7466660141944885,6610.0244
0.748332679271698,6609.874
0.7499993443489075,6609.9243
0.7516660094261169,6610.0244
0.7533326745033264,6610.2246
0.7549993395805359,6610.425
0.7566660046577454,6610.725
0.7583326697349548,6610.825
0.7599993348121643,6610.875
0.7616659998893738,6611.075
0.7633326649665833,6611.1255
0.7649993300437927,6611.3257
0.7666659951210022,6611.5757
0.7683326601982117,6611.726
0.7699993252754211,6611.826
0.7716659903526306,6612.0264
0.7733326554298401,6612.2266
0.7749993205070496,6612.3765
0.776665985584259,6612.527
0.7783326506614685,6612.627
0.779999315738678,6612.627
0.7816659808158875,6612.727
0.7833326458930969,6612.827
0.7849993109703064,6612.977
0.7866659760475159,6613.0273
0.7883326411247253,6613.1274
0.7899993062019348,6613.1772
0.7916659712791443,6613.3276
0.7933326363563538,6613.628
0.7949993014335632,6613.6777
0.7966659665107727,6613.928
0.7983326315879822,6613.778
0.7999992966651917,6613.828
0.8016659617424011,6613.878
0.8033326268196106,6614.078
0.8049992918968201,6614.178
0.8066659569740295,6614.2783
0.808332622051239,6614.3286
0.8099992871284485,6614.3286
0.811665952205658,6614.2285
0.8133326172828674,6614.2783
0.8149992823600769,6614.3784
0.8166659474372864,6614.4287
0.8183326125144958,6614.3784
0.8199992775917053,6614.2783
0.8216659426689148,6614.2285
0.8233326077461243,6614.2285
0.8249992728233337,6614.178
0.8266659379005432,6614.2783
0.8283326029777527,6614.629
0.8299992680549622,6614.729
0.8316659331321716,6614.979
0.8333325982093811,6614.879
0.8349992632865906,6615.079
0.8366659283638,6615.53
0.8383325934410095,6615.6797
0.839999258518219,6615.6797
0.8416659235954285,6615.6797
0.8433325886726379,6615.4795
0.8449992537498474,6615.0293
0.8466659188270569,6614.5786
0.8483325839042664,6614.178
0.8499992489814758,6613.928
0.8516659140586853,6613.5776
0.8533325791358948,6613.0273
0.8549992442131042,6612.677
0.8566659092903137,6612.427
0.8583325743675232,6612.076
0.8599992394447327,6611.776
0.8616659045219421,6611.726
0.8633325695991516,6611.5757
0.8649992346763611,6611.3257
0.8666658997535706,6611.1753
0.86833256483078,6610.875
0.8699992299079895,6610.5747
0.871665894985199,6610.525
0.8733325600624084,6610.3745
0.8749992251396179,6610.425
0.8766658902168274,6610.525
0.8783325552940369,6610.4746
0.8799992203712463,6610.675
0.8816658854484558,6610.825
0.8833325505256653,6611.2256
0.8849992156028748,6611.3257
0.8866658806800842,6611.4756
0.8883325457572937,6611.426
0.8899992108345032,6611.0254
0.8916658759117126,6611.1255
0.8933325409889221,6611.075
0.8949992060661316,6611.1753
0.8966658711433411,6611.2256
0.8983325362205505,6611.426
0.89999920129776,6611.1753
0.9016658663749695,6611.3257
0.903332531452179,6611.3257
0.9049991965293884,6611.526
0.9066658616065979,6612.1763
0.9083325266838074,6612.4766
0.9099991917610168,6612.977
0.9116658568382263,6613.4775
0.9133325219154358,6613.878
0.9149991869926453,6614.1284
0.9166658520698547,6614.5786
0.9183325171470642,6615.0293
0.9199991822242737,6615.5796
0.9216658473014832,6616.1304
0.9233325123786926,6616.5806
0.9249991774559021,6617.0312
0.9266658425331116,6617.4316
0.928332507610321,6617.882
0.9299991726875305,6618.4326
0.93166583776474,6618.933
0.9333325028419495,6619.4336
0.9349991679191589,6619.984
0.9366658329963684,6620.3345
0.9383324980735779,6620.835
0.9399991631507874,6621.5854
0.9416658282279968,6622.2363
0.9433324933052063,6622.7866
0.9449991583824158,6623.2373
0.9466658234596252,6623.7876
0.9483324885368347,6624.388
0.9499991536140442,6624.939
0.9516658186912537,6625.4395
0.9533324837684631,6626.14
0.9549991488456726,6626.5903
0.9566658139228821,6626.841
0.9583324790000916,6627.241
0.959999144077301,6627.8916
0.9616658091545105,6628.7925
0.96333247423172,6629.694
0.9649991393089294,6630.6445
0.9666658043861389,6631.6455
0.9683324694633484,6632.797
0.9699991345405579,6633.9478
0.9716657996177673,6635.2993
0.9733324646949768,6636.7007
0.9749991297721863,6638.102
0.9766657948493958,6639.3535
0.9783324599266052,6640.5547
0.9799991250038147,6641.7056
0.9816657900810242,6643.057
0.9833324551582336,6644.5083
0.9849991202354431,6645.86
0.9866657853126526,6647.3613
0.9883324503898621,6648.8125
0.9899991154670715,6650.3643
0.991665780544281,6651.8657
0.9933324456214905,6653.417
0.9949991106987,6654.9688
0.9966657757759094,6656.5703
0.9983324408531189,6658.2217
0.9999991059303284,6659.8735
1.0016658306121826,6661.6753
1.003332495689392,6663.377
1.0049991607666016,6665.0786
1.006665825843811,6666.7803
1.0083324909210205,6668.6323
1.00999915599823,6670.4844
1.0116658210754395,6672.336
1.013332486152649,6674.288
1.0149991512298584,6676.2397
1.0166658163070679,6678.192
1.0183324813842773,6680.1436
1.0199991464614868,6682.0454
1.0216658115386963,6684.0977
1.0233324766159058,6686.0996
1.0249991416931152,6688.1016
1.0266658067703247,6690.2036
1.0283324718475342,6692.3057
1.0299991369247437,6694.358
1.0316658020019531,6696.26
1.0333324670791626,6698.3115
1.034999132156372,6700.3135
1.0366657972335815,6702.616
1.038332462310791,6704.9185
1.0399991273880005,6707.321
1.04166579246521,6709.673
1.0433324575424194,6711.9253
1.044999122619629,6714.1274
1.0466657876968384,6716.2793
1.0483324527740479,6718.982
1.0499991178512573,6721.385
1.0516657829284668,6723.687
1.0533324480056763,6725.939
1.0549991130828857,6727.991
1.0566657781600952,6730.043
1.0583324432373047,6732.446
1.0599991083145142,6734.6978
1.0616657733917236,6737.0503
1.063332438468933,6739.3022
1.0649991035461426,6741.1543
1.066665768623352,6743.1562
1.0683324337005615,6745.3584
1.069999098777771,6747.41
1.0716657638549805,6749.6626
1.07333242893219,6752.0146
1.0749990940093994,6754.117
1.0766657590866089,6756.6196
1.0783324241638184,6759.122
1.0799990892410278,6761.7744
1.0816657543182373,6764.477
1.0833324193954468,6767.33
1.0849990844726562,6770.083
1.0866657495498657,6772.7856
1.0883324146270752,6775.388
1.0899990797042847,6778.091
1.0916657447814941,6780.9434
1.0933324098587036,6783.7466
1.094999074935913,6786.5493
1.0966657400131226,6789.602
1.098332405090332,6792.605
1.0999990701675415,6795.508
1.101665735244751,6798.411
1.1033324003219604,6801.6143
1.10499906539917,6804.8174
1.1066657304763794,6807.87
1.1083323955535889,6810.973
1.1099990606307983,6813.9263
1.1116657257080078,6816.929
1.1133323907852173,6819.782
1.1149990558624268,6822.8853
1.1166657209396362,6826.038
1.1183323860168457,6829.2915
1.1199990510940552,6832.445
1.1216657161712646,6835.848
1.1233323812484741,6839.0513
1.1249990463256836,6842.304
1.126665711402893,6845.608
1.1283323764801025,6848.861
1.129999041557312,6852.264
1.1316657066345215,6855.5176
1.133332371711731,6858.8706
1.1349990367889404,6862.3745
1.13666570186615,6865.878
1.1383323669433594,6869.331
1.1399990320205688,6873.0347
1.1416656970977783,6876.4883
1.1433323621749878,6880.092
1.1449990272521973,6883.8457
1.1466656923294067,6887.5493
1.1483323574066162,6891.153
1.1499990224838257,6894.7563
1.1516656875610352,6898.36
1.1533323526382446,6902.0137
1.154999017715454,6905.7173
1.1566656827926636,6909.421
1.158332347869873,6913.2246
1.1599990129470825,6917.0786
1.161665678024292,6920.632
